time,ppg
63478.94821566057,169692.0
63478.95832482468,169671.0
63478.96843398878,169698.0
63478.978543152894,169699.0
63478.988652317,169665.0
63478.9987614811,169683.0
63479.008870645215,169673.0
63479.01897980932,169692.0
63479.029088973424,169693.0
63479.039198137536,169713.0
63479.04930730164,169700.0
63479.059416465745,169720.0
63479.06952562986,169702.0
63479.07963479396,169685.0
63479.089743958066,169677.0
63479.09985312218,169722.0
63479.10996228628,169705.0
63479.12007145039,169710.0
63479.1301806145,169677.0
63479.1402897786,169702.0
63479.15039894271,169726.0
63479.16050810682,169709.0
63479.170617270924,169679.0
63479.18072643503,169682.0
63479.19083559914,169685.0
63479.200944763244,169691.0
63479.21105392735,169646.0
63479.22116309146,169624.0
63479.231272255565,169651.0
63479.24138141967,169641.0
63479.251490583774,169643.0
63479.261599747886,169599.0
63479.27170891199,169637.0
63479.281818076095,169644.0
63479.29192724021,169639.0
63479.30203640431,169632.0
63479.312145568416,169634.0
63479.32225473253,169615.0
63479.33236389663,169646.0
63479.34247306074,169651.0
63479.35258222485,169611.0
63479.36269138895,169634.0
63479.37280055306,169651.0
63479.38290971717,169653.0
63479.393018881274,169589.0
63479.40312804538,169633.0
63479.41323720949,169640.0
63479.423346373595,169649.0
63479.4334555377,169621.0
63479.44356470181,169639.0
63479.453673865915,169620.0
63479.46378303002,169649.0
63479.47389219413,169614.0
63479.484001358236,169655.0
63479.49411052234,169619.0
63479.50421968645,169677.0
63479.51432885056,169605.0
63479.52443801466,169620.0
63479.53454717877,169615.0
63479.54465634288,169641.0
63479.55476550698,169672.0
63479.56487467109,169642.0
63479.5749838352,169619.0
63479.5850929993,169646.0
63479.59520216341,169644.0
63479.60531132752,169646.0
63479.615420491624,169636.0
63479.62552965573,169635.0
63479.63563881984,169651.0
63479.645747983945,169666.0
63479.65585714805,169649.0
63479.66596631216,169615.0
63479.676075476265,169657.0
63479.68618464037,169650.0
63479.69629380448,169644.0
63479.706402968586,169647.0
63479.71651213269,169654.0
63479.7266212968,169673.0
63479.73673046091,169667.0
63479.74683962501,169671.0
63479.75694878912,169650.0
63479.76705795323,169679.0
63479.77716711733,169668.0
63479.787276281444,169643.0
63479.79738544555,169633.0
63479.80749460965,169692.0
63479.817603773765,169667.0
63479.82771293787,169657.0
63479.837822101974,169692.0
63479.847931266086,169645.0
63479.85804043019,169682.0
63479.868149594295,169700.0
63479.8782587584,169650.0
63479.88836792251,169658.0
63479.898477086615,169686.0
63479.90858625072,169696.0
63479.91869541483,169669.0
63479.928804578936,169650.0
63479.93891374304,169682.0
63479.94902290715,169665.0
63479.95913207126,169710.0
63479.96924123536,169677.0
63479.97935039947,169682.0
63479.98945956358,169682.0
63479.99956872768,169683.0
63480.009677891794,169667.0
63480.0197870559,169703.0
63480.02989622,169682.0
63480.040005384115,169714.0
63480.05011454822,169722.0
63480.060223712324,169709.0
63480.070332876436,169673.0
63480.08044204054,169683.0
63480.090551204645,169681.0
63480.10066036876,169683.0
63480.11076953286,169647.0
63480.120878696966,169650.0
63480.13098786108,169633.0
63480.14109702518,169638.0
63480.151206189286,169632.0
63480.1613153534,169623.0
63480.1714245175,169635.0
63480.18153368161,169613.0
63480.19164284571,169582.0
63480.20175200982,169640.0
63480.21186117393,169632.0
63480.22197033803,169615.0
63480.232079502144,169627.0
63480.24218866625,169612.0
63480.25229783035,169598.0
63480.262406994465,169643.0
63480.27251615857,169627.0
63480.282625322674,169604.0
63480.292734486786,169595.0
63480.30284365089,169637.0
63480.312952814995,169621.0
63480.32306197911,169579.0
63480.33317114321,169596.0
63480.343280307316,169611.0
63480.35338947143,169618.0
63480.36349863553,169629.0
63480.37360779964,169641.0
63480.38371696375,169633.0
63480.39382612785,169628.0
63480.40393529196,169604.0
63480.41404445607,169621.0
63480.42415362017,169625.0
63480.43426278428,169620.0
63480.44437194839,169640.0
63480.454481112494,169634.0
63480.4645902766,169632.0
63480.47469944071,169621.0
63480.484808604815,169602.0
63480.49491776892,169627.0
63480.505026933024,169635.0
63480.515136097136,169630.0
63480.52524526124,169640.0
63480.535354425345,169606.0
63480.54546358946,169663.0
63480.55557275356,169624.0
63480.565681917666,169640.0
63480.57579108178,169624.0
63480.58590024588,169602.0
63480.59600940999,169642.0
63480.6061185741,169629.0
63480.6162277382,169649.0
63480.62633690231,169606.0
63480.63644606642,169617.0
63480.64655523052,169650.0
63480.65666439463,169664.0
63480.66677355874,169613.0
63480.676882722844,169634.0
63480.68699188695,169654.0
63480.69710105106,169648.0
63480.707210215165,169629.0
63480.71731937927,169659.0
63480.72742854338,169646.0
63480.737537707486,169638.0
63480.74764687159,169625.0
63480.7577560357,169644.0
63480.76786519981,169662.0
63480.77797436391,169633.0
63480.78808352802,169652.0
63480.79819269213,169657.0
63480.80830185623,169671.0
63480.81841102034,169644.0
63480.82852018445,169629.0
63480.83862934855,169620.0
63480.84873851266,169679.0
63480.85884767677,169644.0
63480.86895684087,169680.0
63480.87906600498,169672.0
63480.88917516909,169682.0
63480.899284333194,169681.0
63480.9093934973,169668.0
63480.91950266141,169693.0
63480.929611825515,169713.0
63480.93972098962,169688.0
63480.94983015373,169671.0
63480.959939317836,169697.0
63480.97004848194,169674.0
63480.98015764605,169690.0
63480.99026681016,169674.0
63481.00037597426,169694.0
63481.01048513837,169670.0
63481.02059430248,169693.0
63481.03070346658,169682.0
63481.040812630694,169633.0
63481.0509217948,169638.0
63481.0610309589,169657.0
63481.071140123015,169626.0
63481.08124928712,169661.0
63481.091358451224,169625.0
63481.101467615335,169628.0
63481.11157677944,169613.0
63481.121685943544,169636.0
63481.13179510765,169612.0
63481.14190427176,169606.0
63481.152013435865,169627.0
63481.16212259997,169597.0
63481.17223176408,169626.0
63481.182340928186,169618.0
63481.19245009229,169587.0
63481.2025592564,169620.0
63481.21266842051,169624.0
63481.22277758461,169613.0
63481.23288674872,169602.0
63481.24299591283,169627.0
63481.25310507693,169613.0
63481.263214241044,169579.0
63481.27332340515,169601.0
63481.28343256925,169588.0
63481.293541733365,169641.0
63481.30365089747,169603.0
63481.313760061574,169616.0
63481.323869225685,169614.0
63481.33397838979,169635.0
63481.344087553894,169594.0
63481.354196718006,169611.0
63481.36430588211,169604.0
63481.374415046215,169608.0
63481.38452421033,169628.0
63481.39463337443,169581.0
63481.404742538536,169596.0
63481.41485170265,169591.0
63481.42496086675,169586.0
63481.43507003086,169614.0
63481.44517919496,169614.0
63481.45528835907,169603.0
63481.46539752318,169660.0
63481.47550668728,169631.0
63481.485615851394,169598.0
63481.4957250155,169590.0
63481.5058341796,169621.0
63481.515943343715,169632.0
63481.52605250782,169656.0
63481.536161671924,169585.0
63481.546270836036,169654.0
63481.55638000014,169637.0
63481.566489164245,169653.0
63481.576598328356,169643.0
63481.58670749246,169638.0
63481.596816656565,169631.0
63481.60692582068,169649.0
63481.61703498478,169637.0
63481.627144148886,169638.0
63481.637253313,169656.0
63481.6473624771,169640.0
63481.65747164121,169626.0
63481.66758080532,169608.0
63481.67768996942,169651.0
63481.68779913353,169647.0
63481.69790829764,169671.0
63481.708017461744,169626.0
63481.71812662585,169679.0
63481.72823578996,169651.0
63481.738344954065,169664.0
63481.74845411817,169634.0
63481.758563282274,169621.0
63481.768672446386,169654.0
63481.77878161049,169643.0
63481.788890774595,169631.0
63481.79899993871,169610.0
63481.80910910281,169655.0
63481.819218266915,169690.0
63481.82932743103,169646.0
63481.83943659513,169649.0
63481.849545759236,169665.0
63481.85965492335,169645.0
63481.86976408745,169680.0
63481.87987325156,169646.0
63481.88998241567,169676.0
63481.90009157977,169655.0
63481.91020074388,169690.0
63481.92030990799,169661.0
63481.930419072094,169668.0
63481.9405282362,169686.0
63481.95063740031,169677.0
63481.960746564415,169651.0
63481.97085572852,169681.0
63481.98096489263,169674.0
63481.991074056736,169705.0
63482.00118322084,169707.0
63482.01129238495,169675.0
63482.02140154906,169657.0
63482.03151071316,169659.0
63482.04161987727,169659.0
63482.05172904138,169614.0
63482.06183820548,169614.0
63482.071947369586,169623.0
63482.0820565337,169612.0
63482.0921656978,169579.0
63482.10227486191,169611.0
63482.11238402602,169604.0
63482.12249319012,169621.0
63482.13260235423,169591.0
63482.14271151834,169608.0
63482.152820682444,169610.0
63482.16292984655,169607.0
63482.17303901066,169613.0
63482.183148174765,169613.0
63482.19325733887,169595.0
63482.20336650298,169567.0
63482.213475667086,169612.0
63482.22358483119,169603.0
63482.2336939953,169583.0
63482.24380315941,169618.0
63482.25391232351,169630.0
63482.26402148762,169615.0
63482.27413065173,169579.0
63482.28423981583,169590.0
63482.29434897994,169586.0
63482.30445814405,169623.0
63482.31456730815,169641.0
63482.324676472264,169585.0
63482.33478563637,169605.0
63482.34489480047,169619.0
63482.355003964585,169657.0
63482.36511312869,169602.0
63482.375222292794,169632.0
63482.3853314569,169623.0
63482.39544062101,169629.0
63482.405549785115,169624.0
63482.41565894922,169638.0
63482.42576811333,169639.0
63482.435877277436,169608.0
63482.44598644154,169608.0
63482.45609560565,169611.0
63482.46620476976,169642.0
63482.47631393386,169628.0
63482.48642309797,169612.0
63482.49653226208,169610.0
63482.50664142618,169647.0
63482.516750590294,169637.0
63482.5268597544,169628.0
63482.5369689185,169621.0
63482.547078082614,169617.0
63482.55718724672,169646.0
63482.56729641082,169676.0
63482.577405574935,169629.0
63482.58751473904,169656.0
63482.597623903144,169652.0
63482.607733067256,169622.0
63482.61784223136,169638.0
63482.627951395465,169628.0
63482.63806055958,169652.0
63482.64816972368,169640.0
63482.658278887786,169687.0
63482.6683880519,169639.0
63482.678497216,169652.0
63482.68860638011,169650.0
63482.69871554421,169671.0
63482.70882470832,169642.0
63482.71893387243,169665.0
63482.72904303653,169680.0
63482.739152200644,169682.0
63482.74926136475,169635.0
63482.75937052885,169671.0
63482.769479692965,169668.0
63482.77958885707,169650.0
63482.78969802117,169647.0
63482.799807185285,169678.0
63482.80991634939,169646.0
63482.820025513494,169676.0
63482.830134677606,169688.0
63482.84024384171,169655.0
63482.850353005815,169685.0
63482.86046216993,169698.0
63482.87057133403,169694.0
63482.880680498136,169675.0
63482.89078966225,169682.0
63482.90089882635,169673.0
63482.91100799046,169699.0
63482.92111715457,169685.0
63482.93122631867,169696.0
63482.94133548278,169690.0
63482.95144464689,169712.0
63482.961553810994,169707.0
63482.9716629751,169704.0
63482.98177213921,169687.0
63482.991881303315,169713.0
63483.00199046742,169676.0
63483.01209963152,169655.0
63483.022208795635,169639.0
63483.03231795974,169639.0
63483.042427123844,169662.0
63483.052536287956,169639.0
63483.06264545206,169640.0
63483.072754616165,169635.0
63483.08286378028,169596.0
63483.09297294438,169625.0
63483.103082108486,169651.0
63483.1131912726,169620.0
63483.1233004367,169663.0
63483.13340960081,169635.0
63483.14351876492,169642.0
63483.15362792902,169609.0
63483.16373709313,169636.0
63483.17384625724,169632.0
63483.183955421344,169611.0
63483.19406458545,169618.0
63483.20417374956,169621.0
63483.214282913665,169644.0
63483.22439207777,169625.0
63483.23450124188,169650.0
63483.244610405985,169642.0
63483.25471957009,169643.0
63483.2648287342,169653.0
63483.274937898306,169644.0
63483.28504706241,169617.0
63483.29515622652,169663.0
63483.30526539063,169661.0
63483.31537455473,169626.0
63483.325483718836,169617.0
63483.33559288295,169617.0
63483.34570204705,169656.0
63483.35581121116,169622.0
63483.36592037527,169665.0
63483.37602953937,169616.0
63483.38613870348,169643.0
63483.39624786759,169681.0
63483.406357031694,169644.0
63483.4164661958,169627.0
63483.42657535991,169635.0
63483.436684524015,169644.0
63483.44679368812,169670.0
63483.45690285223,169658.0
63483.467012016336,169661.0
63483.47712118044,169630.0
63483.48723034455,169680.0
63483.497339508656,169632.0
63483.50744867276,169666.0
63483.51755783687,169633.0
63483.52766700098,169697.0
63483.53777616508,169666.0
63483.54788532919,169648.0
63483.5579944933,169661.0
63483.5681036574,169681.0
63483.578212821514,169673.0
63483.58832198562,169673.0
63483.59843114972,169671.0
63483.608540313835,169672.0
63483.61864947794,169683.0
63483.628758642044,169693.0
63483.63886780615,169682.0
63483.64897697026,169692.0
63483.659086134365,169656.0
63483.66919529847,169696.0
63483.67930446258,169674.0
63483.689413626686,169655.0
63483.69952279079,169705.0
63483.7096319549,169664.0
63483.719741119006,169681.0
63483.72985028311,169677.0
63483.73995944722,169705.0
63483.75006861133,169693.0
63483.76017777543,169681.0
63483.77028693954,169703.0
63483.78039610365,169663.0
63483.79050526775,169700.0
63483.800614431864,169665.0
63483.81072359597,169691.0
63483.82083276007,169695.0
63483.830941924185,169695.0
63483.84105108829,169712.0
63483.851160252394,169697.0
63483.861269416506,169720.0
63483.87137858061,169714.0
63483.881487744715,169716.0
63483.89159690883,169695.0
63483.90170607293,169715.0
63483.911815237036,169701.0
63483.92192440115,169720.0
63483.93203356525,169758.0
63483.94214272936,169739.0
63483.95225189346,169735.0
63483.96236105757,169718.0
63483.97247022168,169699.0
63483.98257938578,169716.0
63483.99268854989,169681.0
63484.002797714,169713.0
63484.0129068781,169705.0
63484.023016042214,169688.0
63484.03312520632,169678.0
63484.04323437042,169661.0
63484.053343534535,169674.0
63484.06345269864,169672.0
63484.073561862744,169664.0
63484.083671026856,169656.0
63484.09378019096,169658.0
63484.103889355065,169631.0
63484.11399851918,169639.0
63484.12410768328,169637.0
63484.134216847386,169654.0
63484.1443260115,169617.0
63484.1544351756,169636.0
63484.16454433971,169667.0
63484.17465350382,169656.0
63484.18476266792,169693.0
63484.19487183203,169663.0
63484.20498099614,169678.0
63484.21509016024,169651.0
63484.22519932435,169659.0
63484.23530848846,169662.0
63484.245417652564,169632.0
63484.25552681667,169677.0
63484.26563598077,169682.0
63484.275745144885,169666.0
63484.28585430899,169642.0
63484.295963473094,169680.0
63484.306072637206,169699.0
63484.31618180131,169648.0
63484.326290965415,169699.0
63484.33640012953,169631.0
63484.34650929363,169659.0
63484.356618457736,169636.0
63484.36672762185,169666.0
63484.37683678595,169675.0
63484.38694595006,169663.0
63484.39705511417,169672.0
63484.40716427827,169668.0
63484.41727344238,169685.0
63484.42738260649,169685.0
63484.43749177059,169657.0
63484.4476009347,169643.0
63484.45771009881,169654.0
63484.467819262914,169706.0
63484.47792842702,169669.0
63484.48803759113,169673.0
63484.498146755235,169684.0
63484.50825591934,169693.0
63484.51836508345,169690.0
63484.528474247556,169721.0
63484.53858341166,169689.0
63484.54869257577,169703.0
63484.55880173988,169691.0
63484.56891090398,169720.0
63484.579020068086,169666.0
63484.5891292322,169701.0
63484.5992383963,169679.0
63484.60934756041,169696.0
63484.61945672452,169708.0
63484.62956588862,169706.0
63484.63967505273,169705.0
63484.64978421684,169713.0
63484.659893380944,169725.0
63484.67000254505,169709.0
63484.68011170916,169678.0
63484.690220873264,169696.0
63484.70033003737,169719.0
63484.71043920148,169711.0
63484.720548365585,169693.0
63484.73065752969,169659.0
63484.7407666938,169713.0
63484.750875857906,169705.0
63484.76098502201,169694.0
63484.77109418612,169716.0
63484.78120335023,169673.0
63484.79131251433,169712.0
63484.80142167844,169721.0
63484.81153084255,169724.0
63484.82164000665,169731.0
63484.831749170764,169729.0
63484.84185833487,169729.0
63484.85196749897,169714.0
63484.862076663085,169732.0
63484.87218582719,169752.0
63484.882294991294,169730.0
63484.8924041554,169733.0
63484.90251331951,169731.0
63484.912622483615,169756.0
63484.92273164772,169737.0
63484.93284081183,169713.0
63484.942949975935,169714.0
63484.95305914004,169741.0
63484.96316830415,169741.0
63484.973277468256,169739.0
63484.98338663236,169701.0
63484.99349579647,169730.0
63485.00360496058,169749.0
63485.01371412468,169703.0
63485.02382328879,169659.0
63485.0339324529,169675.0
63485.044041617,169687.0
63485.054150781114,169723.0
63485.06425994522,169691.0
63485.07436910932,169665.0
63485.084478273435,169687.0
63485.09458743754,169689.0
63485.104696601644,169702.0
63485.114805765756,169684.0
63485.12491492986,169692.0
63485.135024093965,169737.0
63485.14513325808,169655.0
63485.15524242218,169658.0
63485.165351586285,169684.0
63485.1754607504,169695.0
63485.1855699145,169720.0
63485.195679078606,169694.0
63485.20578824271,169690.0
63485.21589740682,169713.0
63485.22600657093,169699.0
63485.23611573503,169678.0
63485.24622489914,169700.0
63485.25633406325,169701.0
63485.26644322735,169705.0
63485.276552391464,169717.0
63485.28666155557,169682.0
63485.29677071967,169710.0
63485.306879883785,169726.0
63485.31698904789,169716.0
63485.327098211994,169694.0
63485.337207376106,169693.0
63485.34731654021,169707.0
63485.357425704315,169731.0
63485.36753486843,169692.0
63485.37764403253,169709.0
63485.387753196635,169686.0
63485.39786236075,169718.0
63485.40797152485,169733.0
63485.418080688956,169719.0
63485.42818985307,169722.0
63485.43829901717,169739.0
63485.44840818128,169694.0
63485.45851734539,169724.0
63485.46862650949,169704.0
63485.4787356736,169703.0
63485.48884483771,169749.0
63485.498954001814,169723.0
63485.50906316592,169743.0
63485.51917233002,169701.0
63485.529281494135,169760.0
63485.53939065824,169736.0
63485.549499822344,169697.0
63485.559608986456,169686.0
63485.56971815056,169704.0
63485.579827314665,169749.0
63485.58993647878,169740.0
63485.60004564288,169728.0
63485.610154806986,169745.0
63485.6202639711,169770.0
63485.6303731352,169745.0
63485.640482299306,169740.0
63485.65059146342,169738.0
63485.66070062752,169710.0
63485.67080979163,169755.0
63485.68091895574,169778.0
63485.69102811984,169708.0
63485.70113728395,169728.0
63485.71124644806,169753.0
63485.721355612164,169766.0
63485.73146477627,169738.0
63485.74157394038,169760.0
63485.751683104485,169750.0
63485.76179226859,169749.0
63485.7719014327,169754.0
63485.782010596806,169751.0
63485.79211976091,169759.0
63485.80222892502,169723.0
63485.81233808913,169731.0
63485.82244725323,169735.0
63485.832556417336,169752.0
63485.84266558145,169771.0
63485.85277474555,169770.0
63485.86288390966,169720.0
63485.87299307377,169753.0
63485.88310223787,169739.0
63485.89321140198,169773.0
63485.90332056609,169746.0
63485.91342973019,169759.0
63485.9235388943,169733.0
63485.93364805841,169764.0
63485.943757222514,169706.0
63485.95386638662,169692.0
63485.96397555073,169703.0
63485.974084714835,169720.0
63485.98419387894,169746.0
63485.99430304305,169698.0
63486.004412207156,169715.0
63486.01452137126,169683.0
63486.02463053537,169735.0
63486.03473969948,169730.0
63486.04484886358,169725.0
63486.05495802769,169706.0
63486.0650671918,169746.0
63486.0751763559,169760.0
63486.085285520014,169718.0
63486.09539468412,169694.0
63486.10550384822,169716.0
63486.11561301233,169706.0
63486.12572217644,169737.0
63486.13583134054,169734.0
63486.14594050465,169755.0
63486.15604966876,169763.0
63486.166158832864,169732.0
63486.17626799697,169719.0
63486.18637716108,169728.0
63486.196486325185,169711.0
63486.20659548929,169762.0
63486.2167046534,169711.0
63486.226813817506,169725.0
63486.23692298161,169709.0
63486.24703214572,169740.0
63486.25714130983,169712.0
63486.26725047393,169708.0
63486.27735963804,169721.0
63486.28746880215,169732.0
63486.29757796625,169707.0
63486.307687130364,169724.0
63486.31779629447,169739.0
63486.32790545857,169740.0
63486.338014622685,169758.0
63486.34812378679,169692.0
63486.35823295089,169720.0
63486.368342115005,169760.0
63486.37845127911,169746.0
63486.388560443214,169749.0
63486.398669607326,169780.0
63486.40877877143,169770.0
63486.418887935535,169746.0
63486.42899709965,169752.0
63486.43910626375,169769.0
63486.449215427856,169750.0
63486.45932459196,169758.0
63486.46943375607,169743.0
63486.47954292018,169734.0
63486.48965208428,169714.0
63486.49976124839,169738.0
63486.5098704125,169748.0
63486.5199795766,169772.0
63486.530088740714,169749.0
63486.54019790482,169743.0
63486.55030706892,169730.0
63486.560416233035,169780.0
63486.57052539714,169736.0
63486.580634561244,169756.0
63486.590743725355,169736.0
63486.60085288946,169776.0
63486.610962053564,169759.0
63486.621071217676,169752.0
63486.63118038178,169730.0
63486.641289545885,169732.0
63486.65139871,169739.0
63486.6615078741,169755.0
63486.671617038206,169744.0
63486.68172620232,169763.0
63486.69183536642,169755.0
63486.70194453053,169763.0
63486.71205369464,169749.0
63486.72216285874,169733.0
63486.73227202285,169722.0
63486.74238118695,169799.0
63486.752490351064,169759.0
63486.76259951517,169751.0
63486.77270867927,169794.0
63486.782817843385,169792.0
63486.79292700749,169756.0
63486.803036171594,169733.0
63486.813145335705,169746.0
63486.82325449981,169717.0
63486.833363663914,169713.0
63486.843472828026,169714.0
63486.85358199213,169702.0
63486.863691156235,169728.0
63486.87380032035,169685.0
63486.88390948445,169694.0
63486.894018648556,169712.0
63486.90412781267,169705.0
63486.91423697677,169722.0
63486.92434614088,169703.0
63486.93445530499,169724.0
63486.94456446909,169709.0
63486.9546736332,169728.0
63486.96478279731,169710.0
63486.974891961414,169675.0
63486.98500112552,169701.0
63486.99511028963,169726.0
63487.005219453735,169730.0
63487.01532861784,169704.0
63487.02543778195,169727.0
63487.035546946056,169724.0
63487.04565611016,169754.0
63487.05576527427,169719.0
63487.065874438376,169728.0
63487.07598360248,169720.0
63487.086092766585,169709.0
63487.0962019307,169716.0
63487.1063110948,169715.0
63487.116420258906,169706.0
63487.12652942302,169720.0
63487.13663858712,169724.0
63487.14674775123,169713.0
63487.15685691534,169708.0
63487.16696607944,169716.0
63487.17707524355,169724.0
63487.18718440766,169734.0
63487.197293571764,169700.0
63487.20740273587,169732.0
63487.21751189998,169712.0
63487.227621064085,169702.0
63487.23773022819,169731.0
63487.2478393923,169726.0
63487.257948556406,169720.0
63487.26805772051,169683.0
63487.27816688462,169746.0
63487.28827604873,169729.0
63487.29838521283,169756.0
63487.30849437694,169732.0
63487.31860354105,169768.0
63487.32871270515,169743.0
63487.33882186926,169742.0
63487.34893103337,169767.0
63487.35904019747,169736.0
63487.36914936158,169735.0
63487.37925852569,169736.0
63487.38936768979,169761.0
63487.3994768539,169758.0
63487.40958601801,169736.0
63487.419695182114,169707.0
63487.42980434622,169773.0
63487.43991351033,169774.0
63487.450022674435,169746.0
63487.46013183854,169734.0
63487.47024100265,169757.0
63487.480350166756,169748.0
63487.49045933086,169754.0
63487.50056849497,169756.0
63487.51067765908,169753.0
63487.52078682318,169725.0
63487.53089598729,169725.0
63487.5410051514,169748.0
63487.5511143155,169708.0
63487.56122347961,169750.0
63487.57133264372,169720.0
63487.58144180782,169760.0
63487.591550971934,169769.0
63487.60166013604,169715.0
63487.61176930014,169753.0
63487.621878464255,169741.0
63487.63198762836,169715.0
63487.642096792464,169681.0
63487.652205956576,169729.0
63487.66231512068,169699.0
63487.672424284785,169713.0
63487.6825334489,169682.0
63487.692642613,169723.0
63487.702751777106,169695.0
63487.71286094121,169685.0
63487.72297010532,169727.0
63487.73307926943,169667.0
63487.74318843353,169703.0
63487.75329759764,169721.0
63487.76340676175,169695.0
63487.77351592585,169705.0
63487.78362508996,169702.0
63487.79373425407,169689.0
63487.80384341817,169738.0
63487.813952582284,169682.0
63487.82406174639,169698.0
63487.83417091049,169704.0
63487.844280074605,169728.0
63487.85438923871,169696.0
63487.864498402814,169703.0
63487.874607566926,169680.0
63487.88471673103,169674.0
63487.894825895135,169685.0
63487.90493505925,169680.0
63487.91504422335,169697.0
63487.925153387456,169682.0
63487.93526255157,169663.0
63487.94537171567,169688.0
63487.95548087978,169690.0
63487.96559004389,169687.0
63487.97569920799,169717.0
63487.9858083721,169664.0
63487.9959175362,169703.0
63488.006026700314,169710.0
63488.01613586442,169701.0
63488.02624502852,169709.0
63488.036354192634,169702.0
63488.04646335674,169710.0
63488.05657252084,169726.0
63488.066681684955,169685.0
63488.07679084906,169681.0
63488.086900013164,169661.0
63488.097009177276,169714.0
63488.10711834138,169722.0
63488.117227505485,169709.0
63488.1273366696,169701.0
63488.1374458337,169726.0
63488.147554997806,169725.0
63488.15766416192,169718.0
63488.16777332602,169690.0
63488.17788249013,169699.0
63488.18799165424,169747.0
63488.19810081834,169734.0
63488.20820998245,169687.0
63488.21831914656,169742.0
63488.228428310664,169749.0
63488.23853747477,169722.0
63488.24864663888,169729.0
63488.258755802985,169704.0
63488.26886496709,169702.0
63488.2789741312,169751.0
63488.289083295305,169727.0
63488.29919245941,169700.0
63488.30930162352,169721.0
63488.319410787626,169760.0
63488.32951995173,169729.0
63488.339629115835,169725.0
63488.34973827995,169721.0
63488.35984744405,169726.0
63488.369956608156,169726.0
63488.38006577227,169743.0
63488.39017493637,169710.0
63488.40028410048,169742.0
63488.41039326459,169723.0
63488.42050242869,169677.0
63488.4306115928,169687.0
63488.44072075691,169691.0
63488.450829921014,169697.0
63488.46093908512,169701.0
63488.47104824923,169659.0
63488.481157413335,169647.0
63488.49126657744,169665.0
63488.50137574155,169661.0
63488.511484905655,169633.0
63488.52159406976,169670.0
63488.53170323387,169667.0
63488.541812397976,169654.0
63488.55192156208,169672.0
63488.56203072619,169641.0
63488.5721398903,169674.0
63488.5822490544,169682.0
63488.59235821851,169675.0
63488.60246738262,169639.0
63488.61257654672,169632.0
63488.62268571083,169637.0
63488.63279487494,169671.0
63488.64290403904,169685.0
63488.65301320315,169657.0
63488.66312236726,169675.0
63488.673231531364,169708.0
63488.68334069547,169674.0
63488.69344985958,169658.0
63488.703559023685,169666.0
63488.71366818779,169665.0
63488.7237773519,169693.0
63488.733886516005,169656.0
63488.74399568011,169654.0
63488.75410484422,169660.0
63488.764214008326,169701.0
63488.77432317243,169683.0
63488.78443233654,169682.0
63488.79454150065,169688.0
63488.80465066475,169623.0
63488.81475982886,169694.0
63488.82486899297,169695.0
63488.83497815707,169663.0
63488.845087321184,169678.0
63488.85519648529,169700.0
63488.86530564939,169690.0
63488.875414813505,169651.0
63488.88552397761,169683.0
63488.895633141714,169691.0
63488.905742305826,169693.0
63488.91585146993,169661.0
63488.925960634035,169648.0
63488.93606979815,169691.0
63488.94617896225,169692.0
63488.956288126356,169655.0
63488.96639729046,169699.0
63488.97650645457,169693.0
63488.986615618676,169702.0
63488.99672478278,169706.0
63489.00683394689,169680.0
63489.016943111,169681.0
63489.0270522751,169690.0
63489.03716143921,169682.0
63489.04727060332,169683.0
63489.05737976742,169669.0
63489.067488931534,169709.0
63489.07759809564,169703.0
63489.08770725974,169719.0
63489.097816423855,169706.0
63489.10792558796,169658.0
63489.118034752064,169712.0
63489.128143916176,169693.0
63489.13825308028,169706.0
63489.148362244385,169702.0
63489.1584714085,169675.0
63489.1685805726,169677.0
63489.178689736706,169694.0
63489.18879890082,169722.0
63489.19890806492,169726.0
63489.209017229026,169721.0
63489.21912639314,169713.0
63489.22923555724,169699.0
63489.23934472135,169699.0
63489.24945388545,169660.0
63489.25956304956,169707.0
63489.26967221367,169680.0
63489.27978137777,169629.0
63489.289890541884,169646.0
63489.29999970599,169667.0
63489.31010887009,169619.0
63489.320218034205,169637.0
63489.33032719831,169669.0
63489.340436362414,169647.0
63489.350545526526,169619.0
63489.36065469063,169648.0
63489.370763854735,169612.0
63489.38087301885,169617.0
63489.39098218295,169672.0
63489.401091347056,169647.0
63489.41120051117,169597.0
63489.42130967527,169625.0
63489.43141883938,169638.0
63489.44152800349,169643.0
63489.45163716759,169634.0
63489.4617463317,169638.0
63489.47185549581,169639.0
63489.48196465991,169646.0
63489.49207382402,169637.0
63489.50218298813,169632.0
63489.512292152234,169676.0
63489.52240131634,169649.0
63489.53251048045,169645.0
63489.542619644555,169626.0
63489.55272880866,169636.0
63489.56283797277,169678.0
63489.572947136876,169647.0
63489.58305630098,169651.0
63489.593165465085,169632.0
63489.6032746292,169652.0
63489.6133837933,169645.0
63489.623492957406,169671.0
63489.63360212152,169614.0
63489.64371128562,169651.0
63489.65382044973,169654.0
63489.66392961384,169638.0
63489.67403877794,169593.0
63489.68414794205,169598.0
63489.69425710616,169635.0
63489.70436627026,169643.0
63489.71447543437,169655.0
63489.72458459848,169626.0
63489.734693762584,169658.0
63489.74480292669,169679.0
63489.7549120908,169674.0
63489.765021254905,169647.0
63489.77513041901,169665.0
63489.78523958312,169638.0
63489.795348747226,169651.0
63489.80545791133,169658.0
63489.81556707544,169640.0
63489.82567623955,169635.0
63489.83578540365,169684.0
63489.84589456776,169668.0
63489.85600373187,169667.0
63489.86611289597,169670.0
63489.87622206008,169650.0
63489.88633122419,169691.0
63489.89644038829,169650.0
63489.9065495524,169672.0
63489.91665871651,169662.0
63489.92676788061,169699.0
63489.93687704472,169652.0
63489.94698620883,169670.0
63489.957095372934,169666.0
63489.96720453704,169661.0
63489.97731370115,169708.0
63489.987422865255,169672.0
63489.99753202936,169654.0
63490.00764119347,169682.0
63490.017750357576,169672.0
63490.02785952168,169678.0
63490.03796868579,169685.0
63490.0480778499,169716.0
63490.058187014,169668.0
63490.06829617811,169686.0
63490.07840534222,169686.0
63490.08851450632,169680.0
63490.098623670434,169697.0
63490.10873283454,169680.0
63490.11884199864,169694.0
63490.128951162755,169642.0
63490.13906032686,169684.0
63490.149169490964,169660.0
63490.159278655075,169635.0
63490.16938781918,169632.0
63490.179496983284,169643.0
63490.189606147396,169634.0
63490.1997153115,169613.0
63490.209824475605,169623.0
63490.21993363971,169594.0
63490.23004280382,169637.0
63490.240151967926,169621.0
63490.25026113203,169601.0
63490.26037029614,169597.0
63490.27047946025,169639.0
63490.28058862435,169622.0
63490.29069778846,169605.0
63490.30080695257,169637.0
63490.31091611667,169576.0
63490.321025280784,169623.0
63490.33113444489,169617.0
63490.34124360899,169609.0
63490.351352773105,169609.0
63490.36146193721,169603.0
63490.371571101314,169586.0
63490.381680265426,169645.0
63490.39178942953,169603.0
63490.401898593635,169619.0
63490.412007757746,169600.0
63490.42211692185,169622.0
63490.432226085955,169606.0
63490.44233525007,169629.0
63490.45244441417,169597.0
63490.462553578276,169597.0
63490.47266274239,169610.0
63490.48277190649,169606.0
63490.4928810706,169612.0
63490.5029902347,169623.0
63490.51309939881,169634.0
63490.52320856292,169636.0
63490.53331772702,169628.0
63490.543426891134,169598.0
63490.55353605524,169611.0
63490.56364521934,169634.0
63490.573754383455,169636.0
63490.58386354756,169623.0
63490.593972711664,169621.0
63490.604081875776,169648.0
63490.61419103988,169640.0
63490.624300203985,169619.0
63490.6344093681,169627.0
63490.6445185322,169642.0
63490.654627696305,169656.0
63490.66473686042,169631.0
63490.67484602452,169673.0
63490.684955188626,169666.0
63490.69506435274,169657.0
63490.70517351684,169670.0
63490.71528268095,169650.0
63490.72539184506,169665.0
63490.73550100916,169660.0
63490.74561017327,169650.0
63490.75571933738,169669.0
63490.765828501484,169644.0
63490.77593766559,169664.0
63490.7860468297,169648.0
63490.796155993805,169660.0
63490.80626515791,169654.0
63490.81637432202,169675.0
63490.826483486126,169671.0
63490.83659265023,169650.0
63490.846701814335,169650.0
63490.85681097845,169676.0
63490.86692014255,169699.0
63490.877029306655,169620.0
63490.88713847077,169687.0
63490.89724763487,169667.0
63490.907356798976,169654.0
63490.91746596309,169703.0
63490.92757512719,169648.0
63490.9376842913,169692.0
63490.94779345541,169667.0
63490.95790261951,169660.0
63490.96801178362,169679.0
63490.97812094773,169687.0
63490.988230111834,169680.0
63490.99833927594,169682.0
63491.00844844005,169705.0
63491.018557604155,169626.0
63491.02866676826,169653.0
63491.03877593237,169654.0
63491.048885096476,169674.0
63491.05899426058,169670.0
63491.06910342469,169663.0
63491.0792125888,169655.0
63491.0893217529,169634.0
63491.09943091701,169657.0
63491.10954008112,169626.0
63491.11964924522,169600.0
63491.129758409326,169644.0
63491.13986757344,169649.0
63491.14997673754,169610.0
63491.16008590165,169573.0
63491.17019506576,169616.0
63491.18030422986,169592.0
63491.19041339397,169614.0
63491.20052255808,169613.0
63491.210631722184,169619.0
63491.22074088629,169585.0
63491.2308500504,169620.0
63491.240959214505,169597.0
63491.25106837861,169621.0
63491.26117754272,169629.0
63491.271286706826,169627.0
63491.28139587093,169607.0
63491.29150503504,169588.0
63491.30161419915,169634.0
63491.31172336325,169620.0
63491.32183252736,169628.0
63491.33194169147,169603.0
63491.34205085557,169611.0
63491.352160019684,169629.0
63491.36226918379,169645.0
63491.37237834789,169622.0
63491.382487512004,169603.0
63491.39259667611,169651.0
63491.40270584021,169632.0
63491.412815004325,169610.0
63491.42292416843,169607.0
63491.433033332534,169627.0
63491.443142496646,169630.0
63491.45325166075,169638.0
63491.463360824855,169609.0
63491.47346998896,169611.0
63491.48357915307,169640.0
63491.493688317176,169635.0
63491.50379748128,169657.0
63491.51390664539,169615.0
63491.5240158095,169646.0
63491.5341249736,169668.0
63491.54423413771,169666.0
63491.55434330182,169595.0
63491.56445246592,169644.0
63491.574561630034,169665.0
63491.58467079414,169646.0
63491.59477995824,169626.0
63491.604889122355,169662.0
63491.61499828646,169653.0
63491.62510745056,169687.0
63491.635216614675,169658.0
63491.64532577878,169670.0
63491.655434942884,169663.0
63491.665544106996,169677.0
63491.6756532711,169641.0
63491.685762435205,169656.0
63491.69587159932,169646.0
63491.70598076342,169668.0
63491.716089927526,169695.0
63491.72619909164,169678.0
63491.73630825574,169651.0
63491.74641741985,169676.0
63491.75652658395,169705.0
63491.76663574806,169650.0
63491.77674491217,169679.0
63491.78685407627,169669.0
63491.796963240384,169640.0
63491.80707240449,169674.0
63491.81718156859,169659.0
63491.827290732705,169646.0
63491.83739989681,169688.0
63491.84750906091,169697.0
63491.857618225025,169698.0
63491.86772738913,169682.0
63491.877836553234,169714.0
63491.887945717346,169704.0
63491.89805488145,169697.0
63491.908164045555,169671.0
63491.91827320967,169660.0
63491.92838237377,169712.0
63491.938491537876,169697.0
63491.94860070199,169696.0
63491.95870986609,169674.0
63491.9688190302,169708.0
63491.97892819431,169672.0
63491.98903735841,169672.0
63491.99914652252,169678.0
63492.00925568663,169648.0
63492.019364850734,169654.0
63492.02947401484,169669.0
63492.03958317895,169634.0
63492.049692343055,169625.0
63492.05980150716,169634.0
63492.06991067127,169651.0
63492.080019835375,169646.0
63492.09012899948,169636.0
63492.100238163584,169626.0
63492.110347327696,169624.0
63492.1204564918,169665.0
63492.130565655905,169625.0
63492.14067482002,169645.0
63492.15078398412,169632.0
63492.160893148226,169673.0
63492.17100231234,169633.0
63492.18111147644,169651.0
63492.19122064055,169637.0
63492.20132980466,169665.0
63492.21143896876,169615.0
63492.22154813287,169586.0
63492.23165729698,169632.0
63492.241766461084,169617.0
63492.25187562519,169652.0
63492.2619847893,169610.0
63492.272093953405,169638.0
63492.28220311751,169637.0
63492.29231228162,169655.0
63492.302421445725,169625.0
63492.31253060983,169642.0
63492.32263977394,169622.0
63492.332748938046,169680.0
63492.34285810215,169623.0
63492.35296726626,169611.0
63492.36307643037,169639.0
63492.37318559447,169643.0
63492.383294758576,169672.0
63492.39340392269,169647.0
63492.40351308679,169665.0
63492.4136222509,169678.0
63492.42373141501,169689.0
63492.43384057911,169653.0
63492.44394974322,169636.0
63492.45405890733,169632.0
63492.464168071434,169674.0
63492.47427723554,169671.0
63492.48438639965,169649.0
63492.494495563755,169656.0
63492.50460472786,169664.0
63492.51471389197,169671.0
63492.524823056076,169656.0
63492.53493222018,169649.0
63492.54504138429,169655.0
63492.555150548396,169665.0
63492.5652597125,169670.0
63492.57536887661,169697.0
63492.58547804072,169661.0
63492.59558720482,169671.0
63492.60569636893,169666.0
63492.61580553304,169667.0
63492.62591469714,169677.0
63492.636023861254,169647.0
63492.64613302536,169676.0
63492.65624218946,169680.0
63492.666351353575,169662.0
63492.67646051768,169670.0
63492.686569681784,169692.0
63492.696678845896,169718.0
63492.70678801,169672.0
63492.716897174105,169679.0
63492.72700633821,169693.0
63492.73711550232,169698.0
63492.747224666426,169685.0
63492.75733383053,169664.0
63492.76744299464,169680.0
63492.77755215875,169673.0
63492.78766132285,169706.0
63492.79777048696,169665.0
63492.80787965107,169680.0
63492.81798881517,169693.0
63492.82809797928,169657.0
63492.83820714339,169686.0
63492.84831630749,169713.0
63492.858425471604,169718.0
63492.86853463571,169719.0
63492.87864379981,169683.0
63492.888752963925,169670.0
63492.89886212803,169657.0
63492.908971292134,169695.0
63492.919080456246,169717.0
63492.92918962035,169671.0
63492.939298784455,169669.0
63492.94940794857,169681.0
63492.95951711267,169663.0
63492.969626276776,169642.0
63492.97973544089,169647.0
63492.98984460499,169619.0
63492.9999537691,169652.0
63493.0100629332,169611.0
63493.02017209731,169617.0
63493.03028126142,169624.0
63493.04039042552,169645.0
63493.05049958963,169613.0
63493.06060875374,169636.0
63493.07071791784,169610.0
63493.080827081954,169613.0
63493.09093624606,169671.0
63493.10104541016,169654.0
63493.111154574275,169622.0
63493.12126373838,169613.0
63493.131372902484,169610.0
63493.141482066596,169638.0
63493.1515912307,169608.0
63493.161700394805,169638.0
63493.17180955892,169624.0
63493.18191872302,169635.0
63493.192027887126,169659.0
63493.20213705124,169631.0
63493.21224621534,169641.0
63493.22235537945,169650.0
63493.23246454356,169613.0
63493.24257370766,169626.0
63493.25268287177,169652.0
63493.26279203588,169645.0
63493.27290119998,169658.0
63493.28301036409,169677.0
63493.2931195282,169625.0
63493.303228692304,169635.0
63493.31333785641,169623.0
63493.32344702052,169662.0
63493.333556184625,169646.0
63493.34366534873,169655.0
63493.353774512834,169650.0
63493.363883676946,169625.0
63493.37399284105,169621.0
63493.384102005155,169656.0
63493.39421116927,169655.0
63493.40432033337,169658.0
63493.414429497476,169684.0
63493.42453866159,169632.0
63493.43464782569,169660.0
63493.4447569898,169678.0
63493.45486615391,169667.0
63493.46497531801,169686.0
63493.47508448212,169665.0
63493.48519364623,169668.0
63493.495302810334,169681.0
63493.50541197444,169638.0
63493.51552113855,169676.0
63493.525630302654,169678.0
63493.53573946676,169699.0
63493.54584863087,169651.0
63493.555957794975,169643.0
63493.56606695908,169644.0
63493.57617612319,169682.0
63493.586285287296,169712.0
63493.5963944514,169671.0
63493.60650361551,169712.0
63493.61661277962,169658.0
63493.62672194372,169653.0
63493.636831107826,169676.0
63493.64694027194,169644.0
63493.65704943604,169647.0
63493.66715860015,169653.0
63493.67726776426,169679.0
63493.68737692836,169643.0
63493.69748609247,169647.0
63493.70759525658,169666.0
63493.717704420684,169700.0
63493.72781358479,169676.0
63493.7379227489,169689.0
63493.748031913005,169712.0
63493.75814107711,169669.0
63493.76825024122,169694.0
63493.778359405325,169663.0
63493.78846856943,169675.0
63493.79857773354,169714.0
63493.808686897646,169697.0
63493.81879606175,169707.0
63493.82890522586,169659.0
63493.83901438997,169667.0
63493.84912355407,169699.0
63493.85923271818,169672.0
63493.86934188229,169660.0
63493.87945104639,169656.0
63493.889560210504,169688.0
63493.89966937461,169647.0
63493.90977853871,169680.0
63493.919887702825,169678.0
63493.92999686693,169651.0
63493.940106031034,169663.0
63493.95021519514,169610.0
63493.96032435925,169607.0
63493.970433523355,169628.0
63493.98054268746,169645.0
63493.99065185157,169606.0
63494.000761015675,169656.0
63494.01087017978,169631.0
63494.02097934389,169611.0
63494.031088507996,169631.0
63494.0411976721,169652.0
63494.05130683621,169633.0
63494.06141600032,169613.0
63494.07152516442,169612.0
63494.08163432853,169590.0
63494.09174349264,169571.0
63494.10185265674,169636.0
63494.111961820854,169603.0
63494.12207098496,169622.0
63494.13218014906,169636.0
63494.142289313175,169635.0
63494.15239847728,169615.0
63494.162507641384,169638.0
63494.172616805496,169620.0
63494.1827259696,169643.0
63494.192835133705,169639.0
63494.20294429782,169638.0
63494.21305346192,169670.0
63494.223162626025,169612.0
63494.23327179014,169600.0
63494.24338095424,169609.0
63494.253490118346,169603.0
63494.26359928245,169653.0
63494.27370844656,169657.0
63494.28381761067,169603.0
63494.29392677477,169652.0
63494.30403593888,169643.0
63494.31414510299,169647.0
63494.32425426709,169621.0
63494.334363431204,169622.0
63494.34447259531,169644.0
63494.35458175941,169670.0
63494.364690923525,169645.0
63494.37480008763,169612.0
63494.384909251734,169649.0
63494.395018415846,169618.0
63494.40512757995,169681.0
63494.415236744055,169628.0
63494.42534590817,169657.0
63494.43545507227,169628.0
63494.445564236376,169679.0
63494.45567340049,169674.0
63494.46578256459,169654.0
63494.475891728696,169653.0
63494.48600089281,169615.0
63494.49611005691,169633.0
63494.50621922102,169639.0
63494.51632838513,169662.0
63494.52643754923,169626.0
63494.53654671334,169690.0
63494.54665587745,169641.0
63494.556765041554,169666.0
63494.56687420566,169669.0
63494.57698336976,169673.0
63494.587092533875,169656.0
63494.59720169798,169664.0
63494.607310862084,169674.0
63494.617420026196,169656.0
63494.6275291903,169611.0
63494.637638354405,169663.0
63494.64774751852,169658.0
63494.65785668262,169686.0
63494.667965846726,169656.0
63494.67807501084,169670.0
63494.68818417494,169680.0
63494.698293339046,169707.0
63494.70840250316,169696.0
63494.71851166726,169685.0
63494.72862083137,169684.0
63494.73872999548,169687.0
63494.74883915958,169701.0
63494.75894832369,169658.0
63494.7690574878,169670.0
63494.779166651904,169669.0
63494.78927581601,169683.0
63494.79938498012,169700.0
63494.809494144225,169711.0
63494.81960330833,169667.0
63494.82971247244,169709.0
63494.839821636546,169699.0
63494.84993080065,169662.0
63494.86003996476,169651.0
63494.87014912887,169662.0
63494.88025829297,169650.0
63494.890367457076,169636.0
63494.90047662119,169609.0
63494.91058578529,169633.0
63494.9206949494,169642.0
63494.93080411351,169635.0
63494.94091327761,169626.0
63494.95102244172,169624.0
63494.96113160583,169627.0
63494.97124076993,169646.0
63494.98134993404,169620.0
63494.99145909815,169626.0
63495.001568262254,169633.0
63495.01167742636,169628.0
63495.02178659047,169663.0
63495.031895754575,169637.0
63495.04200491868,169639.0
63495.05211408279,169641.0
63495.062223246896,169654.0
63495.072332411,169628.0
63495.08244157511,169648.0
63495.09255073922,169644.0
63495.10265990332,169646.0
63495.11276906743,169660.0
63495.12287823154,169620.0
63495.13298739564,169645.0
63495.143096559754,169676.0
63495.15320572386,169649.0
63495.16331488796,169607.0
63495.173424052075,169641.0
63495.18353321618,169639.0
63495.19364238028,169668.0
63495.20375154439,169624.0
63495.2138607085,169636.0
63495.223969872604,169620.0
63495.23407903671,169672.0
63495.24418820082,169659.0
63495.254297364925,169626.0
63495.26440652903,169651.0
63495.27451569314,169645.0
63495.284624857246,169673.0
63495.29473402135,169608.0
63495.30484318546,169640.0
63495.31495234957,169622.0
63495.32506151367,169696.0
63495.33517067778,169664.0
63495.34527984189,169675.0
63495.35538900599,169644.0
63495.365498170104,169674.0
63495.37560733421,169676.0
63495.38571649831,169675.0
63495.395825662425,169689.0
63495.40593482653,169663.0
63495.41604399063,169692.0
63495.426153154745,169635.0
63495.43626231885,169650.0
63495.446371482954,169666.0
63495.456480647066,169694.0
63495.46658981117,169665.0
63495.476698975275,169652.0
63495.48680813939,169642.0
63495.49691730349,169698.0
63495.507026467596,169671.0
63495.5171356317,169709.0
63495.52724479581,169648.0
63495.53735395992,169683.0
63495.54746312402,169693.0
63495.55757228813,169687.0
63495.56768145224,169691.0
63495.57779061634,169705.0
63495.587899780454,169679.0
63495.59800894456,169698.0
63495.60811810866,169690.0
63495.618227272775,169679.0
63495.62833643688,169683.0
63495.638445600984,169686.0
63495.648554765095,169670.0
63495.6586639292,169670.0
63495.668773093304,169702.0
63495.678882257416,169712.0
63495.68899142152,169708.0
63495.699100585625,169674.0
63495.70920974974,169699.0
63495.71931891384,169693.0
63495.729428077946,169698.0
63495.73953724206,169698.0
63495.74964640616,169676.0
63495.75975557027,169711.0
63495.76986473438,169709.0
63495.77997389848,169688.0
63495.79008306259,169688.0
63495.8001922267,169704.0
63495.810301390804,169717.0
63495.82041055491,169715.0
63495.83051971901,169621.0
63495.840628883125,169663.0
63495.85073804723,169645.0
63495.860847211334,169672.0
63495.870956375446,169651.0
63495.88106553955,169668.0
63495.891174703655,169615.0
63495.901283867766,169670.0
63495.91139303187,169635.0
63495.921502195975,169662.0
63495.93161136009,169620.0
63495.94172052419,169630.0
63495.951829688296,169671.0
63495.96193885241,169643.0
63495.97204801651,169641.0
63495.98215718062,169631.0
63495.99226634473,169673.0
63496.00237550883,169666.0
63496.01248467294,169665.0
63496.02259383705,169640.0
63496.032703001154,169642.0
63496.04281216526,169687.0
63496.05292132937,169672.0
63496.063030493475,169651.0
63496.07313965758,169649.0
63496.08324882169,169633.0
63496.093357985796,169638.0
63496.1034671499,169634.0
63496.11357631401,169660.0
63496.12368547812,169653.0
63496.13379464222,169673.0
63496.143903806325,169712.0
63496.15401297044,169641.0
63496.16412213454,169686.0
63496.174231298646,169667.0
63496.18434046276,169689.0
63496.19444962686,169645.0
63496.20455879097,169708.0
63496.21466795508,169668.0
63496.22477711918,169660.0
63496.23488628329,169656.0
63496.2449954474,169660.0
63496.255104611504,169670.0
63496.26521377561,169669.0
63496.27532293972,169664.0
63496.285432103825,169663.0
63496.29554126793,169695.0
63496.30565043204,169717.0
63496.315759596146,169672.0
63496.32586876025,169639.0
63496.33597792436,169693.0
63496.34608708847,169675.0
63496.35619625257,169693.0
63496.36630541668,169680.0
63496.37641458079,169699.0
63496.38652374489,169696.0
63496.396632909,169721.0
63496.40674207311,169652.0
63496.41685123721,169693.0
63496.426960401324,169702.0
63496.43706956543,169719.0
63496.44717872953,169725.0
63496.45728789364,169710.0
63496.46739705775,169691.0
63496.477506221854,169682.0
63496.48761538596,169738.0
63496.49772455007,169720.0
63496.507833714175,169724.0
63496.51794287828,169745.0
63496.52805204239,169733.0
63496.538161206496,169743.0
63496.5482703706,169714.0
63496.55837953471,169691.0
63496.56848869882,169730.0
63496.57859786292,169733.0
63496.58870702703,169745.0
63496.59881619114,169699.0
63496.60892535524,169740.0
63496.61903451935,169738.0
63496.62914368346,169708.0
63496.63925284756,169721.0
63496.649362011674,169713.0
63496.65947117578,169722.0
63496.66958033988,169701.0
63496.679689503995,169677.0
63496.6897986681,169667.0
63496.699907832204,169695.0
63496.710016996316,169681.0
63496.72012616042,169659.0
63496.730235324525,169662.0
63496.74034448864,169684.0
63496.75045365274,169668.0
63496.760562816846,169690.0
63496.77067198095,169650.0
63496.78078114506,169669.0
63496.79089030917,169675.0
63496.80099947327,169641.0
63496.81110863738,169641.0
63496.82121780149,169691.0
63496.83132696559,169674.0
63496.841436129704,169697.0
63496.85154529381,169651.0
63496.86165445791,169660.0
63496.871763622024,169681.0
63496.88187278613,169683.0
63496.89198195023,169685.0
63496.902091114345,169675.0
63496.91220027845,169687.0
63496.922309442554,169657.0
63496.932418606666,169710.0
63496.94252777077,169672.0
63496.952636934875,169696.0
63496.96274609899,169696.0
63496.97285526309,169711.0
63496.982964427196,169723.0
63496.99307359131,169688.0
63497.00318275541,169706.0
63497.01329191952,169716.0
63497.02340108363,169650.0
63497.03351024773,169703.0
63497.04361941184,169671.0
63497.05372857595,169704.0
63497.063837740054,169700.0
63497.07394690416,169732.0
63497.08405606826,169698.0
63497.094165232375,169695.0
63497.10427439648,169674.0
63497.11438356058,169686.0
63497.124492724695,169718.0
63497.1346018888,169742.0
63497.144711052904,169706.0
63497.154820217016,169724.0
63497.16492938112,169715.0
63497.175038545225,169692.0
63497.18514770934,169689.0
63497.19525687344,169671.0
63497.205366037546,169731.0
63497.21547520166,169678.0
63497.22558436576,169689.0
63497.23569352987,169732.0
63497.24580269398,169707.0
63497.25591185808,169708.0
63497.26602102219,169749.0
63497.2761301863,169744.0
63497.286239350404,169720.0
63497.29634851451,169714.0
63497.30645767862,169736.0
63497.316566842725,169757.0
63497.32667600683,169723.0
63497.33678517094,169692.0
63497.346894335045,169705.0
63497.35700349915,169716.0
63497.36711266326,169736.0
63497.377221827366,169759.0
63497.38733099147,169733.0
63497.397440155575,169759.0
63497.40754931969,169731.0
63497.41765848379,169716.0
63497.427767647896,169746.0
63497.43787681201,169767.0
63497.44798597611,169740.0
63497.45809514022,169717.0
63497.46820430433,169712.0
63497.47831346843,169730.0
63497.48842263254,169701.0
63497.49853179665,169743.0
63497.508640960754,169730.0
63497.51875012486,169745.0
63497.52885928897,169765.0
63497.538968453075,169760.0
63497.54907761718,169725.0
63497.55918678129,169746.0
63497.569295945395,169734.0
63497.5794051095,169750.0
63497.58951427361,169750.0
63497.599623437716,169713.0
63497.60973260182,169717.0
63497.61984176593,169714.0
63497.62995093004,169727.0
63497.64006009414,169691.0
63497.65016925825,169668.0
63497.66027842236,169715.0
63497.67038758646,169718.0
63497.680496750574,169668.0
63497.69060591468,169693.0
63497.70071507878,169712.0
63497.71082424289,169691.0
63497.720933407,169688.0
63497.731042571104,169690.0
63497.74115173521,169727.0
63497.75126089932,169730.0
63497.761370063425,169707.0
63497.77147922753,169743.0
63497.78158839164,169713.0
63497.791697555745,169735.0
63497.80180671985,169719.0
63497.81191588396,169692.0
63497.822025048066,169721.0
63497.83213421217,169705.0
63497.84224337628,169753.0
63497.85235254039,169739.0
63497.86246170449,169730.0
63497.8725708686,169743.0
63497.88268003271,169709.0
63497.89278919681,169732.0
63497.902898360924,169689.0
63497.91300752503,169726.0
63497.92311668913,169713.0
63497.933225853245,169736.0
63497.94333501735,169698.0
63497.953444181454,169727.0
63497.963553345566,169726.0
63497.97366250967,169745.0
63497.983771673775,169732.0
63497.99388083789,169744.0
63498.00399000199,169735.0
63498.014099166096,169715.0
63498.0242083302,169710.0
63498.03431749431,169734.0
63498.044426658416,169725.0
63498.05453582252,169716.0
63498.06464498663,169723.0
63498.07475415074,169732.0
63498.08486331484,169727.0
63498.09497247895,169713.0
63498.10508164306,169771.0
63498.11519080716,169734.0
63498.125299971274,169726.0
63498.13540913538,169746.0
63498.14551829948,169769.0
63498.155627463595,169729.0
63498.1657366277,169706.0
63498.175845791804,169722.0
63498.185954955916,169778.0
63498.19606412002,169746.0
63498.206173284125,169753.0
63498.21628244824,169713.0
63498.22639161234,169736.0
63498.236500776446,169751.0
63498.24660994056,169717.0
63498.25671910466,169715.0
63498.26682826877,169705.0
63498.27693743288,169749.0
63498.28704659698,169742.0
63498.29715576109,169729.0
63498.3072649252,169723.0
63498.3173740893,169764.0
63498.32748325341,169756.0
63498.33759241751,169756.0
63498.347701581624,169716.0
63498.35781074573,169711.0
63498.36791990983,169758.0
63498.378029073945,169788.0
63498.38813823805,169773.0
63498.398247402154,169748.0
63498.408356566266,169741.0
63498.41846573037,169776.0
63498.428574894475,169755.0
63498.43868405859,169745.0
63498.44879322269,169762.0
63498.458902386796,169764.0
63498.46901155091,169756.0
63498.47912071501,169728.0
63498.48922987912,169748.0
63498.49933904323,169723.0
63498.50944820733,169724.0
63498.51955737144,169710.0
63498.52966653555,169711.0
63498.53977569965,169717.0
63498.54988486376,169732.0
63498.55999402787,169679.0
63498.570103191974,169704.0
63498.58021235608,169709.0
63498.59032152019,169726.0
63498.600430684295,169692.0
63498.6105398484,169730.0
63498.62064901251,169703.0
63498.630758176616,169724.0
63498.64086734072,169740.0
63498.650976504825,169708.0
63498.66108566894,169727.0
63498.67119483304,169780.0
63498.681303997146,169722.0
63498.69141316126,169718.0
63498.70152232536,169728.0
63498.71163148947,169700.0
63498.72174065358,169755.0
63498.73184981768,169733.0
63498.74195898179,169730.0
63498.7520681459,169724.0
63498.76217731,169755.0
63498.77228647411,169747.0
63498.78239563822,169726.0
63498.792504802324,169713.0
63498.80261396643,169710.0
63498.81272313054,169761.0
63498.822832294645,169725.0
63498.83294145875,169693.0
63498.84305062286,169703.0
63498.853159786966,169742.0
63498.86326895107,169715.0
63498.87337811518,169735.0
63498.88348727929,169738.0
63498.89359644339,169710.0
63498.9037056075,169735.0
63498.91381477161,169769.0
63498.92392393571,169697.0
63498.934033099824,169720.0
63498.94414226393,169745.0
63498.95425142803,169736.0
63498.96436059214,169716.0
63498.97446975625,169747.0
63498.984578920354,169737.0
63498.99468808446,169750.0
63499.00479724857,169722.0
63499.014906412674,169716.0
63499.02501557678,169730.0
63499.03512474089,169713.0
63499.045233904995,169751.0
63499.0553430691,169715.0
63499.06545223321,169739.0
63499.075561397316,169715.0
63499.08567056142,169742.0
63499.09577972553,169723.0
63499.10588888964,169736.0
63499.11599805374,169755.0
63499.12610721785,169744.0
63499.13621638196,169725.0
63499.14632554606,169728.0
63499.156434710174,169749.0
63499.16654387428,169743.0
63499.17665303838,169749.0
63499.186762202495,169733.0
63499.1968713666,169743.0
63499.206980530704,169783.0
63499.217089694816,169760.0
63499.22719885892,169725.0
63499.237308023025,169742.0
63499.247417187136,169720.0
63499.25752635124,169740.0
63499.267635515345,169721.0
63499.27774467945,169728.0
63499.28785384356,169729.0
63499.297963007666,169717.0
63499.30807217177,169677.0
63499.31818133588,169696.0
63499.32829049999,169663.0
63499.33839966409,169695.0
63499.3485088282,169710.0
63499.35861799231,169678.0
63499.36872715641,169678.0
63499.378836320524,169676.0
63499.38894548463,169715.0
63499.39905464873,169698.0
63499.409163812845,169663.0
63499.41927297695,169680.0
63499.429382141054,169668.0
63499.439491305166,169699.0
63499.44960046927,169705.0
63499.459709633375,169672.0
63499.46981879749,169675.0
63499.47992796159,169691.0
63499.490037125695,169690.0
63499.50014628981,169676.0
63499.51025545391,169713.0
63499.520364618016,169684.0
63499.53047378213,169698.0
63499.54058294623,169706.0
63499.55069211034,169697.0
63499.56080127445,169719.0
63499.57091043855,169697.0
63499.58101960266,169725.0
63499.59112876676,169680.0
63499.601237930874,169721.0
63499.61134709498,169713.0
63499.62145625908,169700.0
63499.631565423195,169684.0
63499.6416745873,169687.0
63499.651783751404,169699.0
63499.661892915516,169690.0
63499.67200207962,169674.0
63499.682111243725,169690.0
63499.69222040784,169713.0
63499.70232957194,169702.0
63499.712438736045,169683.0
63499.72254790016,169690.0
63499.73265706426,169706.0
63499.742766228366,169696.0
63499.75287539248,169723.0
63499.76298455658,169684.0
63499.77309372069,169700.0
63499.7832028848,169683.0
63499.7933120489,169739.0
63499.80342121301,169727.0
63499.81353037712,169717.0
63499.823639541224,169697.0
63499.83374870533,169714.0
63499.84385786944,169730.0
63499.853967033545,169673.0
63499.86407619765,169718.0
63499.87418536176,169706.0
63499.884294525866,169728.0
63499.89440368997,169687.0
63499.904512854075,169717.0
63499.91462201819,169683.0
63499.92473118229,169735.0
63499.934840346396,169743.0
63499.94494951051,169724.0
63499.95505867461,169675.0
63499.965167838716,169697.0
63499.97527700283,169737.0
63499.98538616693,169720.0
63499.99549533104,169715.0
63500.00560449515,169705.0
63500.01571365925,169715.0
63500.02582282336,169695.0
63500.03593198747,169689.0
63500.046041151574,169683.0
63500.05615031568,169718.0
63500.06625947979,169690.0
63500.076368643895,169670.0
63500.086477808,169645.0
63500.09658697211,169674.0
63500.106696136216,169670.0
63500.11680530032,169635.0
63500.12691446443,169658.0
63500.13702362854,169656.0
63500.14713279264,169655.0
63500.15724195675,169666.0
63500.16735112086,169685.0
63500.17746028496,169630.0
63500.18756944907,169638.0
63500.19767861318,169684.0
63500.20778777728,169635.0
63500.21789694139,169629.0
63500.2280061055,169628.0
63500.2381152696,169671.0
63500.24822443371,169672.0
63500.25833359782,169693.0
63500.268442761924,169673.0
63500.27855192603,169664.0
63500.28866109014,169654.0
63500.298770254245,169642.0
63500.30887941835,169621.0
63500.31898858246,169670.0
63500.329097746566,169710.0
63500.33920691067,169647.0
63500.34931607478,169678.0
63500.35942523889,169670.0
63500.36953440299,169653.0
63500.3796435671,169688.0
63500.38975273121,169656.0
63500.39986189531,169679.0
63500.409971059424,169641.0
63500.42008022353,169683.0
63500.43018938763,169677.0
63500.440298551744,169664.0
63500.45040771585,169663.0
63500.46051687995,169653.0
63500.470626044065,169675.0
63500.48073520817,169665.0
63500.490844372274,169632.0
63500.500953536386,169642.0
63500.51106270049,169639.0
63500.521171864595,169663.0
63500.5312810287,169681.0
63500.54139019281,169663.0
63500.551499356916,169642.0
63500.56160852102,169666.0
63500.57171768513,169656.0
63500.58182684924,169700.0
63500.59193601334,169652.0
63500.60204517745,169645.0
63500.61215434156,169678.0
63500.62226350566,169665.0
63500.632372669774,169643.0
63500.64248183388,169665.0
63500.65259099798,169660.0
63500.662700162095,169659.0
63500.6728093262,169652.0
63500.6829184903,169679.0
63500.693027654415,169666.0
63500.70313681852,169655.0
63500.713245982624,169674.0
63500.723355146736,169655.0
63500.73346431084,169671.0
63500.743573474945,169686.0
63500.75368263906,169688.0
63500.76379180316,169645.0
63500.773900967266,169671.0
63500.78401013138,169635.0
63500.79411929548,169678.0
63500.80422845959,169664.0
63500.8143376237,169667.0
63500.8244467878,169643.0
63500.83455595191,169653.0
63500.84466511601,169657.0
63500.854774280124,169643.0
63500.86488344423,169601.0
63500.87499260833,169604.0
63500.885101772445,169619.0
63500.89521093655,169624.0
63500.90532010065,169618.0
63500.915429264765,169628.0
63500.92553842887,169618.0
63500.935647592974,169612.0
63500.945756757086,169598.0
63500.95586592119,169583.0
63500.965975085295,169597.0
63500.97608424941,169617.0
63500.98619341351,169609.0
63500.996302577616,169572.0
63501.00641174173,169620.0
63501.01652090583,169595.0
63501.02663006994,169589.0
63501.03673923405,169615.0
63501.04684839815,169620.0
63501.05695756226,169633.0
63501.06706672637,169603.0
63501.077175890474,169593.0
63501.08728505458,169600.0
63501.09739421869,169625.0
63501.107503382795,169608.0
63501.1176125469,169619.0
63501.12772171101,169616.0
63501.137830875115,169626.0
63501.14794003922,169613.0
63501.158049203324,169612.0
63501.168158367436,169576.0
63501.17826753154,169631.0
63501.188376695645,169610.0
63501.19848585976,169602.0
63501.20859502386,169590.0
63501.218704187966,169585.0
63501.22881335208,169594.0
63501.23892251618,169568.0
63501.24903168029,169614.0
63501.2591408444,169588.0
63501.2692500085,169602.0
63501.27935917261,169625.0
63501.28946833672,169599.0
63501.299577500824,169598.0
63501.30968666493,169619.0
63501.31979582904,169586.0
63501.329904993145,169631.0
63501.34001415725,169588.0
63501.35012332136,169599.0
63501.360232485466,169586.0
63501.37034164957,169624.0
63501.38045081368,169596.0
63501.390559977786,169614.0
63501.40066914189,169618.0
63501.410778306,169614.0
63501.42088747011,169582.0
63501.43099663421,169578.0
63501.44110579832,169606.0
63501.45121496243,169610.0
63501.46132412653,169602.0
63501.47143329064,169591.0
63501.48154245475,169594.0
63501.49165161885,169615.0
63501.50176078296,169620.0
63501.51186994707,169597.0
63501.521979111174,169601.0
63501.53208827528,169609.0
63501.54219743939,169608.0
63501.552306603495,169589.0
63501.5624157676,169601.0
63501.57252493171,169595.0
63501.582634095816,169606.0
63501.59274325992,169623.0
63501.60285242403,169629.0
63501.61296158814,169618.0
63501.62307075224,169625.0
63501.63317991635,169614.0
63501.64328908046,169601.0
63501.65339824456,169565.0
63501.66350740867,169554.0
63501.67361657278,169609.0
63501.68372573688,169574.0
63501.693834900994,169575.0
63501.7039440651,169539.0
63501.7140532292,169597.0
63501.724162393315,169553.0
63501.73427155742,169546.0
63501.744380721524,169567.0
63501.75448988563,169497.0
63501.76459904974,169563.0
63501.774708213845,169539.0
63501.78481737795,169552.0
63501.79492654206,169561.0
63501.805035706166,169579.0
63501.81514487027,169560.0
63501.82525403438,169527.0
63501.83536319849,169547.0
63501.84547236259,169549.0
63501.8555815267,169551.0
63501.86569069081,169567.0
63501.87579985491,169522.0
63501.88590901902,169567.0
63501.89601818313,169548.0
63501.90612734723,169566.0
63501.916236511344,169560.0
63501.92634567545,169558.0
63501.93645483955,169554.0
63501.946564003665,169556.0
63501.95667316777,169501.0
63501.966782331874,169543.0
63501.976891495986,169554.0
63501.98700066009,169540.0
63501.997109824195,169550.0
63502.00721898831,169527.0
63502.01732815241,169557.0
63502.027437316516,169545.0
63502.03754648063,169559.0
63502.04765564473,169548.0
63502.05776480884,169565.0
63502.06787397295,169577.0
63502.07798313705,169579.0
63502.08809230116,169568.0
63502.09820146526,169550.0
63502.10831062937,169530.0
63502.11841979348,169573.0
63502.12852895758,169543.0
63502.138638121694,169527.0
63502.1487472858,169538.0
63502.1588564499,169571.0
63502.168965614015,169577.0
63502.17907477812,169538.0
63502.189183942224,169555.0
63502.199293106336,169548.0
63502.20940227044,169585.0
63502.219511434545,169558.0
63502.22962059866,169574.0
63502.23972976276,169572.0
63502.249838926866,169609.0
63502.25994809098,169559.0
63502.27005725508,169577.0
63502.28016641919,169527.0
63502.2902755833,169541.0
63502.3003847474,169543.0
63502.31049391151,169579.0
63502.32060307562,169554.0
63502.330712239724,169582.0
63502.34082140383,169593.0
63502.35093056794,169579.0
63502.361039732044,169584.0
63502.37114889615,169551.0
63502.38125806025,169576.0
63502.391367224365,169586.0
63502.40147638847,169574.0
63502.411585552574,169552.0
63502.421694716686,169587.0
63502.43180388079,169580.0
63502.441913044895,169548.0
63502.45202220901,169565.0
63502.46213137311,169586.0
63502.472240537216,169605.0
63502.48234970133,169593.0
63502.49245886543,169591.0
63502.50256802954,169596.0
63502.51267719365,169599.0
63502.52278635775,169571.0
63502.53289552186,169596.0
63502.54300468597,169542.0
63502.553113850074,169589.0
63502.56322301418,169545.0
63502.57333217829,169538.0
63502.583441342395,169538.0
63502.5935505065,169546.0
63502.60365967061,169539.0
63502.613768834715,169533.0
63502.62387799882,169518.0
63502.63398716293,169521.0
63502.644096327036,169541.0
63502.65420549114,169530.0
63502.66431465525,169495.0
63502.67442381936,169516.0
63502.68453298346,169518.0
63502.69464214757,169527.0
63502.70475131168,169519.0
63502.71486047578,169525.0
63502.72496963989,169532.0
63502.735078804,169501.0
63502.7451879681,169530.0
63502.75529713221,169545.0
63502.76540629632,169524.0
63502.775515460424,169543.0
63502.78562462453,169562.0
63502.79573378864,169514.0
63502.805842952745,169536.0
63502.81595211685,169519.0
63502.82606128096,169508.0
63502.836170445065,169562.0
63502.84627960917,169530.0
63502.85638877328,169523.0
63502.866497937386,169526.0
63502.87660710149,169524.0
63502.8867162656,169543.0
63502.89682542971,169543.0
63502.90693459381,169555.0
63502.91704375792,169529.0
63502.92715292203,169561.0
63502.93726208613,169553.0
63502.947371250244,169499.0
63502.95748041435,169554.0
63502.96758957845,169515.0
63502.977698742565,169547.0
63502.98780790667,169517.0
63502.997917070774,169584.0
63503.00802623488,169552.0
63503.01813539899,169558.0
63503.028244563095,169557.0
63503.0383537272,169533.0
63503.04846289131,169556.0
63503.058572055415,169561.0
63503.06868121952,169525.0
63503.07879038363,169545.0
63503.088899547736,169549.0
63503.09900871184,169553.0
63503.10911787595,169567.0
63503.11922704006,169525.0
63503.12933620416,169541.0
63503.13944536827,169554.0
63503.14955453238,169548.0
63503.15966369648,169554.0
63503.169772860594,169553.0
63503.1798820247,169577.0
63503.1899911888,169594.0
63503.200100352915,169589.0
63503.21020951702,169520.0
63503.220318681124,169571.0
63503.230427845236,169569.0
63503.24053700934,169598.0
63503.250646173445,169540.0
63503.26075533756,169568.0
63503.27086450166,169549.0
63503.280973665765,169599.0
63503.29108282988,169553.0
63503.30119199398,169575.0
63503.311301158086,169581.0
63503.3214103222,169599.0
63503.3315194863,169565.0
63503.34162865041,169541.0
63503.35173781451,169558.0
63503.36184697862,169542.0
63503.37195614273,169589.0
63503.38206530683,169574.0
63503.392174470944,169585.0
63503.40228363505,169572.0
63503.41239279915,169609.0
63503.422501963265,169566.0
63503.43261112737,169564.0
63503.442720291474,169534.0
63503.452829455586,169537.0
63503.46293861969,169556.0
63503.473047783795,169521.0
63503.48315694791,169504.0
63503.49326611201,169531.0
63503.503375276116,169536.0
63503.51348444023,169527.0
63503.52359360433,169501.0
63503.533702768436,169491.0
63503.54381193255,169490.0
63503.55392109665,169526.0
63503.56403026076,169542.0
63503.57413942487,169505.0
63503.58424858897,169538.0
63503.59435775308,169520.0
63503.60446691719,169478.0
63503.614576081294,169493.0
63503.6246852454,169522.0
63503.6347944095,169521.0
63503.644903573615,169486.0
63503.65501273772,169545.0
63503.665121901824,169515.0
63503.675231065936,169520.0
63503.68534023004,169537.0
63503.695449394145,169517.0
63503.70555855826,169520.0
63503.71566772236,169557.0
63503.725776886466,169522.0
63503.73588605058,169510.0
63503.74599521468,169518.0
63503.75610437879,169512.0
63503.7662135429,169524.0
63503.776322707,169517.0
63503.78643187111,169481.0
63503.79654103522,169548.0
63503.80665019932,169515.0
63503.81675936343,169566.0
63503.82686852754,169532.0
63503.836977691644,169504.0
63503.84708685575,169530.0
63503.85719601986,169521.0
63503.867305183965,169562.0
63503.87741434807,169523.0
63503.88752351218,169521.0
63503.897632676286,169528.0
63503.90774184039,169550.0
63503.9178510045,169526.0
63503.92796016861,169534.0
63503.93806933271,169522.0
63503.94817849682,169532.0
63503.95828766093,169571.0
63503.96839682503,169543.0
63503.97850598914,169525.0
63503.98861515325,169514.0
63503.99872431735,169521.0
63504.00883348146,169540.0
63504.01894264557,169545.0
63504.02905180967,169536.0
63504.03916097378,169524.0
63504.04927013789,169541.0
63504.059379301994,169547.0
63504.0694884661,169533.0
63504.07959763021,169523.0
63504.089706794315,169557.0
63504.09981595842,169541.0
63504.10992512253,169546.0
63504.120034286636,169555.0
63504.13014345074,169550.0
63504.14025261485,169551.0
63504.15036177896,169551.0
63504.16047094306,169521.0
63504.17058010717,169529.0
63504.18068927128,169551.0
63504.19079843538,169548.0
63504.200907599494,169572.0
63504.2110167636,169567.0
63504.2211259277,169551.0
63504.231235091815,169551.0
63504.24134425592,169555.0
63504.25145342002,169562.0
63504.26156258413,169569.0
63504.27167174824,169579.0
63504.281780912344,169593.0
63504.29189007645,169539.0
63504.30199924056,169567.0
63504.312108404665,169544.0
63504.32221756877,169559.0
63504.33232673288,169571.0
63504.342435896986,169550.0
63504.35254506109,169562.0
63504.3626542252,169565.0
63504.37276338931,169508.0
63504.38287255341,169528.0
63504.39298171752,169534.0
63504.40309088163,169515.0
63504.41320004573,169480.0
63504.423309209844,169458.0
63504.43341837395,169523.0
63504.44352753805,169494.0
63504.453636702165,169512.0
63504.46374586627,169467.0
63504.473855030374,169514.0
63504.483964194485,169503.0
63504.49407335859,169538.0
63504.504182522694,169508.0
63504.514291686806,169512.0
63504.52440085091,169484.0
63504.534510015015,169526.0
63504.54461917913,169515.0
63504.55472834323,169496.0
63504.564837507336,169466.0
63504.57494667145,169522.0
63504.58505583555,169500.0
63504.59516499966,169501.0
63504.60527416376,169491.0
63504.61538332787,169495.0
63504.62549249198,169521.0
63504.63560165608,169519.0
63504.645710820194,169512.0
63504.6558199843,169509.0
63504.6659291484,169537.0
63504.676038312515,169518.0
63504.68614747662,169484.0
63504.696256640724,169480.0
63504.706365804836,169527.0
63504.71647496894,169514.0
63504.726584133045,169528.0
63504.736693297156,169496.0
63504.74680246126,169519.0
63504.756911625365,169516.0
63504.76702078948,169499.0
63504.77712995358,169516.0
63504.787239117686,169524.0
63504.7973482818,169525.0
63504.8074574459,169547.0
63504.81756661001,169484.0
63504.82767577412,169527.0
63504.83778493822,169532.0
63504.84789410233,169526.0
63504.85800326644,169524.0
63504.868112430544,169511.0
63504.87822159465,169543.0
63504.88833075875,169545.0
63504.898439922865,169537.0
63504.90854908697,169504.0
63504.918658251074,169548.0
63504.928767415186,169532.0
63504.93887657929,169534.0
63504.948985743395,169519.0
63504.95909490751,169479.0
63504.96920407161,169547.0
63504.979313235715,169548.0
63504.98942239983,169511.0
63504.99953156393,169509.0
63505.009640728036,169557.0
63505.01974989215,169562.0
63505.02985905625,169551.0
63505.03996822036,169515.0
63505.05007738447,169538.0
63505.06018654857,169532.0
63505.07029571268,169552.0
63505.08040487679,169538.0
63505.090514040894,169520.0
63505.100623205,169525.0
63505.11073236911,169573.0
63505.120841533215,169536.0
63505.13095069732,169565.0
63505.14105986143,169579.0
63505.151169025536,169544.0
63505.16127818964,169581.0
63505.17138735375,169558.0
63505.18149651786,169537.0
63505.19160568196,169571.0
63505.20171484607,169582.0
63505.21182401018,169567.0
63505.22193317428,169505.0
63505.232042338386,169561.0
63505.2421515025,169565.0
63505.2522606666,169550.0
63505.26236983071,169555.0
63505.27247899482,169523.0
63505.28258815892,169547.0
63505.29269732303,169558.0
63505.30280648714,169536.0
63505.312915651244,169512.0
63505.32302481535,169506.0
63505.33313397946,169523.0
63505.343243143565,169514.0
63505.35335230767,169516.0
63505.36346147178,169501.0
63505.373570635886,169498.0
63505.38367979999,169504.0
63505.3937889641,169490.0
63505.40389812821,169463.0
63505.41400729231,169503.0
63505.42411645642,169501.0
63505.43422562053,169519.0
63505.44433478463,169508.0
63505.45444394874,169518.0
63505.46455311285,169515.0
63505.47466227695,169499.0
63505.484771441064,169463.0
63505.49488060517,169468.0
63505.50498976927,169491.0
63505.51509893338,169504.0
63505.52520809749,169487.0
63505.535317261594,169478.0
63505.5454264257,169516.0
63505.55553558981,169533.0
63505.565644753915,169515.0
63505.57575391802,169499.0
63505.58586308213,169511.0
63505.595972246236,169477.0
63505.60608141034,169531.0
63505.61619057445,169520.0
63505.62629973856,169465.0
63505.63640890266,169495.0
63505.64651806677,169471.0
63505.65662723088,169504.0
63505.66673639498,169489.0
63505.67684555909,169510.0
63505.6869547232,169483.0
63505.6970638873,169544.0
63505.707173051414,169523.0
63505.71728221552,169523.0
63505.72739137962,169495.0
63505.737500543735,169510.0
63505.74760970784,169511.0
63505.757718871944,169514.0
63505.767828036056,169519.0
63505.77793720016,169499.0
63505.788046364265,169551.0
63505.79815552838,169536.0
63505.80826469248,169511.0
63505.818373856586,169520.0
63505.8284830207,169534.0
63505.8385921848,169539.0
63505.84870134891,169522.0
63505.85881051301,169549.0
63505.86891967712,169536.0
63505.87902884123,169533.0
63505.88913800533,169553.0
63505.899247169444,169523.0
63505.90935633355,169532.0
63505.91946549765,169537.0
63505.929574661764,169560.0
63505.93968382587,169521.0
63505.94979298997,169572.0
63505.959902154085,169554.0
63505.97001131819,169560.0
63505.980120482294,169521.0
63505.990229646406,169529.0
63506.00033881051,169553.0
63506.010447974615,169549.0
63506.02055713873,169510.0
63506.03066630283,169514.0
63506.040775466936,169553.0
63506.05088463105,169548.0
63506.06099379515,169541.0
63506.07110295926,169521.0
63506.08121212337,169561.0
63506.09132128747,169567.0
63506.10143045158,169569.0
63506.11153961569,169535.0
63506.121648779794,169540.0
63506.1317579439,169571.0
63506.141867108,169582.0
63506.151976272115,169577.0
63506.16208543622,169530.0
63506.17219460032,169566.0
63506.182303764435,169563.0
63506.19241292854,169595.0
63506.202522092644,169548.0
63506.212631256756,169567.0
63506.22274042086,169536.0
63506.232849584965,169572.0
63506.24295874908,169506.0
63506.25306791318,169519.0
63506.263177077286,169512.0
63506.2732862414,169535.0
63506.2833954055,169515.0
63506.29350456961,169483.0
63506.30361373372,169469.0
63506.31372289782,169468.0
63506.32383206193,169533.0
63506.33394122604,169513.0
63506.344050390144,169511.0
63506.35415955425,169499.0
63506.36426871836,169486.0
63506.374377882465,169521.0
63506.38448704657,169516.0
63506.39459621068,169480.0
63506.404705374785,169540.0
63506.41481453889,169540.0
63506.424923703,169488.0
63506.435032867106,169488.0
63506.44514203121,169526.0
63506.45525119532,169496.0
63506.46536035943,169520.0
63506.47546952353,169517.0
63506.485578687636,169499.0
63506.49568785175,169533.0
63506.50579701585,169530.0
63506.51590617996,169538.0
63506.52601534407,169494.0
63506.53612450817,169526.0
63506.54623367228,169519.0
63506.55634283639,169496.0
63506.566452000494,169531.0
63506.5765611646,169512.0
63506.58667032871,169522.0
63506.596779492815,169544.0
63506.60688865692,169509.0
63506.61699782103,169551.0
63506.627106985135,169543.0
63506.63721614924,169532.0
63506.64732531335,169524.0
63506.657434477456,169522.0
63506.66754364156,169541.0
63506.67765280567,169554.0
63506.68776196978,169514.0
63506.69787113388,169499.0
63506.70798029799,169528.0
63506.7180894621,169538.0
63506.7281986262,169540.0
63506.738307790314,169521.0
63506.74841695442,169543.0
63506.75852611852,169510.0
63506.76863528263,169537.0
63506.77874444674,169515.0
63506.788853610844,169554.0
63506.79896277495,169548.0
63506.80907193906,169564.0
63506.819181103165,169559.0
63506.82929026727,169481.0
63506.83939943138,169538.0
63506.849508595486,169520.0
63506.85961775959,169543.0
63506.8697269237,169545.0
63506.879836087806,169552.0
63506.88994525191,169527.0
63506.90005441602,169590.0
63506.91016358013,169562.0
63506.92027274423,169552.0
63506.93038190834,169527.0
63506.94049107245,169555.0
63506.95060023655,169569.0
63506.960709400664,169525.0
63506.97081856477,169552.0
63506.98092772887,169554.0
63506.991036892985,169526.0
63507.00114605709,169572.0
63507.011255221194,169555.0
63507.021364385306,169561.0
63507.03147354941,169571.0
63507.041582713515,169563.0
63507.05169187763,169586.0
63507.06180104173,169575.0
63507.071910205836,169564.0
63507.08201936995,169567.0
63507.09212853405,169548.0
63507.10223769816,169553.0
63507.11234686226,169544.0
63507.12245602637,169584.0
63507.13256519048,169546.0
63507.14267435458,169586.0
63507.15278351869,169581.0
63507.1628926828,169554.0
63507.1730018469,169547.0
63507.183111011014,169496.0
63507.19322017512,169535.0
63507.20332933922,169532.0
63507.213438503335,169507.0
63507.22354766744,169490.0
63507.233656831544,169519.0
63507.243765995656,169467.0
63507.25387515976,169498.0
63507.263984323865,169478.0
63507.27409348798,169482.0
63507.28420265208,169520.0
63507.294311816186,169503.0
63507.3044209803,169476.0
63507.3145301444,169495.0
63507.32463930851,169531.0
63507.33474847262,169515.0
63507.34485763672,169546.0
63507.35496680083,169503.0
63507.36507596494,169442.0
63507.37518512904,169505.0
63507.38529429315,169506.0
63507.39540345725,169513.0
63507.405512621364,169495.0
63507.41562178547,169518.0
63507.42573094957,169548.0
63507.435840113685,169532.0
63507.44594927779,169525.0
63507.456058441894,169526.0
63507.466167606006,169525.0
63507.47627677011,169525.0
63507.486385934215,169538.0
63507.49649509833,169500.0
63507.50660426243,169515.0
63507.516713426536,169506.0
63507.52682259065,169508.0
63507.53693175475,169537.0
63507.54704091886,169514.0
63507.55715008297,169554.0
63507.56725924707,169543.0
63507.57736841118,169514.0
63507.58747757529,169540.0
63507.59758673939,169533.0
63507.6076959035,169516.0
63507.61780506761,169540.0
63507.627914231714,169560.0
63507.63802339582,169514.0
63507.64813255993,169525.0
63507.658241724035,169555.0
63507.66835088814,169546.0
63507.67846005225,169564.0
63507.688569216356,169529.0
63507.69867838046,169526.0
63507.70878754457,169539.0
63507.71889670868,169566.0
63507.72900587278,169572.0
63507.739115036886,169549.0
63507.749224201,169563.0
63507.7593333651,169537.0
63507.76944252921,169520.0
63507.77955169332,169567.0
63507.78966085742,169553.0
63507.79977002153,169559.0
63507.80987918564,169580.0
63507.819988349744,169580.0
63507.83009751385,169572.0
63507.84020667796,169535.0
63507.850315842064,169572.0
63507.86042500617,169574.0
63507.87053417028,169570.0
63507.880643334385,169552.0
63507.89075249849,169533.0
63507.9008616626,169550.0
63507.910970826706,169562.0
63507.92107999081,169558.0
63507.93118915492,169620.0
63507.94129831903,169584.0
63507.95140748313,169557.0
63507.96151664724,169574.0
63507.97162581135,169566.0
63507.98173497545,169603.0
63507.991844139564,169593.0
63508.00195330367,169588.0
63508.01206246777,169576.0
63508.02217163188,169633.0
63508.03228079599,169586.0
63508.042389960094,169590.0
63508.0524991242,169591.0
63508.06260828831,169577.0
63508.072717452415,169592.0
63508.08282661652,169578.0
63508.09293578063,169543.0
63508.103044944735,169586.0
63508.11315410884,169565.0
63508.12326327295,169552.0
63508.133372437056,169543.0
63508.14348160116,169517.0
63508.15359076527,169546.0
63508.16369992938,169537.0
63508.17380909348,169511.0
63508.18391825759,169498.0
63508.1940274217,169508.0
63508.2041365858,169545.0
63508.214245749914,169561.0
63508.22435491402,169519.0
63508.23446407812,169541.0
63508.244573242235,169550.0
63508.25468240634,169567.0
63508.264791570444,169549.0
63508.274900734556,169516.0
63508.28500989866,169548.0
63508.295119062765,169529.0
63508.305228226876,169558.0
63508.31533739098,169561.0
63508.325446555085,169565.0
63508.3355557192,169547.0
63508.3456648833,169572.0
63508.355774047406,169546.0
63508.36588321151,169542.0
63508.37599237562,169564.0
63508.38610153973,169556.0
63508.39621070383,169592.0
63508.40631986794,169583.0
63508.41642903205,169569.0
63508.42653819615,169519.0
63508.436647360264,169532.0
63508.44675652437,169553.0
63508.45686568847,169572.0
63508.466974852585,169557.0
63508.47708401669,169577.0
63508.487193180794,169547.0
63508.497302344906,169564.0
63508.50741150901,169577.0
63508.517520673115,169600.0
63508.52762983723,169556.0
63508.53773900133,169570.0
63508.547848165435,169570.0
63508.55795732955,169578.0
63508.56806649365,169586.0
63508.578175657756,169564.0
63508.58828482187,169581.0
63508.59839398597,169586.0
63508.60850315008,169597.0
63508.61861231419,169584.0
63508.62872147829,169546.0
63508.6388306424,169567.0
63508.6489398065,169588.0
63508.659048970614,169591.0
63508.66915813472,169600.0
63508.67926729882,169558.0
63508.689376462935,169601.0
63508.69948562704,169617.0
63508.709594791144,169559.0
63508.719703955256,169572.0
63508.72981311936,169563.0
63508.739922283465,169622.0
63508.75003144758,169603.0
63508.76014061168,169602.0
63508.770249775785,169573.0
63508.7803589399,169630.0
63508.790468104,169615.0
63508.800577268106,169595.0
63508.81068643222,169582.0
63508.82079559632,169587.0
63508.83090476043,169627.0
63508.84101392454,169585.0
63508.85112308864,169585.0
63508.86123225275,169600.0
63508.87134141686,169604.0
63508.881450580964,169639.0
63508.89155974507,169606.0
63508.90166890918,169613.0
63508.911778073285,169611.0
63508.92188723739,169635.0
63508.9319964015,169652.0
63508.942105565606,169599.0
63508.95221472971,169619.0
63508.96232389382,169625.0
63508.97243305793,169624.0
63508.98254222203,169599.0
63508.992651386136,169603.0
63509.00276055025,169576.0
63509.01286971435,169607.0
63509.022978878456,169570.0
63509.03308804257,169582.0
63509.04319720667,169617.0
63509.05330637078,169578.0
63509.06341553489,169572.0
63509.07352469899,169574.0
63509.0836338631,169547.0
63509.09374302721,169587.0
63509.103852191314,169545.0
63509.11396135542,169547.0
63509.12407051953,169571.0
63509.134179683635,169592.0
63509.14428884774,169581.0
63509.15439801185,169573.0
63509.164507175956,169586.0
63509.17461634006,169582.0
63509.18472550417,169585.0
63509.19483466828,169620.0
63509.20494383238,169588.0
63509.21505299649,169579.0
63509.2251621606,169626.0
63509.2352713247,169595.0
63509.245380488814,169589.0
63509.25548965292,169595.0
63509.26559881702,169580.0
63509.27570798113,169621.0
63509.28581714524,169592.0
63509.29592630934,169605.0
63509.30603547345,169620.0
63509.31614463756,169617.0
63509.326253801664,169592.0
63509.33636296577,169592.0
63509.34647212988,169593.0
63509.356581293985,169579.0
63509.36669045809,169609.0
63509.3767996222,169615.0
63509.386908786306,169579.0
63509.39701795041,169573.0
63509.40712711452,169606.0
63509.41723627863,169614.0
63509.42734544273,169576.0
63509.43745460684,169597.0
63509.44756377095,169616.0
63509.45767293505,169622.0
63509.467782099164,169625.0
63509.47789126327,169579.0
63509.48800042737,169593.0
63509.498109591485,169617.0
63509.50821875559,169556.0
63509.51832791969,169590.0
63509.528437083805,169618.0
63509.53854624791,169600.0
63509.548655412014,169617.0
63509.558764576126,169581.0
63509.56887374023,169610.0
63509.578982904335,169614.0
63509.58909206844,169605.0
63509.59920123255,169642.0
63509.609310396656,169598.0
63509.61941956076,169616.0
63509.62952872487,169609.0
63509.63963788898,169620.0
63509.64974705308,169615.0
63509.65985621719,169614.0
63509.6699653813,169621.0
63509.6800745454,169647.0
63509.690183709514,169653.0
63509.70029287362,169615.0
63509.71040203772,169588.0
63509.720511201835,169641.0
63509.73062036594,169606.0
63509.74072953004,169621.0
63509.750838694155,169597.0
63509.76094785826,169657.0
63509.771057022364,169633.0
63509.781166186476,169611.0
63509.79127535058,169592.0
63509.801384514685,169611.0
63509.8114936788,169624.0
63509.8216028429,169619.0
63509.831712007006,169642.0
63509.84182117112,169627.0
63509.85193033522,169637.0
63509.86203949933,169623.0
63509.87214866344,169613.0
63509.88225782754,169564.0
63509.89236699165,169561.0
63509.90247615575,169607.0
63509.912585319864,169573.0
63509.92269448397,169552.0
63509.93280364807,169557.0
63509.942912812185,169607.0
63509.95302197629,169577.0
63509.963131140394,169562.0
63509.973240304505,169556.0
63509.98334946861,169548.0
63509.993458632714,169594.0
63510.003567796826,169600.0
63510.01367696093,169597.0
63510.023786125035,169557.0
63510.03389528915,169607.0
63510.04400445325,169569.0
63510.054113617356,169577.0
63510.06422278147,169590.0
63510.07433194557,169596.0
63510.08444110968,169614.0
63510.09455027379,169618.0
63510.10465943789,169574.0
63510.114768602,169597.0
63510.12487776611,169591.0
63510.134986930214,169598.0
63510.14509609432,169582.0
63510.15520525843,169594.0
63510.165314422535,169587.0
63510.17542358664,169589.0
63510.18553275075,169594.0
63510.195641914856,169592.0
63510.20575107896,169596.0
63510.215860243065,169582.0
63510.225969407176,169627.0
63510.23607857128,169602.0
63510.246187735385,169582.0
63510.2562968995,169595.0
63510.2664060636,169583.0
63510.276515227706,169635.0
63510.28662439182,169595.0
63510.29673355592,169618.0
63510.30684272003,169627.0
63510.31695188414,169562.0
63510.32706104824,169612.0
63510.33717021235,169598.0
63510.34727937646,169619.0
63510.357388540564,169595.0
63510.36749770467,169605.0
63510.37760686878,169599.0
63510.387716032885,169607.0
63510.39782519699,169639.0
63510.4079343611,169609.0
63510.418043525206,169607.0
63510.42815268931,169604.0
63510.43826185342,169636.0
63510.44837101753,169608.0
63510.45848018163,169582.0
63510.46858934574,169621.0
63510.47869850985,169624.0
63510.48880767395,169624.0
63510.49891683806,169617.0
63510.50902600217,169626.0
63510.51913516627,169634.0
63510.52924433038,169624.0
63510.53935349449,169612.0
63510.54946265859,169621.0
63510.5595718227,169618.0
63510.56968098681,169579.0
63510.579790150914,169624.0
63510.58989931502,169623.0
63510.60000847913,169606.0
63510.610117643235,169612.0
63510.62022680734,169625.0
63510.63033597145,169622.0
63510.640445135556,169636.0
63510.65055429966,169616.0
63510.66066346377,169612.0
63510.67077262788,169581.0
63510.68088179198,169612.0
63510.69099095609,169561.0
63510.7011001202,169576.0
63510.7112092843,169576.0
63510.72131844841,169540.0
63510.73142761252,169570.0
63510.74153677662,169568.0
63510.751645940734,169566.0
63510.76175510484,169533.0
63510.77186426894,169550.0
63510.781973433055,169564.0
63510.79208259716,169546.0
63510.802191761264,169560.0
63510.812300925376,169596.0
63510.82241008948,169577.0
63510.832519253585,169529.0
63510.84262841769,169554.0
63510.8527375818,169541.0
63510.862846745906,169569.0
63510.87295591001,169557.0
63510.88306507412,169611.0
63510.89317423823,169568.0
63510.90328340233,169560.0
63510.91339256644,169556.0
63510.92350173055,169561.0
63510.93361089465,169573.0
63510.94372005876,169578.0
63510.95382922287,169600.0
63510.96393838697,169567.0
63510.974047551084,169540.0
63510.98415671519,169570.0
63510.99426587929,169588.0
63511.004375043405,169572.0
63511.01448420751,169553.0
63511.024593371614,169580.0
63511.034702535726,169568.0
63511.04481169983,169558.0
63511.054920863935,169560.0
63511.06503002805,169607.0
63511.07513919215,169588.0
63511.085248356256,169593.0
63511.09535752037,169560.0
63511.10546668447,169564.0
63511.11557584858,169569.0
63511.12568501269,169561.0
63511.13579417679,169559.0
63511.1459033409,169568.0
63511.156012505,169591.0
63511.16612166911,169566.0
63511.17623083322,169556.0
63511.18633999732,169585.0
63511.196449161434,169592.0
63511.20655832554,169621.0
63511.21666748964,169602.0
63511.226776653755,169546.0
63511.23688581786,169559.0
63511.246994981964,169571.0
63511.257104146076,169612.0
63511.26721331018,169560.0
63511.277322474285,169575.0
63511.2874316384,169569.0
63511.2975408025,169611.0
63511.307649966606,169577.0
63511.31775913072,169589.0
63511.32786829482,169583.0
63511.33797745893,169557.0
63511.34808662304,169606.0
63511.35819578714,169598.0
63511.36830495125,169569.0
63511.37841411536,169615.0
63511.388523279464,169567.0
63511.39863244357,169597.0
63511.40874160768,169569.0
63511.418850771784,169579.0
63511.42895993589,169599.0
63511.4390691,169546.0
63511.449178264105,169572.0
63511.45928742821,169546.0
63511.469396592314,169532.0
63511.479505756426,169564.0
63511.48961492053,169554.0
63511.499724084635,169542.0
63511.50983324875,169555.0
63511.51994241285,169532.0
63511.530051576956,169533.0
63511.54016074107,169531.0
63511.55026990517,169530.0
63511.56037906928,169551.0
63511.57048823339,169535.0
63511.58059739749,169504.0
63511.5907065616,169504.0
63511.60081572571,169558.0
63511.610924889814,169532.0
63511.62103405392,169557.0
63511.63114321803,169512.0
63511.641252382135,169549.0
63511.65136154624,169523.0
63511.66147071035,169515.0
63511.671579874455,169519.0
63511.68168903856,169508.0
63511.69179820267,169540.0
63511.701907366776,169565.0
63511.71201653088,169523.0
63511.72212569499,169539.0
63511.7322348591,169547.0
63511.7423440232,169555.0
63511.75245318731,169526.0
63511.76256235142,169531.0
63511.77267151552,169519.0
63511.78278067963,169484.0
63511.79288984374,169502.0
63511.80299900784,169513.0
63511.81310817195,169537.0
63511.82321733606,169505.0
63511.833326500164,169571.0
63511.84343566427,169533.0
63511.85354482838,169528.0
63511.863653992485,169544.0
63511.87376315659,169571.0
63511.8838723207,169530.0
63511.893981484805,169545.0
63511.90409064891,169513.0
63511.91419981302,169539.0
63511.924308977126,169548.0
63511.93441814123,169528.0
63511.94452730534,169554.0
63511.95463646945,169555.0
63511.96474563355,169579.0
63511.97485479766,169527.0
63511.98496396177,169550.0
63511.99507312587,169568.0
63512.005182289984,169582.0
63512.01529145409,169549.0
63512.02540061819,169570.0
63512.035509782305,169546.0
63512.04561894641,169575.0
63512.055728110514,169577.0
63512.065837274626,169562.0
63512.07594643873,169566.0
63512.086055602835,169581.0
63512.09616476694,169559.0
63512.10627393105,169557.0
63512.116383095155,169533.0
63512.12649225926,169517.0
63512.13660142337,169582.0
63512.146710587476,169556.0
63512.15681975158,169566.0
63512.16692891569,169540.0
63512.1770380798,169576.0
63512.1871472439,169557.0
63512.19725640801,169557.0
63512.20736557212,169539.0
63512.21747473622,169530.0
63512.227583900334,169568.0
63512.23769306444,169546.0
63512.24780222854,169505.0
63512.257911392655,169497.0
63512.26802055676,169535.0
63512.278129720864,169501.0
63512.288238884976,169494.0
63512.29834804908,169519.0
63512.308457213185,169502.0
63512.3185663773,169498.0
63512.3286755414,169520.0
63512.338784705506,169486.0
63512.34889386962,169500.0
63512.35900303372,169499.0
63512.369112197826,169530.0
63512.37922136194,169483.0
63512.38933052604,169495.0
63512.39943969015,169513.0
63512.40954885425,169485.0
63512.41965801836,169464.0
63512.42976718247,169483.0
63512.43987634657,169493.0
63512.449985510684,169510.0
63512.46009467479,169488.0
63512.47020383889,169495.0
63512.480313003005,169510.0
63512.49042216711,169515.0
63512.500531331214,169507.0
63512.510640495326,169474.0
63512.52074965943,169511.0
63512.530858823535,169503.0
63512.54096798765,169540.0
63512.55107715175,169504.0
63512.561186315856,169499.0
63512.57129547997,169484.0
63512.58140464407,169505.0
63512.59151380818,169479.0
63512.60162297229,169486.0
63512.61173213639,169502.0
63512.6218413005,169508.0
63512.63195046461,169531.0
63512.64205962871,169482.0
63512.65216879282,169509.0
63512.66227795693,169481.0
63512.672387121034,169513.0
63512.68249628514,169481.0
63512.69260544925,169504.0
63512.702714613355,169507.0
63512.71282377746,169538.0
63512.722932941564,169538.0
63512.733042105676,169521.0
63512.74315126978,169493.0
63512.753260433885,169489.0
63512.763369598,169545.0
63512.7734787621,169517.0
63512.783587926206,169509.0
63512.79369709032,169514.0
63512.80380625442,169492.0
63512.81391541853,169520.0
63512.82402458264,169489.0
63512.83413374674,169477.0
63512.84424291085,169499.0
63512.85435207496,169515.0
63512.86446123906,169528.0
63512.87457040317,169497.0
63512.88467956728,169552.0
63512.894788731384,169519.0
63512.90489789549,169532.0
63512.9150070596,169513.0
63512.925116223705,169498.0
63512.93522538781,169525.0
63512.94533455192,169492.0
63512.955443716026,169511.0
63512.96555288013,169507.0
63512.97566204424,169477.0
63512.98577120835,169505.0
63512.99588037245,169504.0
63513.00598953656,169549.0
63513.01609870067,169555.0
63513.02620786477,169513.0
63513.03631702888,169527.0
63513.04642619299,169487.0
63513.05653535709,169504.0
63513.0666445212,169488.0
63513.07675368531,169460.0
63513.08686284941,169446.0
63513.09697201352,169439.0
63513.10708117763,169459.0
63513.117190341734,169452.0
63513.12729950584,169446.0
63513.13740866995,169462.0
63513.147517834055,169466.0
63513.15762699816,169449.0
63513.16773616227,169482.0
63513.177845326376,169430.0
63513.18795449048,169472.0
63513.19806365459,169443.0
63513.2081728187,169464.0
63513.2182819828,169449.0
63513.22839114691,169460.0
63513.23850031102,169462.0
63513.24860947512,169429.0
63513.258718639234,169457.0
63513.26882780334,169465.0
63513.27893696744,169427.0
63513.289046131555,169425.0
63513.29915529566,169474.0
63513.309264459764,169456.0
63513.319373623875,169477.0
63513.32948278798,169457.0
63513.339591952084,169445.0
63513.34970111619,169458.0
63513.3598102803,169441.0
63513.369919444405,169458.0
63513.38002860851,169477.0
63513.39013777262,169471.0
63513.400246936726,169463.0
63513.41035610083,169467.0
63513.42046526494,169489.0
63513.43057442905,169471.0
63513.44068359315,169471.0
63513.45079275726,169420.0
63513.46090192137,169441.0
63513.47101108547,169467.0
63513.481120249584,169467.0
63513.49122941369,169487.0
63513.50133857779,169475.0
63513.511447741905,169460.0
63513.52155690601,169453.0
63513.531666070114,169436.0
63513.541775234225,169465.0
63513.55188439833,169468.0
63513.561993562435,169478.0
63513.572102726546,169435.0
63513.58221189065,169462.0
63513.592321054755,169495.0
63513.60243021887,169483.0
63513.61253938297,169458.0
63513.622648547076,169452.0
63513.63275771119,169446.0
63513.64286687529,169476.0
63513.6529760394,169466.0
63513.6630852035,169488.0
63513.67319436761,169503.0
63513.68330353172,169490.0
63513.69341269582,169464.0
63513.703521859934,169507.0
63513.71363102404,169446.0
63513.72374018814,169489.0
63513.733849352255,169461.0
63513.74395851636,169468.0
63513.754067680464,169480.0
63513.764176844576,169475.0
63513.77428600868,169484.0
63513.784395172785,169461.0
63513.794504336896,169475.0
63513.804613501,169468.0
63513.814722665105,169483.0
63513.82483182922,169499.0
63513.83494099332,169517.0
63513.845050157426,169501.0
63513.85515932154,169498.0
63513.86526848564,169492.0
63513.87537764975,169507.0
63513.88548681386,169507.0
63513.89559597796,169495.0
63513.90570514207,169436.0
63513.91581430618,169469.0
63513.925923470284,169455.0
63513.93603263439,169464.0
63513.9461417985,169459.0
63513.956250962605,169480.0
63513.96636012671,169413.0
63513.976469290814,169435.0
63513.986578454926,169430.0
63513.99668761903,169424.0
63514.006796783135,169422.0
63514.01690594725,169433.0
63514.02701511135,169419.0
63514.037124275455,169416.0
63514.04723343957,169389.0
63514.05734260367,169421.0
63514.067451767776,169414.0
63514.07756093189,169433.0
63514.08767009599,169427.0
63514.0977792601,169432.0
63514.10788842421,169386.0
63514.11799758831,169432.0
63514.12810675242,169444.0
63514.13821591653,169420.0
63514.148325080634,169423.0
63514.15843424474,169418.0
63514.16854340885,169414.0
63514.178652572955,169394.0
63514.18876173706,169430.0
63514.19887090117,169400.0
63514.208980065276,169460.0
63514.21908922938,169428.0
63514.22919839349,169437.0
63514.2393075576,169418.0
63514.2494167217,169438.0
63514.25952588581,169402.0
63514.26963504992,169440.0
63514.27974421402,169408.0
63514.289853378126,169401.0
63514.29996254224,169468.0
63514.31007170634,169437.0
63514.32018087045,169459.0
63514.33029003456,169434.0
63514.34039919866,169440.0
63514.35050836277,169449.0
63514.36061752688,169418.0
63514.370726690984,169439.0
63514.38083585509,169449.0
63514.3909450192,169448.0
63514.401054183305,169430.0
63514.41116334741,169430.0
63514.42127251152,169471.0
63514.431381675626,169456.0
63514.44149083973,169467.0
63514.45160000384,169431.0
63514.46170916795,169467.0
63514.47181833205,169447.0
63514.48192749616,169442.0
63514.49203666027,169419.0
63514.50214582437,169454.0
63514.51225498848,169457.0
63514.52236415259,169449.0
63514.53247331669,169434.0
63514.542582480804,169485.0
63514.55269164491,169485.0
63514.56280080901,169467.0
63514.572909973125,169419.0
63514.58301913723,169435.0
63514.593128301334,169457.0
63514.60323746544,169473.0
63514.61334662955,169474.0
63514.623455793655,169442.0
63514.63356495776,169470.0
63514.64367412187,169468.0
63514.653783285976,169482.0
63514.66389245008,169469.0
63514.67400161419,169471.0
63514.6841107783,169466.0
63514.6942199424,169474.0
63514.70432910651,169462.0
63514.71443827062,169433.0
63514.72454743472,169471.0
63514.734656598834,169455.0
63514.74476576294,169498.0
63514.75487492704,169521.0
63514.764984091154,169493.0
63514.77509325526,169478.0
63514.78520241936,169476.0
63514.795311583475,169444.0
63514.80542074758,169460.0
63514.815529911684,169434.0
63514.825639075796,169443.0
63514.8357482399,169424.0
63514.845857404005,169400.0
63514.85596656812,169423.0
63514.86607573222,169411.0
63514.876184896326,169446.0
63514.88629406044,169411.0
63514.89640322454,169408.0
63514.90651238865,169416.0
63514.91662155275,169431.0
63514.92673071686,169406.0
63514.93683988097,169414.0
63514.94694904507,169395.0
63514.957058209184,169423.0
63514.96716737329,169421.0
63514.97727653739,169385.0
63514.987385701505,169386.0
63514.99749486561,169419.0
63515.00760402971,169443.0
63515.017713193825,169419.0
63515.02782235793,169405.0
63515.037931522034,169407.0
63515.048040686146,169428.0
63515.05814985025,169421.0
63515.068259014355,169396.0
63515.07836817847,169387.0
63515.08847734257,169444.0
63515.098586506676,169419.0
63515.10869567079,169401.0
63515.11880483489,169391.0
63515.128913999,169409.0
63515.13902316311,169403.0
63515.14913232721,169420.0
63515.15924149132,169400.0
63515.16935065543,169390.0
63515.179459819534,169432.0
63515.18956898364,169437.0
63515.19967814775,169431.0
63515.209787311855,169401.0
63515.21989647596,169419.0
63515.23000564006,169436.0
63515.240114804175,169390.0
63515.25022396828,169392.0
63515.260333132384,169432.0
63515.270442296496,169440.0
63515.2805514606,169416.0
63515.290660624705,169411.0
63515.30076978882,169441.0
63515.31087895292,169433.0
63515.320988117026,169473.0
63515.33109728114,169447.0
63515.34120644524,169448.0
63515.35131560935,169452.0
63515.36142477346,169467.0
63515.37153393756,169441.0
63515.38164310167,169443.0
63515.39175226578,169450.0
63515.401861429884,169446.0
63515.41197059399,169491.0
63515.4220797581,169433.0
63515.432188922205,169442.0
63515.44229808631,169456.0
63515.45240725042,169467.0
63515.462516414525,169443.0
63515.47262557863,169452.0
63515.48273474274,169501.0
63515.492843906846,169489.0
63515.50295307095,169454.0
63515.51306223506,169450.0
63515.52317139917,169436.0
63515.53328056327,169466.0
63515.543389727376,169481.0
63515.55349889149,169475.0
63515.56360805559,169480.0
63515.5737172197,169492.0
63515.58382638381,169491.0
63515.59393554791,169482.0
63515.60404471202,169506.0
63515.61415387613,169462.0
63515.624263040234,169491.0
63515.63437220434,169480.0
63515.64448136845,169466.0
63515.654590532555,169439.0
63515.66469969666,169497.0
63515.67480886077,169486.0
63515.684918024876,169485.0
63515.69502718898,169465.0
63515.70513635309,169479.0
63515.715245517196,169504.0
63515.7253546813,169465.0
63515.73546384541,169462.0
63515.74557300952,169417.0
63515.75568217362,169463.0
63515.76579133773,169436.0
63515.77590050184,169397.0
63515.78600966594,169415.0
63515.796118830054,169376.0
63515.80622799416,169425.0
63515.81633715826,169453.0
63515.826446322375,169421.0
63515.83655548648,169404.0
63515.846664650584,169430.0
63515.85677381469,169436.0
63515.8668829788,169405.0
63515.876992142905,169413.0
63515.88710130701,169418.0
63515.89721047112,169423.0
63515.907319635226,169448.0
63515.91742879933,169375.0
63515.92753796344,169440.0
63515.93764712755,169397.0
63515.94775629165,169459.0
63515.95786545576,169447.0
63515.96797461987,169442.0
63515.97808378397,169444.0
63515.98819294808,169432.0
63515.99830211219,169421.0
63516.00841127629,169437.0
63516.018520440404,169429.0
63516.02862960451,169452.0
63516.03873876861,169418.0
63516.048847932725,169421.0
63516.05895709683,169406.0
63516.069066260934,169440.0
63516.079175425046,169459.0
63516.08928458915,169430.0
63516.099393753255,169429.0
63516.10950291737,169429.0
63516.11961208147,169452.0
63516.129721245576,169444.0
63516.13983040969,169452.0
63516.14993957379,169440.0
63516.1600487379,169445.0
63516.170157902,169414.0
63516.18026706611,169405.0
63516.19037623022,169411.0
63516.20048539432,169451.0
63516.21059455843,169471.0
63516.22070372254,169442.0
63516.23081288664,169447.0
63516.240922050754,169438.0
63516.25103121486,169478.0
63516.26114037896,169467.0
63516.271249543075,169474.0
63516.28135870718,169459.0
63516.291467871284,169484.0
63516.301577035396,169465.0
63516.3116861995,169439.0
63516.321795363605,169431.0
63516.33190452772,169421.0
63516.34201369182,169456.0
63516.352122855926,169480.0
63516.36223202004,169459.0
63516.37234118414,169511.0
63516.38245034825,169475.0
63516.39255951236,169493.0
63516.40266867646,169473.0
63516.41277784057,169473.0
63516.42288700468,169470.0
63516.43299616878,169491.0
63516.44310533289,169495.0
63516.453214497,169469.0
63516.463323661104,169470.0
63516.47343282521,169481.0
63516.48354198931,169452.0
63516.493651153425,169458.0
63516.50376031753,169480.0
63516.513869481634,169485.0
63516.523978645746,169494.0
63516.53408780985,169509.0
63516.544196973955,169460.0
63516.55430613807,169487.0
63516.56441530217,169476.0
63516.574524466276,169518.0
63516.58463363039,169455.0
63516.59474279449,169490.0
63516.6048519586,169506.0
63516.61496112271,169516.0
63516.62507028681,169490.0
63516.63517945092,169492.0
63516.64528861503,169490.0
63516.65539777913,169502.0
63516.66550694324,169489.0
63516.67561610735,169449.0
63516.685725271454,169421.0
63516.69583443556,169467.0
63516.70594359967,169471.0
63516.716052763775,169433.0
63516.72616192788,169412.0
63516.73627109199,169442.0
63516.746380256096,169447.0
63516.7564894202,169440.0
63516.76659858431,169434.0
63516.77670774842,169421.0
63516.78681691252,169449.0
63516.796926076626,169435.0
63516.80703524074,169436.0
63516.81714440484,169397.0
63516.82725356895,169416.0
63516.83736273306,169438.0
63516.84747189716,169410.0
63516.85758106127,169412.0
63516.86769022538,169386.0
63516.877799389484,169407.0
63516.88790855359,169438.0
63516.8980177177,169430.0
63516.908126881804,169429.0
63516.91823604591,169451.0
63516.92834521002,169428.0
63516.938454374125,169420.0
63516.94856353823,169411.0
63516.95867270234,169420.0
63516.968781866446,169439.0
63516.97889103055,169446.0
63516.98900019466,169421.0
63516.99910935877,169427.0
63517.00921852287,169457.0
63517.01932768698,169469.0
63517.02943685109,169467.0
63517.03954601519,169476.0
63517.049655179304,169442.0
63517.05976434341,169452.0
63517.06987350751,169483.0
63517.079982671625,169453.0
63517.09009183573,169456.0
63517.100200999834,169433.0
63517.11031016394,169434.0
63517.12041932805,169421.0
63517.130528492155,169435.0
63517.14063765626,169429.0
63517.15074682037,169453.0
63517.160855984475,169501.0
63517.17096514858,169468.0
63517.18107431269,169469.0
63517.191183476796,169463.0
63517.2012926409,169435.0
63517.21140180501,169459.0
63517.22151096912,169462.0
63517.23162013322,169438.0
63517.24172929733,169488.0
63517.25183846144,169419.0
63517.26194762554,169463.0
63517.272056789654,169457.0
63517.28216595376,169451.0
63517.29227511786,169456.0
63517.302384281975,169482.0
63517.31249344608,169447.0
63517.322602610184,169471.0
63517.332711774296,169451.0
63517.3428209384,169476.0
63517.352930102505,169464.0
63517.36303926662,169447.0
63517.37314843072,169484.0
63517.383257594825,169464.0
63517.39336675893,169485.0
63517.40347592304,169460.0
63517.413585087146,169472.0
63517.42369425125,169492.0
63517.43380341536,169473.0
63517.44391257947,169495.0
63517.45402174357,169474.0
63517.46413090768,169495.0
63517.47424007179,169482.0
63517.48434923589,169499.0
63517.494458400004,169517.0
63517.50456756411,169503.0
63517.51467672821,169482.0
63517.524785892325,169509.0
63517.53489505643,169474.0
63517.545004220534,169512.0
63517.555113384646,169527.0
63517.56522254875,169527.0
63517.575331712855,169489.0
63517.58544087697,169507.0
63517.59555004107,169474.0
63517.605659205175,169513.0
63517.61576836929,169493.0
63517.62587753339,169461.0
63517.635986697496,169464.0
63517.64609586161,169488.0
63517.65620502571,169440.0
63517.66631418982,169417.0
63517.67642335393,169436.0
63517.68653251803,169402.0
63517.69664168214,169404.0
63517.70675084625,169470.0
63517.716860010354,169445.0
63517.72696917446,169423.0
63517.73707833856,169468.0
63517.747187502675,169449.0
63517.75729666678,169457.0
63517.767405830884,169437.0
63517.777514994996,169431.0
63517.7876241591,169454.0
63517.797733323205,169450.0
63517.80784248732,169429.0
63517.81795165142,169419.0
63517.828060815526,169468.0
63517.83816997964,169455.0
63517.84827914374,169428.0
63517.858388307846,169460.0
63517.86849747196,169441.0
63517.87860663606,169459.0
63517.88871580017,169501.0
63517.89882496428,169448.0
63517.90893412838,169464.0
63517.91904329249,169416.0
63517.9291524566,169423.0
63517.939261620704,169438.0
63517.94937078481,169455.0
63517.95947994892,169449.0
63517.969589113025,169470.0
63517.97969827713,169428.0
63517.98980744124,169446.0
63517.999916605346,169474.0
63518.01002576945,169453.0
63518.020134933555,169496.0
63518.03024409767,169444.0
63518.04035326177,169466.0
63518.050462425876,169476.0
63518.06057158999,169472.0
63518.07068075409,169444.0
63518.0807899182,169471.0
63518.09089908231,169474.0
63518.10100824641,169465.0
63518.11111741052,169482.0
63518.12122657463,169462.0
63518.13133573873,169477.0
63518.14144490284,169487.0
63518.15155406695,169503.0
63518.161663231054,169480.0
63518.17177239516,169490.0
63518.18188155927,169516.0
63518.191990723375,169495.0
63518.20209988748,169465.0
63518.21220905159,169492.0
63518.222318215696,169469.0
63518.2324273798,169512.0
63518.24253654391,169478.0
63518.25264570802,169494.0
63518.26275487212,169479.0
63518.27286403623,169509.0
63518.28297320034,169485.0
63518.29308236444,169499.0
63518.303191528554,169506.0
63518.31330069266,169503.0
63518.32340985676,169467.0
63518.333519020875,169489.0
63518.34362818498,169477.0
63518.35373734908,169519.0
63518.36384651319,169501.0
63518.3739556773,169502.0
63518.384064841404,169498.0
63518.39417400551,169502.0
63518.40428316962,169528.0
63518.414392333725,169487.0
63518.42450149783,169510.0
63518.43461066194,169531.0
63518.444719826046,169520.0
63518.45482899015,169480.0
63518.46493815426,169501.0
63518.47504731837,169496.0
63518.48515648247,169530.0
63518.49526564658,169544.0
63518.50537481069,169517.0
63518.51548397479,169530.0
63518.525593138904,169549.0
63518.53570230301,169553.0
63518.54581146711,169530.0
63518.555920631225,169479.0
63518.56602979533,169502.0
63518.57613895943,169512.0
63518.586248123545,169502.0
63518.59635728765,169466.0
63518.606466451754,169460.0
63518.616575615866,169487.0
63518.62668477997,169473.0
63518.636793944075,169463.0
63518.64690310818,169465.0
63518.65701227229,169477.0
63518.667121436396,169469.0
63518.6772306005,169489.0
63518.68733976461,169453.0
63518.69744892872,169463.0
63518.70755809282,169477.0
63518.71766725693,169535.0
63518.72777642104,169471.0
63518.73788558514,169484.0
63518.747994749254,169475.0
63518.75810391336,169502.0
63518.76821307746,169440.0
63518.778322241575,169465.0
63518.78843140568,169489.0
63518.798540569784,169455.0
63518.808649733895,169493.0
63518.818758898,169475.0
63518.828868062104,169475.0
63518.838977226216,169506.0
63518.84908639032,169488.0
63518.859195554425,169455.0
63518.86930471854,169478.0
63518.87941388264,169486.0
63518.889523046746,169475.0
63518.89963221086,169515.0
63518.90974137496,169474.0
63518.91985053907,169506.0
63518.92995970318,169487.0
63518.94006886728,169488.0
63518.95017803139,169474.0
63518.9602871955,169496.0
63518.970396359604,169521.0
63518.98050552371,169509.0
63518.99061468781,169448.0
63519.000723851925,169489.0
63519.01083301603,169468.0
63519.020942180134,169499.0
63519.031051344245,169518.0
63519.04116050835,169502.0
63519.051269672455,169479.0
63519.061378836566,169518.0
63519.07148800067,169515.0
63519.081597164775,169520.0
63519.09170632889,169469.0
63519.10181549299,169490.0
63519.111924657096,169507.0
63519.12203382121,169496.0
63519.13214298531,169509.0
63519.14225214942,169498.0
63519.15236131353,169549.0
63519.16247047763,169517.0
63519.17257964174,169511.0
63519.18268880585,169484.0
63519.192797969954,169495.0
63519.20290713406,169542.0
63519.21301629817,169512.0
63519.223125462275,169493.0
63519.23323462638,169499.0
63519.24334379049,169540.0
63519.253452954596,169523.0
63519.2635621187,169527.0
63519.273671282805,169539.0
63519.283780446916,169525.0
63519.29388961102,169536.0
63519.303998775125,169553.0
63519.31410793924,169516.0
63519.32421710334,169532.0
63519.334326267446,169540.0
63519.34443543156,169519.0
63519.35454459566,169515.0
63519.36465375977,169541.0
63519.37476292388,169540.0
63519.38487208798,169570.0
63519.39498125209,169536.0
63519.4050904162,169524.0
63519.415199580304,169549.0
63519.42530874441,169546.0
63519.43541790852,169525.0
63519.445527072625,169559.0
63519.45563623673,169554.0
63519.46574540084,169569.0
63519.475854564946,169550.0
63519.48596372905,169533.0
63519.49607289316,169554.0
63519.50618205727,169541.0
63519.51629122137,169550.0
63519.52640038548,169496.0
63519.53650954959,169508.0
63519.54661871369,169504.0
63519.5567278778,169505.0
63519.56683704191,169505.0
63519.57694620601,169505.0
63519.587055370124,169496.0
63519.59716453423,169497.0
63519.60727369833,169500.0
63519.61738286244,169464.0
63519.62749202655,169502.0
63519.637601190654,169473.0
63519.64771035476,169515.0
63519.65781951887,169460.0
63519.667928682975,169493.0
63519.67803784708,169473.0
63519.68814701119,169520.0
63519.698256175296,169514.0
63519.7083653394,169504.0
63519.71847450351,169485.0
63519.72858366762,169470.0
63519.73869283172,169536.0
63519.74880199583,169513.0
63519.75891115994,169500.0
63519.76902032404,169537.0
63519.77912948815,169529.0
63519.78923865226,169539.0
63519.79934781636,169486.0
63519.809456980474,169524.0
63519.81956614458,169474.0
63519.82967530868,169510.0
63519.839784472795,169546.0
63519.8498936369,169525.0
63519.860002801004,169545.0
63519.870111965116,169528.0
63519.88022112922,169542.0
63519.890330293325,169494.0
63519.90043945743,169495.0
63519.91054862154,169529.0
63519.920657785646,169538.0
63519.93076694975,169534.0
63519.94087611386,169491.0
63519.95098527797,169514.0
63519.96109444207,169505.0
63519.97120360618,169514.0
63519.98131277029,169501.0
63519.99142193439,169532.0
63520.0015310985,169536.0
63520.01164026261,169506.0
63520.02174942671,169541.0
63520.031858590824,169512.0
63520.04196775493,169533.0
63520.05207691903,169555.0
63520.062186083145,169504.0
63520.07229524725,169523.0
63520.082404411354,169554.0
63520.092513575466,169551.0
63520.10262273957,169549.0
63520.112731903675,169514.0
63520.12284106779,169543.0
63520.13295023189,169559.0
63520.143059395996,169564.0
63520.15316856011,169525.0
63520.16327772421,169565.0
63520.17338688832,169519.0
63520.18349605243,169584.0
63520.19360521653,169508.0
63520.20371438064,169557.0
63520.21382354475,169526.0
63520.223932708854,169533.0
63520.23404187296,169564.0
63520.24415103706,169551.0
63520.254260201174,169565.0
63520.26436936528,169550.0
63520.27447852938,169582.0
63520.284587693495,169550.0
63520.2946968576,169545.0
63520.304806021704,169518.0
63520.314915185816,169557.0
63520.32502434992,169572.0
63520.335133514025,169567.0
63520.34524267814,169534.0
63520.35535184224,169546.0
63520.365461006346,169570.0
63520.37557017046,169578.0
63520.38567933456,169563.0
63520.39578849867,169593.0
63520.40589766278,169558.0
63520.41600682688,169573.0
63520.42611599099,169562.0
63520.4362251551,169566.0
63520.446334319204,169540.0
63520.45644348331,169587.0
63520.46655264742,169560.0
63520.476661811525,169549.0
63520.48677097563,169562.0
63520.49688013974,169542.0
63520.506989303845,169558.0
63520.51709846795,169541.0
63520.527207632054,169502.0
63520.537316796166,169510.0
63520.54742596027,169477.0
63520.557535124375,169551.0
63520.56764428849,169507.0
63520.57775345259,169526.0
63520.587862616696,169509.0
63520.59797178081,169498.0
63520.60808094491,169521.0
63520.61819010902,169525.0
63520.62829927313,169511.0
63520.63840843723,169536.0
63520.64851760134,169551.0
63520.65862676545,169532.0
63520.668735929554,169544.0
63520.67884509366,169572.0
63520.68895425777,169558.0
63520.699063421875,169533.0
63520.70917258598,169519.0
63520.71928175009,169535.0
63520.729390914195,169525.0
63520.7395000783,169550.0
63520.74960924241,169551.0
63520.759718406516,169533.0
63520.76982757062,169544.0
63520.77993673473,169510.0
63520.79004589884,169546.0
63520.80015506294,169518.0
63520.81026422705,169507.0
63520.82037339116,169531.0
63520.83048255526,169546.0
63520.840591719374,169564.0
63520.85070088348,169521.0
63520.86081004758,169536.0
63520.87091921169,169543.0
63520.8810283758,169520.0
63520.891137539904,169526.0
63520.90124670401,169559.0
63520.91135586812,169549.0
63520.921465032225,169541.0
63520.93157419633,169533.0
63520.94168336044,169550.0
63520.951792524545,169557.0
63520.96190168865,169540.0
63520.97201085276,169580.0
63520.982120016866,169568.0
63520.99222918097,169558.0
63521.00233834508,169551.0
63521.01244750919,169547.0
63521.02255667329,169561.0
63521.0326658374,169573.0
63521.04277500151,169543.0
63521.05288416561,169584.0
63521.062993329724,169549.0
63521.07310249383,169571.0
63521.08321165793,169555.0
63521.093320822045,169592.0
63521.10342998615,169601.0
63521.113539150254,169550.0
63521.123648314366,169583.0
63521.13375747847,169570.0
63521.143866642575,169594.0
63521.15397580668,169570.0
63521.16408497079,169578.0
63521.174194134896,169558.0
63521.184303299,169554.0
63521.19441246311,169558.0
63521.204521627216,169579.0
63521.21463079132,169605.0
63521.22473995543,169609.0
63521.23484911954,169622.0
63521.24495828364,169594.0
63521.25506744775,169599.0
63521.26517661186,169536.0
63521.27528577596,169606.0
63521.285394940074,169599.0
63521.29550410418,169588.0
63521.30561326828,169593.0
63521.315722432395,169620.0
63521.3258315965,169604.0
63521.335940760604,169610.0
63521.346049924716,169597.0
63521.35615908882,169592.0
63521.366268252925,169598.0
63521.37637741704,169613.0
63521.38648658114,169583.0
63521.396595745246,169586.0
63521.40670490936,169582.0
63521.41681407346,169559.0
63521.42692323757,169553.0
63521.43703240168,169559.0
63521.44714156578,169561.0
63521.45725072989,169578.0
63521.467359894,169538.0
63521.4774690581,169536.0
63521.48757822221,169554.0
63521.49768738631,169544.0
63521.507796550424,169529.0
63521.51790571453,169552.0
63521.52801487863,169570.0
63521.538124042745,169563.0
63521.54823320685,169574.0
63521.558342370954,169526.0
63521.568451535066,169551.0
63521.57856069917,169554.0
63521.588669863275,169566.0
63521.59877902739,169539.0
63521.60888819149,169582.0
63521.618997355596,169578.0
63521.62910651971,169571.0
63521.63921568381,169583.0
63521.64932484792,169557.0
63521.65943401203,169577.0
63521.66954317613,169570.0
63521.67965234024,169585.0
63521.68976150435,169570.0
63521.69987066845,169580.0
63521.70997983256,169537.0
63521.72008899667,169590.0
63521.730198160774,169558.0
63521.74030732488,169557.0
63521.75041648899,169554.0
63521.760525653095,169608.0
63521.7706348172,169576.0
63521.780743981304,169565.0
63521.790853145416,169555.0
63521.80096230952,169541.0
63521.811071473625,169540.0
63521.82118063774,169575.0
63521.83128980184,169561.0
63521.841398965946,169580.0
63521.85150813006,169605.0
63521.86161729416,169590.0
63521.87172645827,169587.0
63521.88183562238,169575.0
63521.89194478648,169601.0
63521.90205395059,169598.0
63521.9121631147,169596.0
63521.9222722788,169529.0
63521.93238144291,169589.0
63521.94249060702,169611.0
63521.952599771124,169580.0
63521.96270893523,169586.0
63521.97281809934,169602.0
63521.982927263445,169610.0
63521.99303642755,169597.0
63522.00314559166,169580.0
63522.013254755766,169617.0
63522.02336391987,169617.0
63522.03347308398,169599.0
63522.04358224809,169615.0
63522.05369141219,169602.0
63522.0638005763,169603.0
63522.07390974041,169590.0
63522.08401890451,169580.0
63522.094128068624,169578.0
63522.10423723273,169616.0
63522.11434639683,169591.0
63522.12445556094,169591.0
63522.13456472505,169576.0
63522.14467388915,169582.0
63522.15478305326,169606.0
63522.16489221737,169596.0
63522.175001381474,169593.0
63522.18511054558,169567.0
63522.19521970969,169608.0
63522.205328873795,169611.0
63522.2154380379,169622.0
63522.22554720201,169598.0
63522.235656366116,169614.0
63522.24576553022,169583.0
63522.25587469433,169617.0
63522.26598385844,169620.0
63522.27609302254,169591.0
63522.28620218665,169599.0
63522.29631135076,169622.0
63522.30642051486,169584.0
63522.316529678974,169582.0
63522.32663884308,169572.0
63522.33674800718,169547.0
63522.346857171295,169570.0
63522.3569663354,169543.0
63522.367075499504,169554.0
63522.377184663615,169539.0
63522.38729382772,169590.0
63522.397402991824,169563.0
63522.40751215593,169573.0
63522.41762132004,169543.0
63522.427730484145,169578.0
63522.43783964825,169533.0
63522.44794881236,169569.0
63522.458057976466,169541.0
63522.46816714057,169604.0
63522.47827630468,169591.0
63522.48838546879,169581.0
63522.49849463289,169560.0
63522.508603797,169591.0
63522.51871296111,169581.0
63522.52882212521,169593.0
63522.538931289324,169576.0
63522.54904045343,169571.0
63522.55914961753,169602.0
63522.569258781645,169592.0
63522.57936794575,169569.0
63522.589477109854,169558.0
63522.599586273966,169560.0
63522.60969543807,169567.0
63522.619804602175,169571.0
63522.629913766286,169554.0
63522.64002293039,169570.0
63522.650132094495,169573.0
63522.66024125861,169577.0
63522.67035042271,169557.0
63522.680459586816,169553.0
63522.69056875093,169586.0
63522.70067791503,169579.0
63522.71078707914,169561.0
63522.72089624325,169545.0
63522.73100540735,169591.0
63522.74111457146,169591.0
63522.75122373556,169574.0
63522.761332899674,169574.0
63522.77144206378,169561.0
63522.78155122788,169568.0
63522.791660391995,169582.0
63522.8017695561,169606.0
63522.811878720204,169587.0
63522.821987884316,169597.0
63522.83209704842,169594.0
63522.842206212525,169610.0
63522.85231537664,169608.0
63522.86242454074,169564.0
63522.872533704845,169563.0
63522.88264286896,169547.0
63522.89275203306,169601.0
63522.902861197166,169596.0
63522.91297036128,169597.0
63522.92307952538,169566.0
63522.93318868949,169623.0
63522.9432978536,169575.0
63522.9534070177,169597.0
63522.96351618181,169565.0
63522.97362534592,169571.0
63522.983734510024,169617.0
63522.99384367413,169582.0
63523.00395283824,169549.0
63523.014062002345,169587.0
63523.02417116645,169552.0
63523.034280330554,169597.0
63523.044389494666,169583.0
63523.05449865877,169607.0
63523.064607822875,169577.0
63523.07471698699,169603.0
63523.08482615109,169598.0
63523.094935315195,169573.0
63523.10504447931,169622.0
63523.11515364341,169565.0
63523.125262807516,169586.0
63523.13537197163,169566.0
63523.14548113573,169583.0
63523.15559029984,169567.0
63523.16569946395,169550.0
63523.17580862805,169587.0
63523.18591779216,169518.0
63523.19602695627,169515.0
63523.206136120374,169548.0
63523.21624528448,169566.0
63523.22635444859,169543.0
63523.236463612695,169515.0
63523.2465727768,169541.0
63523.25668194091,169507.0
63523.266791105016,169529.0
63523.27690026912,169571.0
63523.28700943323,169545.0
63523.29711859734,169539.0
63523.30722776144,169525.0
63523.31733692555,169551.0
63523.32744608966,169559.0
63523.33755525376,169547.0
63523.34766441787,169577.0
63523.35777358198,169543.0
63523.36788274608,169552.0
63523.37799191019,169580.0
63523.3881010743,169589.0
63523.3982102384,169528.0
63523.40831940251,169504.0
63523.41842856662,169515.0
63523.428537730724,169545.0
63523.43864689483,169536.0
63523.44875605894,169549.0
63523.458865223045,169527.0
63523.46897438715,169534.0
63523.47908355126,169532.0
63523.489192715366,169561.0
63523.49930187947,169548.0
63523.50941104358,169515.0
63523.51952020769,169579.0
63523.52962937179,169543.0
63523.5397385359,169522.0
63523.54984770001,169510.0
