time,ppg
63478.9451000892,163677.0
63478.955199890945,163651.0
63478.96529969269,163650.0
63478.975399494426,163666.0
63478.98549929617,163686.0
63478.995599097914,163676.0
63479.00569889966,163654.0
63479.015798701395,163658.0
63479.02589850314,163687.0
63479.035998304884,163702.0
63479.04609810663,163650.0
63479.05619790837,163689.0
63479.06629771011,163658.0
63479.07639751185,163708.0
63479.0864973136,163659.0
63479.09659711534,163701.0
63479.10669691708,163695.0
63479.11679671882,163694.0
63479.12689652057,163697.0
63479.13699632231,163701.0
63479.147096124056,163703.0
63479.15719592579,163706.0
63479.16729572754,163715.0
63479.17739552928,163708.0
63479.187495331025,163714.0
63479.19759513277,163736.0
63479.20769493451,163723.0
63479.21779473625,163699.0
63479.227894537995,163719.0
63479.23799433974,163711.0
63479.24809414148,163729.0
63479.25819394322,163706.0
63479.268293744964,163731.0
63479.27839354671,163750.0
63479.28849334845,163730.0
63479.29859315019,163702.0
63479.308692951934,163721.0
63479.31879275368,163725.0
63479.32889255542,163706.0
63479.33899235717,163710.0
63479.349092158904,163743.0
63479.35919196065,163745.0
63479.36929176239,163729.0
63479.379391564136,163730.0
63479.38949136587,163723.0
63479.39959116762,163759.0
63479.40969096936,163741.0
63479.419790771106,163767.0
63479.42989057285,163748.0
63479.43999037459,163745.0
63479.45009017633,163726.0
63479.460189978076,163771.0
63479.47028977982,163727.0
63479.480389581564,163715.0
63479.4904893833,163694.0
63479.500589185045,163682.0
63479.51068898679,163687.0
63479.52078878853,163675.0
63479.53088859028,163664.0
63479.540988392015,163662.0
63479.55108819376,163654.0
63479.5611879955,163639.0
63479.57128779725,163644.0
63479.581387598984,163674.0
63479.59148740073,163635.0
63479.60158720247,163634.0
63479.61168700422,163674.0
63479.62178680596,163638.0
63479.6318866077,163693.0
63479.64198640944,163666.0
63479.65208621119,163683.0
63479.66218601293,163651.0
63479.67228581467,163685.0
63479.68238561641,163695.0
63479.692485418156,163687.0
63479.7025852199,163667.0
63479.712685021645,163714.0
63479.72278482338,163701.0
63479.732884625126,163679.0
63479.74298442687,163698.0
63479.753084228614,163721.0
63479.76318403036,163682.0
63479.773283832095,163671.0
63479.78338363384,163696.0
63479.793483435584,163656.0
63479.80358323733,163700.0
63479.81368303907,163677.0
63479.82378284081,163725.0
63479.83388264255,163683.0
63479.8439824443,163683.0
63479.85408224604,163694.0
63479.86418204778,163713.0
63479.87428184952,163686.0
63479.88438165127,163679.0
63479.89448145301,163699.0
63479.904581254756,163712.0
63479.91468105649,163710.0
63479.92478085824,163725.0
63479.93488065998,163717.0
63479.944980461725,163733.0
63479.95508026346,163723.0
63479.96518006521,163743.0
63479.97527986695,163722.0
63479.985379668695,163743.0
63479.99547947044,163738.0
63480.005579272176,163730.0
63480.01567907392,163729.0
63480.025778875664,163712.0
63480.03587867741,163747.0
63480.04597847915,163725.0
63480.05607828089,163740.0
63480.066178082634,163738.0
63480.07627788438,163771.0
63480.08637768612,163731.0
63480.09647748786,163757.0
63480.1065772896,163745.0
63480.11667709135,163731.0
63480.12677689309,163792.0
63480.136876694836,163797.0
63480.14697649657,163744.0
63480.15707629832,163748.0
63480.16717610006,163740.0
63480.177275901806,163773.0
63480.18737570355,163800.0
63480.19747550529,163761.0
63480.20757530703,163774.0
63480.217675108775,163762.0
63480.22777491052,163709.0
63480.23787471226,163716.0
63480.247974514,163714.0
63480.258074315745,163691.0
63480.26817411749,163655.0
63480.27827391923,163653.0
63480.28837372097,163681.0
63480.298473522715,163648.0
63480.30857332446,163646.0
63480.3186731262,163649.0
63480.32877292795,163675.0
63480.338872729684,163664.0
63480.34897253143,163653.0
63480.35907233317,163681.0
63480.36917213492,163680.0
63480.379271936654,163652.0
63480.3893717384,163676.0
63480.39947154014,163681.0
63480.40957134189,163653.0
63480.41967114363,163691.0
63480.42977094537,163683.0
63480.43987074711,163706.0
63480.449970548856,163667.0
63480.4600703506,163685.0
63480.470170152345,163691.0
63480.48026995408,163730.0
63480.490369755826,163685.0
63480.50046955757,163719.0
63480.510569359314,163681.0
63480.52066916105,163680.0
63480.530768962795,163646.0
63480.54086876454,163643.0
63480.550968566284,163688.0
63480.56106836803,163662.0
63480.571168169765,163701.0
63480.58126797151,163696.0
63480.59136777325,163682.0
63480.601467575,163674.0
63480.61156737674,163715.0
63480.62166717848,163700.0
63480.63176698022,163691.0
63480.64186678197,163693.0
63480.65196658371,163688.0
63480.66206638545,163674.0
63480.67216618719,163710.0
63480.68226598894,163698.0
63480.69236579068,163716.0
63480.702465592425,163693.0
63480.71256539416,163718.0
63480.722665195906,163728.0
63480.73276499765,163709.0
63480.742864799395,163752.0
63480.75296460114,163740.0
63480.763064402876,163742.0
63480.77316420462,163706.0
63480.783264006364,163736.0
63480.79336380811,163740.0
63480.803463609845,163701.0
63480.81356341159,163751.0
63480.823663213334,163753.0
63480.83376301508,163771.0
63480.84386281682,163738.0
63480.85396261856,163770.0
63480.8640624203,163780.0
63480.87416222205,163740.0
63480.88426202379,163764.0
63480.894361825536,163751.0
63480.90446162727,163792.0
63480.91456142902,163743.0
63480.92466123076,163781.0
63480.934761032506,163772.0
63480.94486083424,163759.0
63480.95496063599,163755.0
63480.96506043773,163752.0
63480.975160239475,163788.0
63480.98526004122,163717.0
63480.99535984296,163700.0
63481.0054596447,163704.0
63481.015559446445,163667.0
63481.02565924819,163664.0
63481.03575904993,163680.0
63481.04585885167,163640.0
63481.055958653415,163627.0
63481.06605845516,163588.0
63481.0761582569,163657.0
63481.08625805864,163632.0
63481.096357860384,163615.0
63481.10645766213,163629.0
63481.11655746387,163618.0
63481.12665726562,163631.0
63481.136757067354,163626.0
63481.1468568691,163634.0
63481.15695667084,163616.0
63481.16705647259,163631.0
63481.17715627433,163633.0
63481.18725607607,163623.0
63481.19735587781,163663.0
63481.207455679556,163659.0
63481.2175554813,163660.0
63481.22765528304,163664.0
63481.23775508478,163643.0
63481.247854886526,163652.0
63481.25795468827,163673.0
63481.268054490014,163667.0
63481.27815429175,163644.0
63481.288254093495,163642.0
63481.29835389524,163623.0
63481.30845369698,163659.0
63481.31855349873,163595.0
63481.328653300465,163666.0
63481.33875310221,163626.0
63481.34885290395,163607.0
63481.3589527057,163634.0
63481.369052507434,163656.0
63481.37915230918,163645.0
63481.38925211092,163633.0
63481.39935191267,163611.0
63481.40945171441,163616.0
63481.41955151615,163644.0
63481.42965131789,163639.0
63481.43975111964,163636.0
63481.44985092138,163659.0
63481.459950723125,163663.0
63481.47005052486,163682.0
63481.480150326606,163654.0
63481.49025012835,163634.0
63481.500349930095,163671.0
63481.51044973183,163665.0
63481.520549533576,163666.0
63481.53064933532,163680.0
63481.540749137064,163680.0
63481.55084893881,163683.0
63481.560948740545,163660.0
63481.57104854229,163651.0
63481.581148344034,163682.0
63481.59124814578,163640.0
63481.60134794752,163689.0
63481.61144774926,163676.0
63481.621547551,163671.0
63481.63164735275,163682.0
63481.64174715449,163695.0
63481.65184695623,163698.0
63481.66194675797,163665.0
63481.67204655972,163648.0
63481.68214636146,163675.0
63481.692246163206,163671.0
63481.70234596494,163677.0
63481.71244576669,163708.0
63481.72254556843,163668.0
63481.732645370175,163676.0
63481.74274517192,163664.0
63481.75284497366,163648.0
63481.7629447754,163711.0
63481.773044577145,163686.0
63481.78314437889,163663.0
63481.793244180626,163668.0
63481.80334398237,163660.0
63481.813443784114,163648.0
63481.82354358586,163591.0
63481.8336433876,163597.0
63481.84374318934,163549.0
63481.853842991084,163514.0
63481.86394279283,163506.0
63481.87404259457,163522.0
63481.88414239632,163493.0
63481.894242198054,163475.0
63481.9043419998,163471.0
63481.91444180154,163495.0
63481.924541603286,163534.0
63481.93464140502,163461.0
63481.94474120677,163481.0
63481.95484100851,163504.0
63481.964940810256,163508.0
63481.975040612,163482.0
63481.98514041374,163515.0
63481.99524021548,163501.0
63482.005340017226,163505.0
63482.01543981897,163530.0
63482.025539620714,163535.0
63482.03563942245,163520.0
63482.045739224195,163516.0
63482.05583902594,163500.0
63482.06593882768,163526.0
63482.07603862942,163516.0
63482.086138431165,163518.0
63482.09623823291,163538.0
63482.10633803465,163521.0
63482.1164378364,163503.0
63482.126537638134,163504.0
63482.13663743988,163493.0
63482.14673724162,163528.0
63482.15683704337,163504.0
63482.16693684511,163516.0
63482.17703664685,163487.0
63482.18713644859,163500.0
63482.19723625034,163517.0
63482.20733605208,163495.0
63482.21743585382,163493.0
63482.22753565556,163511.0
63482.237635457306,163530.0
63482.24773525905,163519.0
63482.257835060795,163503.0
63482.26793486253,163518.0
63482.278034664276,163473.0
63482.28813446602,163525.0
63482.298234267764,163516.0
63482.30833406951,163547.0
63482.318433871245,163530.0
63482.32853367299,163551.0
63482.338633474734,163531.0
63482.34873327648,163569.0
63482.358833078215,163557.0
63482.36893287996,163568.0
63482.3790326817,163585.0
63482.38913248345,163533.0
63482.39923228519,163559.0
63482.40933208693,163577.0
63482.41943188867,163588.0
63482.42953169042,163551.0
63482.43963149216,163568.0
63482.449731293906,163593.0
63482.45983109564,163561.0
63482.46993089739,163574.0
63482.48003069913,163617.0
63482.490130500875,163597.0
63482.50023030261,163597.0
63482.51033010436,163577.0
63482.5204299061,163632.0
63482.530529707845,163602.0
63482.54062950959,163594.0
63482.550729311326,163605.0
63482.56082911307,163621.0
63482.570928914814,163623.0
63482.58102871656,163614.0
63482.5911285183,163664.0
63482.60122832004,163619.0
63482.611328121784,163638.0
63482.62142792353,163660.0
63482.63152772527,163649.0
63482.64162752701,163640.0
63482.65172732875,163656.0
63482.6618271305,163665.0
63482.67192693224,163634.0
63482.682026733986,163626.0
63482.69212653572,163606.0
63482.70222633747,163563.0
63482.71232613921,163548.0
63482.722425940956,163520.0
63482.7325257427,163516.0
63482.74262554444,163520.0
63482.75272534618,163482.0
63482.762825147925,163485.0
63482.77292494967,163525.0
63482.78302475141,163518.0
63482.79312455315,163518.0
63482.803224354895,163546.0
63482.81332415664,163529.0
63482.82342395838,163551.0
63482.83352376012,163516.0
63482.843623561865,163573.0
63482.85372336361,163541.0
63482.86382316535,163568.0
63482.8739229671,163567.0
63482.884022768834,163557.0
63482.89412257058,163578.0
63482.90422237232,163572.0
63482.91432217407,163587.0
63482.924421975804,163604.0
63482.93452177755,163563.0
63482.94462157929,163625.0
63482.95472138104,163617.0
63482.96482118278,163580.0
63482.97492098452,163584.0
63482.98502078626,163590.0
63482.995120588006,163604.0
63483.00522038975,163556.0
63483.015320191495,163617.0
63483.02541999323,163589.0
63483.035519794976,163578.0
63483.04561959672,163572.0
63483.055719398464,163582.0
63483.0658192002,163590.0
63483.075919001945,163577.0
63483.08601880369,163598.0
63483.096118605434,163580.0
63483.10621840718,163577.0
63483.116318208915,163568.0
63483.12641801066,163559.0
63483.1365178124,163605.0
63483.14661761415,163600.0
63483.156717415884,163588.0
63483.16681721763,163628.0
63483.17691701937,163583.0
63483.18701682112,163615.0
63483.19711662286,163625.0
63483.2072164246,163578.0
63483.21731622634,163591.0
63483.22741602809,163616.0
63483.23751582983,163628.0
63483.247615631575,163650.0
63483.25771543331,163616.0
63483.267815235056,163644.0
63483.2779150368,163628.0
63483.288014838545,163620.0
63483.29811464029,163633.0
63483.308214442026,163671.0
63483.31831424377,163636.0
63483.328414045514,163615.0
63483.33851384726,163644.0
63483.348613648996,163647.0
63483.35871345074,163639.0
63483.368813252484,163603.0
63483.37891305423,163671.0
63483.38901285597,163616.0
63483.39911265771,163655.0
63483.40921245945,163651.0
63483.4193122612,163686.0
63483.42941206294,163635.0
63483.43951186468,163660.0
63483.44961166642,163668.0
63483.45971146817,163677.0
63483.46981126991,163684.0
63483.479911071656,163677.0
63483.49001087339,163655.0
63483.50011067514,163634.0
63483.51021047688,163650.0
63483.520310278625,163634.0
63483.53041008037,163615.0
63483.54050988211,163562.0
63483.55060968385,163544.0
63483.560709485595,163545.0
63483.57080928734,163547.0
63483.58090908908,163506.0
63483.59100889082,163507.0
63483.601108692565,163501.0
63483.61120849431,163456.0
63483.62130829605,163457.0
63483.63140809779,163516.0
63483.641507899534,163515.0
63483.65160770128,163501.0
63483.66170750302,163548.0
63483.67180730477,163556.0
63483.681907106504,163536.0
63483.69200690825,163499.0
63483.70210670999,163527.0
63483.71220651174,163567.0
63483.72230631347,163537.0
63483.73240611522,163571.0
63483.74250591696,163576.0
63483.752605718706,163555.0
63483.76270552045,163563.0
63483.77280532219,163569.0
63483.78290512393,163553.0
63483.793004925676,163559.0
63483.80310472742,163597.0
63483.813204529164,163572.0
63483.8233043309,163563.0
63483.833404132645,163541.0
63483.84350393439,163570.0
63483.853603736134,163562.0
63483.86370353788,163580.0
63483.873803339615,163561.0
63483.88390314136,163581.0
63483.8940029431,163550.0
63483.90410274485,163548.0
63483.914202546584,163538.0
63483.92430234833,163582.0
63483.93440215007,163583.0
63483.94450195182,163546.0
63483.95460175356,163590.0
63483.9647015553,163564.0
63483.97480135704,163581.0
63483.98490115879,163574.0
63483.99500096053,163582.0
63484.00510076227,163585.0
63484.01520056401,163596.0
63484.025300365756,163607.0
63484.0354001675,163595.0
63484.045499969245,163600.0
63484.05559977098,163615.0
63484.065699572726,163617.0
63484.07579937447,163635.0
63484.085899176214,163643.0
63484.09599897796,163622.0
63484.106098779695,163598.0
63484.11619858144,163623.0
63484.126298383184,163629.0
63484.13639818493,163629.0
63484.146497986665,163626.0
63484.15659778841,163594.0
63484.16669759015,163651.0
63484.1767973919,163631.0
63484.18689719364,163638.0
63484.19699699538,163638.0
63484.20709679712,163619.0
63484.21719659887,163639.0
63484.22729640061,163646.0
63484.237396202356,163681.0
63484.24749600409,163667.0
63484.25759580584,163640.0
63484.26769560758,163661.0
63484.277795409325,163655.0
63484.28789521106,163651.0
63484.29799501281,163670.0
63484.30809481455,163663.0
63484.318194616295,163666.0
63484.32829441804,163638.0
63484.338394219776,163611.0
63484.34849402152,163639.0
63484.358593823265,163615.0
63484.36869362501,163567.0
63484.37879342675,163540.0
63484.38889322849,163532.0
63484.398993030234,163469.0
63484.40909283198,163499.0
63484.41919263372,163511.0
63484.42929243546,163472.0
63484.439392237204,163473.0
63484.44949203895,163484.0
63484.45959184069,163486.0
63484.46969164244,163514.0
63484.47979144417,163507.0
63484.48989124592,163543.0
63484.49999104766,163549.0
63484.510090849406,163538.0
63484.52019065115,163542.0
63484.53029045289,163575.0
63484.54039025463,163565.0
63484.550490056376,163530.0
63484.56058985812,163532.0
63484.57068965986,163555.0
63484.5807894616,163591.0
63484.590889263345,163568.0
63484.60098906509,163582.0
63484.61108886683,163537.0
63484.62118866857,163560.0
63484.631288470315,163560.0
63484.64138827206,163554.0
63484.6514880738,163555.0
63484.66158787555,163563.0
63484.671687677284,163526.0
63484.68178747903,163563.0
63484.69188728077,163574.0
63484.70198708252,163541.0
63484.712086884254,163544.0
63484.722186686,163540.0
63484.73228648774,163559.0
63484.74238628949,163575.0
63484.75248609123,163539.0
63484.76258589297,163557.0
63484.77268569471,163514.0
63484.782785496456,163544.0
63484.7928852982,163566.0
63484.802985099945,163576.0
63484.81308490168,163579.0
63484.823184703426,163591.0
63484.83328450517,163557.0
63484.843384306914,163588.0
63484.85348410865,163588.0
63484.863583910395,163602.0
63484.87368371214,163605.0
63484.883783513884,163656.0
63484.89388331563,163640.0
63484.903983117365,163657.0
63484.91408291911,163655.0
63484.92418272085,163674.0
63484.9342825226,163680.0
63484.94438232434,163679.0
63484.95448212608,163663.0
63484.96458192782,163686.0
63484.97468172957,163677.0
63484.98478153131,163682.0
63484.99488133305,163726.0
63485.00498113479,163687.0
63485.01508093654,163723.0
63485.02518073828,163728.0
63485.035280540025,163700.0
63485.04538034176,163720.0
63485.05548014351,163740.0
63485.06557994525,163723.0
63485.075679746995,163734.0
63485.08577954874,163722.0
63485.095879350476,163728.0
63485.10597915222,163712.0
63485.116078953964,163776.0
63485.12617875571,163725.0
63485.136278557446,163732.0
63485.14637835919,163745.0
63485.156478160934,163743.0
63485.16657796268,163729.0
63485.17667776442,163697.0
63485.18677756616,163690.0
63485.196877367904,163671.0
63485.20697716965,163635.0
63485.21707697139,163594.0
63485.227176773136,163543.0
63485.23727657487,163535.0
63485.24737637662,163524.0
63485.25747617836,163541.0
63485.267575980106,163499.0
63485.27767578184,163510.0
63485.28777558359,163542.0
63485.29787538533,163558.0
63485.307975187075,163550.0
63485.31807498882,163552.0
63485.32817479056,163576.0
63485.3382745923,163586.0
63485.348374394045,163595.0
63485.35847419579,163617.0
63485.36857399753,163560.0
63485.37867379927,163608.0
63485.388773601015,163594.0
63485.39887340276,163629.0
63485.4089732045,163629.0
63485.41907300624,163620.0
63485.429172807984,163615.0
63485.43927260973,163648.0
63485.44937241147,163624.0
63485.45947221322,163626.0
63485.469572014954,163613.0
63485.4796718167,163566.0
63485.48977161844,163583.0
63485.49987142019,163626.0
63485.50997122193,163663.0
63485.52007102367,163658.0
63485.53017082541,163630.0
63485.540270627156,163648.0
63485.5503704289,163681.0
63485.56047023064,163621.0
63485.57057003238,163653.0
63485.580669834126,163658.0
63485.59076963587,163657.0
63485.600869437614,163640.0
63485.61096923935,163687.0
63485.621069041095,163689.0
63485.63116884284,163666.0
63485.641268644584,163653.0
63485.65136844633,163675.0
63485.661468248065,163653.0
63485.67156804981,163693.0
63485.68166785155,163699.0
63485.6917676533,163710.0
63485.701867455035,163664.0
63485.71196725678,163707.0
63485.72206705852,163690.0
63485.73216686027,163708.0
63485.74226666201,163696.0
63485.75236646375,163746.0
63485.76246626549,163731.0
63485.77256606724,163739.0
63485.78266586898,163705.0
63485.792765670725,163723.0
63485.80286547246,163711.0
63485.81296527421,163713.0
63485.82306507595,163735.0
63485.833164877695,163736.0
63485.84326467943,163709.0
63485.853364481176,163712.0
63485.86346428292,163761.0
63485.873564084664,163742.0
63485.88366388641,163710.0
63485.893763688146,163777.0
63485.90386348989,163765.0
63485.913963291634,163748.0
63485.92406309338,163744.0
63485.93416289512,163769.0
63485.94426269686,163772.0
63485.9543624986,163774.0
63485.96446230035,163779.0
63485.97456210209,163794.0
63485.98466190383,163775.0
63485.99476170557,163769.0
63486.00486150732,163781.0
63486.01496130906,163765.0
63486.025061110806,163728.0
63486.03516091254,163743.0
63486.04526071429,163737.0
63486.05536051603,163700.0
63486.065460317775,163678.0
63486.07556011952,163655.0
63486.08565992126,163676.0
63486.095759723,163585.0
63486.105859524745,163574.0
63486.11595932649,163587.0
63486.126059128226,163579.0
63486.13615892997,163580.0
63486.146258731715,163577.0
63486.15635853346,163599.0
63486.1664583352,163607.0
63486.17655813694,163603.0
63486.186657938684,163649.0
63486.19675774043,163617.0
63486.20685754217,163626.0
63486.21695734392,163608.0
63486.227057145654,163653.0
63486.2371569474,163631.0
63486.24725674914,163656.0
63486.25735655089,163644.0
63486.26745635262,163624.0
63486.27755615437,163633.0
63486.28765595611,163656.0
63486.297755757856,163682.0
63486.3078555596,163670.0
63486.31795536134,163641.0
63486.32805516308,163678.0
63486.338154964826,163642.0
63486.34825476657,163669.0
63486.358354568314,163655.0
63486.36845437005,163643.0
63486.378554171795,163644.0
63486.38865397354,163650.0
63486.398753775284,163667.0
63486.40885357702,163651.0
63486.418953378765,163616.0
63486.42905318051,163637.0
63486.43915298225,163648.0
63486.449252784,163661.0
63486.459352585734,163680.0
63486.46945238748,163683.0
63486.47955218922,163684.0
63486.48965199097,163680.0
63486.49975179271,163666.0
63486.50985159445,163649.0
63486.51995139619,163711.0
63486.53005119794,163695.0
63486.54015099968,163689.0
63486.55025080142,163722.0
63486.56035060316,163657.0
63486.570450404906,163707.0
63486.58055020665,163703.0
63486.590650008395,163693.0
63486.60074981013,163698.0
63486.610849611876,163701.0
63486.62094941362,163695.0
63486.631049215364,163696.0
63486.64114901711,163696.0
63486.651248818845,163742.0
63486.66134862059,163730.0
63486.671448422334,163701.0
63486.68154822408,163736.0
63486.691648025815,163717.0
63486.70174782756,163720.0
63486.7118476293,163730.0
63486.72194743105,163724.0
63486.73204723279,163740.0
63486.74214703453,163767.0
63486.75224683627,163726.0
63486.76234663802,163783.0
63486.77244643976,163737.0
63486.782546241506,163768.0
63486.79264604324,163759.0
63486.80274584499,163771.0
63486.81284564673,163750.0
63486.822945448475,163765.0
63486.83304525021,163764.0
63486.84314505196,163784.0
63486.8532448537,163736.0
63486.863344655445,163761.0
63486.87344445719,163727.0
63486.883544258926,163724.0
63486.89364406067,163734.0
63486.903743862415,163697.0
63486.91384366416,163659.0
63486.9239434659,163636.0
63486.93404326764,163620.0
63486.944143069384,163624.0
63486.95424287113,163578.0
63486.96434267287,163605.0
63486.97444247461,163652.0
63486.984542276354,163629.0
63486.9946420781,163642.0
63487.00474187984,163607.0
63487.01484168159,163669.0
63487.02494148332,163658.0
63487.03504128507,163648.0
63487.04514108681,163648.0
63487.055240888556,163698.0
63487.0653406903,163676.0
63487.07544049204,163679.0
63487.08554029378,163735.0
63487.095640095526,163695.0
63487.10573989727,163687.0
63487.11583969901,163701.0
63487.12593950075,163727.0
63487.136039302495,163721.0
63487.14613910424,163723.0
63487.15623890598,163714.0
63487.16633870772,163728.0
63487.176438509465,163689.0
63487.18653831121,163717.0
63487.19663811295,163690.0
63487.20673791469,163689.0
63487.216837716434,163682.0
63487.22693751818,163693.0
63487.23703731992,163688.0
63487.24713712167,163717.0
63487.257236923404,163671.0
63487.26733672515,163706.0
63487.27743652689,163689.0
63487.28753632864,163688.0
63487.29763613038,163685.0
63487.30773593212,163717.0
63487.31783573386,163704.0
63487.327935535606,163705.0
63487.33803533735,163730.0
63487.348135139095,163703.0
63487.35823494083,163691.0
63487.368334742576,163677.0
63487.37843454432,163737.0
63487.388534346064,163712.0
63487.3986341478,163735.0
63487.408733949545,163731.0
63487.41883375129,163723.0
63487.428933553034,163726.0
63487.43903335478,163737.0
63487.449133156515,163754.0
63487.45923295826,163761.0
63487.46933276,163716.0
63487.47943256175,163754.0
63487.489532363485,163781.0
63487.49963216523,163749.0
63487.50973196697,163763.0
63487.51983176872,163762.0
63487.52993157046,163766.0
63487.5400313722,163754.0
63487.55013117394,163770.0
63487.56023097569,163776.0
63487.57033077743,163778.0
63487.580430579175,163745.0
63487.59053038091,163800.0
63487.60063018266,163821.0
63487.6107299844,163793.0
63487.620829786145,163802.0
63487.63092958789,163786.0
63487.641029389626,163765.0
63487.65112919137,163760.0
63487.661228993114,163754.0
63487.67132879486,163731.0
63487.681428596596,163703.0
63487.69152839834,163731.0
63487.701628200084,163707.0
63487.71172800183,163647.0
63487.72182780357,163650.0
63487.73192760531,163661.0
63487.742027407054,163649.0
63487.7521272088,163646.0
63487.76222701054,163659.0
63487.77232681228,163642.0
63487.78242661402,163659.0
63487.79252641577,163621.0
63487.80262621751,163669.0
63487.812726019256,163682.0
63487.82282582099,163678.0
63487.83292562274,163646.0
63487.84302542448,163675.0
63487.853125226226,163686.0
63487.86322502797,163687.0
63487.87332482971,163681.0
63487.88342463145,163697.0
63487.893524433195,163683.0
63487.90362423494,163698.0
63487.91372403668,163727.0
63487.92382383842,163716.0
63487.933923640165,163723.0
63487.94402344191,163683.0
63487.95412324365,163722.0
63487.96422304539,163685.0
63487.974322847134,163704.0
63487.98442264888,163690.0
63487.99452245062,163706.0
63488.00462225237,163708.0
63488.014722054104,163719.0
63488.02482185585,163735.0
63488.03492165759,163714.0
63488.04502145934,163710.0
63488.05512126107,163700.0
63488.06522106282,163696.0
63488.07532086456,163745.0
63488.085420666306,163713.0
63488.09552046805,163709.0
63488.10562026979,163733.0
63488.11572007153,163753.0
63488.125819873276,163733.0
63488.13591967502,163735.0
63488.146019476764,163733.0
63488.1561192785,163745.0
63488.166219080245,163727.0
63488.17631888199,163755.0
63488.186418683734,163757.0
63488.19651848547,163746.0
63488.206618287215,163755.0
63488.21671808896,163746.0
63488.2268178907,163751.0
63488.23691769245,163760.0
63488.247017494185,163734.0
63488.25711729593,163749.0
63488.26721709767,163770.0
63488.27731689942,163748.0
63488.28741670116,163780.0
63488.2975165029,163713.0
63488.30761630464,163770.0
63488.31771610639,163782.0
63488.32781590813,163754.0
63488.33791570987,163800.0
63488.34801551161,163784.0
63488.35811531336,163773.0
63488.3682151151,163787.0
63488.378314916845,163793.0
63488.38841471858,163776.0
63488.398514520326,163778.0
63488.40861432207,163775.0
63488.418714123814,163772.0
63488.42881392556,163711.0
63488.438913727296,163686.0
63488.44901352904,163691.0
63488.459113330784,163679.0
63488.46921313253,163648.0
63488.479312934265,163661.0
63488.48941273601,163596.0
63488.49951253775,163661.0
63488.5096123395,163627.0
63488.51971214124,163592.0
63488.52981194298,163661.0
63488.53991174472,163641.0
63488.55001154647,163615.0
63488.56011134821,163659.0
63488.570211149956,163600.0
63488.58031095169,163672.0
63488.59041075344,163635.0
63488.60051055518,163657.0
63488.610610356925,163634.0
63488.62071015866,163647.0
63488.63080996041,163657.0
63488.64090976215,163672.0
63488.651009563895,163669.0
63488.66110936564,163668.0
63488.671209167376,163695.0
63488.68130896912,163686.0
63488.691408770865,163668.0
63488.70150857261,163658.0
63488.71160837435,163661.0
63488.72170817609,163668.0
63488.731807977834,163656.0
63488.74190777958,163638.0
63488.75200758132,163677.0
63488.76210738306,163652.0
63488.772207184804,163659.0
63488.78230698655,163668.0
63488.79240678829,163673.0
63488.80250659004,163660.0
63488.81260639177,163628.0
63488.82270619352,163679.0
63488.83280599526,163648.0
63488.842905797006,163661.0
63488.85300559875,163655.0
63488.86310540049,163676.0
63488.87320520223,163645.0
63488.883305003976,163672.0
63488.89340480572,163674.0
63488.90350460746,163700.0
63488.9136044092,163685.0
63488.923704210945,163677.0
63488.93380401269,163655.0
63488.943903814434,163673.0
63488.95400361617,163688.0
63488.964103417915,163688.0
63488.97420321966,163704.0
63488.9843030214,163663.0
63488.99440282315,163717.0
63489.004502624884,163688.0
63489.01460242663,163686.0
63489.02470222837,163664.0
63489.03480203012,163683.0
63489.044901831854,163658.0
63489.0550016336,163683.0
63489.06510143534,163695.0
63489.07520123709,163717.0
63489.08530103883,163660.0
63489.09540084057,163682.0
63489.10550064231,163665.0
63489.115600444056,163689.0
63489.1257002458,163666.0
63489.135800047545,163690.0
63489.14589984928,163691.0
63489.155999651026,163653.0
63489.16609945277,163637.0
63489.176199254514,163657.0
63489.18629905625,163647.0
63489.196398857996,163578.0
63489.20649865974,163579.0
63489.216598461484,163537.0
63489.22669826323,163487.0
63489.236798064965,163528.0
63489.24689786671,163547.0
63489.25699766845,163548.0
63489.2670974702,163577.0
63489.27719727194,163562.0
63489.28729707368,163600.0
63489.29739687542,163592.0
63489.30749667717,163604.0
63489.31759647891,163628.0
63489.32769628065,163663.0
63489.33779608239,163661.0
63489.34789588414,163654.0
63489.35799568588,163697.0
63489.368095487625,163642.0
63489.37819528936,163646.0
63489.38829509111,163629.0
63489.39839489285,163662.0
63489.408494694595,163646.0
63489.41859449634,163689.0
63489.428694298076,163724.0
63489.43879409982,163699.0
63489.448893901565,163701.0
63489.45899370331,163718.0
63489.469093505046,163685.0
63489.47919330679,163720.0
63489.489293108534,163697.0
63489.49939291028,163700.0
63489.50949271202,163698.0
63489.51959251376,163675.0
63489.529692315504,163683.0
63489.53979211725,163678.0
63489.54989191899,163699.0
63489.55999172074,163687.0
63489.57009152247,163731.0
63489.58019132422,163677.0
63489.59029112596,163711.0
63489.600390927706,163686.0
63489.61049072944,163720.0
63489.62059053119,163690.0
63489.63069033293,163673.0
63489.640790134676,163685.0
63489.65088993642,163675.0
63489.66098973816,163692.0
63489.6710895399,163711.0
63489.681189341645,163722.0
63489.69128914339,163722.0
63489.701388945134,163696.0
63489.71148874687,163699.0
63489.721588548615,163717.0
63489.73168835036,163711.0
63489.7417881521,163698.0
63489.75188795384,163712.0
63489.761987755584,163744.0
63489.77208755733,163690.0
63489.78218735907,163690.0
63489.79228716082,163709.0
63489.802386962554,163722.0
63489.8124867643,163689.0
63489.82258656604,163690.0
63489.83268636779,163719.0
63489.84278616953,163723.0
63489.85288597127,163710.0
63489.86298577301,163733.0
63489.873085574756,163722.0
63489.8831853765,163714.0
63489.89328517824,163761.0
63489.90338497998,163763.0
63489.913484781726,163740.0
63489.92358458347,163739.0
63489.933684385214,163780.0
63489.94378418695,163731.0
63489.953883988695,163737.0
63489.96398379044,163686.0
63489.974083592184,163702.0
63489.98418339393,163678.0
63489.994283195665,163665.0
63490.00438299741,163636.0
63490.01448279915,163592.0
63490.0245826009,163587.0
63490.034682402635,163628.0
63490.04478220438,163596.0
63490.05488200612,163597.0
63490.06498180787,163606.0
63490.07508160961,163625.0
63490.08518141135,163622.0
63490.09528121309,163602.0
63490.10538101484,163612.0
63490.11548081658,163638.0
63490.125580618325,163621.0
63490.13568042006,163617.0
63490.14578022181,163647.0
63490.15588002355,163635.0
63490.165979825295,163599.0
63490.17607962703,163632.0
63490.186179428776,163610.0
63490.19627923052,163630.0
63490.206379032265,163642.0
63490.21647883401,163686.0
63490.226578635746,163660.0
63490.23667843749,163628.0
63490.246778239234,163647.0
63490.25687804098,163622.0
63490.26697784272,163628.0
63490.27707764446,163647.0
63490.287177446204,163651.0
63490.29727724795,163607.0
63490.30737704969,163614.0
63490.31747685143,163642.0
63490.32757665317,163648.0
63490.33767645492,163667.0
63490.34777625666,163655.0
63490.357876058406,163668.0
63490.36797586014,163657.0
63490.37807566189,163658.0
63490.38817546363,163652.0
63490.398275265376,163701.0
63490.40837506712,163669.0
63490.41847486886,163676.0
63490.4285746706,163676.0
63490.438674472345,163706.0
63490.44877427409,163671.0
63490.458874075826,163692.0
63490.46897387757,163680.0
63490.479073679315,163669.0
63490.48917348106,163695.0
63490.4992732828,163703.0
63490.50937308454,163721.0
63490.519472886284,163728.0
63490.52957268803,163705.0
63490.53967248977,163720.0
63490.54977229152,163730.0
63490.559872093254,163692.0
63490.569971895,163739.0
63490.58007169674,163705.0
63490.59017149849,163699.0
63490.60027130022,163697.0
63490.61037110197,163676.0
63490.62047090371,163692.0
63490.630570705456,163708.0
63490.6406705072,163668.0
63490.65077030894,163692.0
63490.66087011068,163670.0
63490.670969912426,163675.0
63490.68106971417,163696.0
63490.691169515914,163642.0
63490.70126931765,163661.0
63490.711369119395,163675.0
63490.72146892114,163682.0
63490.731568722884,163682.0
63490.74166852462,163659.0
63490.751768326365,163648.0
63490.76186812811,163673.0
63490.77196792985,163627.0
63490.7820677316,163634.0
63490.792167533335,163604.0
63490.80226733508,163608.0
63490.81236713682,163618.0
63490.82246693857,163629.0
63490.83256674031,163642.0
63490.84266654205,163653.0
63490.85276634379,163625.0
63490.86286614554,163662.0
63490.87296594728,163676.0
63490.88306574902,163655.0
63490.89316555076,163686.0
63490.90326535251,163696.0
63490.91336515425,163703.0
63490.923464955995,163689.0
63490.93356475773,163710.0
63490.943664559476,163718.0
63490.95376436122,163724.0
63490.963864162964,163690.0
63490.97396396471,163726.0
63490.984063766446,163700.0
63490.99416356819,163729.0
63491.004263369934,163739.0
63491.01436317168,163734.0
63491.024462973415,163711.0
63491.03456277516,163723.0
63491.044662576904,163684.0
63491.05476237865,163734.0
63491.06486218039,163716.0
63491.07496198213,163727.0
63491.08506178387,163717.0
63491.09516158562,163694.0
63491.10526138736,163690.0
63491.115361189106,163722.0
63491.12546099084,163746.0
63491.13556079259,163750.0
63491.14566059433,163720.0
63491.155760396075,163753.0
63491.16586019781,163784.0
63491.17595999956,163746.0
63491.1860598013,163779.0
63491.196159603045,163762.0
63491.20625940479,163759.0
63491.216359206526,163790.0
63491.22645900827,163742.0
63491.236558810015,163785.0
63491.24665861176,163759.0
63491.256758413496,163738.0
63491.26685821524,163756.0
63491.276958016984,163761.0
63491.28705781873,163784.0
63491.29715762047,163792.0
63491.30725742221,163745.0
63491.317357223954,163764.0
63491.3274570257,163762.0
63491.33755682744,163749.0
63491.34765662919,163765.0
63491.35775643092,163795.0
63491.36785623267,163776.0
63491.37795603441,163793.0
63491.388055836156,163790.0
63491.3981556379,163797.0
63491.40825543964,163762.0
63491.41835524138,163761.0
63491.428455043126,163819.0
63491.43855484487,163808.0
63491.44865464661,163798.0
63491.45875444835,163811.0
63491.468854250095,163782.0
63491.47895405184,163777.0
63491.489053853584,163733.0
63491.49915365532,163697.0
63491.509253457065,163696.0
63491.51935325881,163704.0
63491.52945306055,163677.0
63491.53955286229,163655.0
63491.549652664035,163660.0
63491.55975246578,163665.0
63491.56985226752,163675.0
63491.57995206927,163712.0
63491.590051871004,163665.0
63491.60015167275,163700.0
63491.61025147449,163695.0
63491.62035127624,163728.0
63491.63045107798,163671.0
63491.64055087972,163641.0
63491.65065068146,163710.0
63491.660750483206,163691.0
63491.67085028495,163727.0
63491.680950086695,163721.0
63491.69104988843,163725.0
63491.701149690176,163751.0
63491.71124949192,163713.0
63491.721349293664,163727.0
63491.7314490954,163733.0
63491.741548897146,163738.0
63491.75164869889,163753.0
63491.761748500634,163716.0
63491.77184830238,163747.0
63491.781948104115,163729.0
63491.79204790586,163742.0
63491.8021477076,163737.0
63491.81224750935,163732.0
63491.822347311085,163725.0
63491.83244711283,163730.0
63491.84254691457,163741.0
63491.85264671632,163734.0
63491.86274651806,163735.0
63491.8728463198,163715.0
63491.88294612154,163751.0
63491.89304592329,163726.0
63491.90314572503,163698.0
63491.913245526775,163719.0
63491.92334532851,163708.0
63491.93344513026,163703.0
63491.943544932,163729.0
63491.953644733745,163722.0
63491.96374453549,163755.0
63491.973844337226,163771.0
63491.98394413897,163750.0
63491.994043940715,163732.0
63492.00414374246,163759.0
63492.014243544196,163739.0
63492.02434334594,163766.0
63492.034443147684,163786.0
63492.04454294943,163754.0
63492.05464275117,163757.0
63492.06474255291,163801.0
63492.074842354654,163816.0
63492.0849421564,163791.0
63492.09504195814,163793.0
63492.10514175988,163797.0
63492.11524156162,163791.0
63492.12534136337,163818.0
63492.13544116511,163818.0
63492.145540966856,163790.0
63492.15564076859,163777.0
63492.16574057034,163763.0
63492.17584037208,163716.0
63492.185940173826,163707.0
63492.19603997557,163692.0
63492.20613977731,163670.0
63492.21623957905,163663.0
63492.226339380795,163668.0
63492.23643918254,163675.0
63492.24653898428,163657.0
63492.25663878602,163665.0
63492.266738587765,163672.0
63492.27683838951,163664.0
63492.28693819125,163688.0
63492.29703799299,163640.0
63492.307137794734,163698.0
63492.31723759648,163701.0
63492.32733739822,163676.0
63492.33743719997,163691.0
63492.347537001704,163690.0
63492.35763680345,163695.0
63492.36773660519,163687.0
63492.37783640694,163714.0
63492.38793620867,163720.0
63492.39803601042,163719.0
63492.40813581216,163726.0
63492.418235613906,163723.0
63492.42833541565,163700.0
63492.43843521739,163732.0
63492.44853501913,163699.0
63492.458634820876,163740.0
63492.46873462262,163684.0
63492.478834424364,163709.0
63492.4889342261,163677.0
63492.499034027845,163737.0
63492.50913382959,163710.0
63492.519233631334,163723.0
63492.52933343307,163704.0
63492.539433234815,163711.0
63492.54953303656,163705.0
63492.5596328383,163721.0
63492.56973264005,163748.0
63492.579832441785,163715.0
63492.58993224353,163730.0
63492.60003204527,163724.0
63492.61013184702,163721.0
63492.62023164876,163715.0
63492.6303314505,163754.0
63492.64043125224,163749.0
63492.65053105399,163764.0
63492.66063085573,163727.0
63492.67073065747,163790.0
63492.68083045921,163764.0
63492.69093026096,163777.0
63492.7010300627,163770.0
63492.711129864445,163795.0
63492.72122966618,163758.0
63492.731329467926,163743.0
63492.74142926967,163800.0
63492.751529071415,163785.0
63492.76162887316,163785.0
63492.771728674896,163768.0
63492.78182847664,163805.0
63492.791928278384,163770.0
63492.80202808013,163802.0
63492.812127881865,163793.0
63492.82222768361,163796.0
63492.832327485354,163789.0
63492.8424272871,163787.0
63492.85252708884,163756.0
63492.86262689058,163788.0
63492.87272669232,163754.0
63492.88282649407,163741.0
63492.89292629581,163713.0
63492.903026097556,163676.0
63492.91312589929,163650.0
63492.92322570104,163692.0
63492.93332550278,163646.0
63492.943425304526,163667.0
63492.95352510626,163651.0
63492.96362490801,163639.0
63492.97372470975,163615.0
63492.983824511495,163628.0
63492.99392431324,163676.0
63493.004024114976,163638.0
63493.01412391672,163660.0
63493.024223718465,163654.0
63493.03432352021,163643.0
63493.04442332195,163638.0
63493.05452312369,163663.0
63493.064622925434,163672.0
63493.07472272718,163687.0
63493.08482252892,163669.0
63493.09492233066,163667.0
63493.105022132404,163711.0
63493.11512193415,163682.0
63493.12522173589,163668.0
63493.13532153764,163675.0
63493.14542133937,163691.0
63493.15552114112,163659.0
63493.16562094286,163674.0
63493.175720744606,163659.0
63493.18582054635,163664.0
63493.19592034809,163635.0
63493.20602014983,163658.0
63493.216119951576,163662.0
63493.22621975332,163647.0
63493.23631955506,163701.0
63493.2464193568,163655.0
63493.256519158545,163673.0
63493.26661896029,163649.0
63493.276718762034,163655.0
63493.28681856377,163701.0
63493.296918365515,163677.0
63493.30701816726,163670.0
63493.317117969,163681.0
63493.32721777075,163670.0
63493.337317572485,163699.0
63493.34741737423,163680.0
63493.35751717597,163713.0
63493.36761697772,163684.0
63493.377716779454,163668.0
63493.3878165812,163715.0
63493.39791638294,163719.0
63493.40801618469,163707.0
63493.41811598643,163736.0
63493.42821578817,163719.0
63493.43831558991,163727.0
63493.44841539166,163726.0
63493.4585151934,163735.0
63493.468614995145,163720.0
63493.47871479688,163711.0
63493.488814598626,163740.0
63493.49891440037,163747.0
63493.509014202114,163726.0
63493.51911400385,163708.0
63493.529213805596,163743.0
63493.53931360734,163732.0
63493.549413409084,163749.0
63493.55951321083,163734.0
63493.569613012565,163756.0
63493.57971281431,163741.0
63493.589812616054,163774.0
63493.5999124178,163799.0
63493.61001221954,163788.0
63493.62011202128,163768.0
63493.63021182302,163748.0
63493.64031162477,163731.0
63493.65041142651,163710.0
63493.66051122825,163667.0
63493.67061102999,163643.0
63493.68071083174,163630.0
63493.69081063348,163593.0
63493.700910435226,163582.0
63493.71101023696,163609.0
63493.72111003871,163642.0
63493.73120984045,163616.0
63493.741309642195,163632.0
63493.75140944394,163635.0
63493.761509245676,163612.0
63493.77160904742,163611.0
63493.781708849165,163647.0
63493.79180865091,163635.0
63493.801908452646,163640.0
63493.81200825439,163619.0
63493.822108056134,163660.0
63493.83220785788,163664.0
63493.84230765962,163639.0
63493.85240746136,163695.0
63493.862507263104,163691.0
63493.87260706485,163649.0
63493.88270686659,163679.0
63493.89280666834,163695.0
63493.90290647007,163686.0
63493.91300627182,163650.0
63493.92310607356,163671.0
63493.933205875306,163663.0
63493.94330567704,163650.0
63493.95340547879,163701.0
63493.96350528053,163687.0
63493.973605082276,163677.0
63493.98370488402,163667.0
63493.99380468576,163692.0
63494.0039044875,163686.0
63494.014004289245,163716.0
63494.02410409099,163706.0
63494.034203892734,163685.0
63494.04430369447,163675.0
63494.054403496215,163714.0
63494.06450329796,163675.0
63494.0746030997,163718.0
63494.08470290144,163695.0
63494.094802703185,163681.0
63494.10490250493,163732.0
63494.11500230667,163699.0
63494.12510210842,163721.0
63494.135201910154,163715.0
63494.1453017119,163754.0
63494.15540151364,163731.0
63494.16550131539,163747.0
63494.17560111713,163745.0
63494.18570091887,163734.0
63494.19580072061,163731.0
63494.20590052236,163752.0
63494.2160003241,163750.0
63494.22610012584,163748.0
63494.23619992758,163756.0
63494.246299729326,163765.0
63494.25639953107,163729.0
63494.266499332814,163757.0
63494.27659913455,163758.0
63494.286698936296,163773.0
63494.29679873804,163787.0
63494.306898539784,163743.0
63494.31699834153,163785.0
63494.327098143265,163780.0
63494.33719794501,163793.0
63494.34729774675,163788.0
63494.3573975485,163787.0
63494.367497350235,163783.0
63494.37759715198,163798.0
63494.38769695372,163790.0
63494.39779675547,163816.0
63494.40789655721,163777.0
63494.41799635895,163799.0
63494.42809616069,163766.0
63494.43819596244,163744.0
63494.44829576418,163755.0
63494.458395565925,163741.0
63494.46849536766,163707.0
63494.47859516941,163675.0
63494.48869497115,163678.0
63494.498794772895,163662.0
63494.50889457463,163673.0
63494.518994376376,163641.0
63494.52909417812,163623.0
63494.539193979865,163658.0
63494.54929378161,163632.0
63494.559393583346,163660.0
63494.56949338509,163700.0
63494.579593186834,163652.0
63494.58969298858,163667.0
63494.59979279032,163665.0
63494.60989259206,163678.0
63494.619992393804,163711.0
63494.63009219555,163688.0
63494.64019199729,163730.0
63494.65029179903,163691.0
63494.66039160077,163697.0
63494.67049140252,163712.0
63494.68059120426,163723.0
63494.690691006006,163727.0
63494.70079080774,163718.0
63494.71089060949,163740.0
63494.72099041123,163727.0
63494.731090212976,163731.0
63494.74119001472,163703.0
63494.75128981646,163723.0
63494.7613896182,163686.0
63494.771489419945,163704.0
63494.78158922169,163720.0
63494.79168902343,163699.0
63494.80178882517,163761.0
63494.811888626915,163717.0
63494.82198842866,163721.0
63494.8320882304,163728.0
63494.84218803214,163719.0
63494.852287833884,163724.0
63494.86238763563,163702.0
63494.87248743737,163729.0
63494.88258723912,163737.0
63494.892687040854,163709.0
63494.9027868426,163767.0
63494.91288664434,163747.0
63494.92298644609,163742.0
63494.933086247824,163739.0
63494.94318604957,163735.0
63494.95328585131,163762.0
63494.963385653056,163766.0
63494.9734854548,163747.0
63494.98358525654,163731.0
63494.99368505828,163770.0
63495.003784860026,163763.0
63495.01388466177,163744.0
63495.023984463514,163775.0
63495.03408426525,163794.0
63495.044184066996,163776.0
63495.05428386874,163793.0
63495.064383670484,163782.0
63495.07448347222,163807.0
63495.084583273965,163767.0
63495.09468307571,163784.0
63495.10478287745,163818.0
63495.1148826792,163805.0
63495.124982480935,163781.0
63495.13508228268,163771.0
63495.14518208442,163793.0
63495.15528188617,163812.0
63495.16538168791,163833.0
63495.17548148965,163802.0
63495.18558129139,163814.0
63495.19568109314,163799.0
63495.20578089488,163838.0
63495.21588069662,163819.0
63495.22598049836,163838.0
63495.23608030011,163818.0
63495.24618010185,163830.0
63495.256279903595,163776.0
63495.26637970533,163786.0
63495.276479507076,163744.0
63495.28657930882,163733.0
63495.296679110565,163696.0
63495.3067789123,163706.0
63495.316878714046,163656.0
63495.32697851579,163673.0
63495.337078317534,163686.0
63495.34717811928,163679.0
63495.357277921015,163710.0
63495.36737772276,163693.0
63495.377477524504,163651.0
63495.38757732625,163692.0
63495.39767712799,163728.0
63495.40777692973,163713.0
63495.41787673147,163707.0
63495.42797653322,163698.0
63495.43807633496,163718.0
63495.448176136706,163725.0
63495.45827593844,163736.0
63495.46837574019,163740.0
63495.47847554193,163775.0
63495.488575343676,163745.0
63495.49867514541,163777.0
63495.50877494716,163745.0
63495.5188747489,163776.0
63495.528974550645,163743.0
63495.53907435239,163721.0
63495.54917415413,163743.0
63495.55927395587,163716.0
63495.569373757615,163733.0
63495.57947355936,163720.0
63495.589573361096,163738.0
63495.59967316284,163731.0
63495.609772964584,163729.0
63495.61987276633,163739.0
63495.62997256807,163765.0
63495.64007236981,163727.0
63495.650172171554,163764.0
63495.6602719733,163764.0
63495.67037177504,163741.0
63495.68047157679,163764.0
63495.69057137852,163764.0
63495.70067118027,163768.0
63495.71077098201,163778.0
63495.720870783756,163790.0
63495.7309705855,163787.0
63495.74107038724,163798.0
63495.75117018898,163771.0
63495.761269990726,163815.0
63495.77136979247,163793.0
63495.78146959421,163785.0
63495.79156939595,163811.0
63495.801669197695,163810.0
63495.81176899944,163800.0
63495.821868801184,163815.0
63495.83196860292,163822.0
63495.842068404665,163819.0
63495.85216820641,163815.0
63495.86226800815,163823.0
63495.87236780989,163829.0
63495.882467611635,163804.0
63495.89256741338,163834.0
63495.90266721512,163844.0
63495.91276701687,163834.0
63495.922866818604,163834.0
63495.93296662035,163847.0
63495.94306642209,163868.0
63495.95316622384,163897.0
63495.96326602558,163840.0
63495.97336582732,163885.0
63495.98346562906,163859.0
63495.99356543081,163852.0
63496.00366523255,163842.0
63496.013765034295,163839.0
63496.02386483603,163847.0
63496.033964637776,163826.0
63496.04406443952,163831.0
63496.054164241265,163785.0
63496.064264043,163760.0
63496.074363844746,163711.0
63496.08446364649,163760.0
63496.094563448234,163742.0
63496.10466324998,163745.0
63496.114763051715,163736.0
63496.12486285346,163740.0
63496.134962655204,163739.0
63496.14506245695,163763.0
63496.155162258685,163776.0
63496.16526206043,163793.0
63496.17536186217,163766.0
63496.18546166392,163798.0
63496.19556146566,163786.0
63496.2056612674,163779.0
63496.21576106914,163823.0
63496.22586087089,163822.0
63496.23596067263,163832.0
63496.246060474376,163803.0
63496.25616027611,163841.0
63496.26626007786,163832.0
63496.2763598796,163835.0
63496.286459681345,163824.0
63496.29655948308,163822.0
63496.306659284826,163817.0
63496.31675908657,163803.0
63496.326858888315,163850.0
63496.33695869006,163866.0
63496.347058491796,163804.0
63496.35715829354,163838.0
63496.367258095284,163845.0
63496.37735789703,163849.0
63496.38745769877,163840.0
63496.39755750051,163831.0
63496.407657302254,163858.0
63496.417757104,163831.0
63496.42785690574,163822.0
63496.43795670748,163859.0
63496.44805650922,163878.0
63496.45815631097,163835.0
63496.46825611271,163851.0
63496.478355914456,163873.0
63496.48845571619,163882.0
63496.49855551794,163858.0
63496.50865531968,163902.0
63496.518755121426,163886.0
63496.52885492317,163873.0
63496.53895472491,163890.0
63496.54905452665,163904.0
63496.559154328395,163900.0
63496.56925413014,163903.0
63496.57935393188,163885.0
63496.58945373362,163904.0
63496.599553535365,163893.0
63496.60965333711,163888.0
63496.61975313885,163925.0
63496.62985294059,163901.0
63496.639952742335,163904.0
63496.65005254408,163899.0
63496.66015234582,163902.0
63496.67025214757,163942.0
63496.680351949304,163930.0
63496.69045175105,163934.0
63496.70055155279,163953.0
63496.71065135454,163927.0
63496.720751156274,163931.0
63496.73085095802,163921.0
63496.74095075976,163902.0
63496.75105056151,163920.0
63496.76115036325,163950.0
63496.77125016499,163933.0
63496.78134996673,163932.0
63496.791449768476,163891.0
63496.80154957022,163936.0
63496.811649371964,163907.0
63496.8217491737,163858.0
63496.831848975446,163872.0
63496.84194877719,163831.0
63496.852048578934,163835.0
63496.86214838067,163806.0
63496.872248182415,163804.0
63496.88234798416,163831.0
63496.892447785904,163817.0
63496.90254758765,163820.0
63496.912647389385,163844.0
63496.92274719113,163792.0
63496.93284699287,163821.0
63496.94294679462,163852.0
63496.95304659636,163848.0
63496.9631463981,163826.0
63496.97324619984,163840.0
63496.98334600159,163877.0
63496.99344580333,163822.0
63497.00354560507,163841.0
63497.01364540681,163854.0
63497.02374520856,163894.0
63497.0338450103,163884.0
63497.043944812045,163885.0
63497.05404461378,163869.0
63497.064144415526,163888.0
63497.07424421727,163837.0
63497.084344019015,163846.0
63497.09444382076,163863.0
63497.104543622496,163851.0
63497.11464342424,163826.0
63497.124743225984,163830.0
63497.13484302773,163843.0
63497.144942829465,163832.0
63497.15504263121,163828.0
63497.165142432954,163880.0
63497.1752422347,163848.0
63497.18534203644,163847.0
63497.19544183818,163837.0
63497.20554163992,163850.0
63497.21564144167,163863.0
63497.22574124341,163840.0
63497.235841045156,163859.0
63497.24594084689,163842.0
63497.25604064864,163856.0
63497.26614045038,163842.0
63497.276240252126,163883.0
63497.28634005386,163889.0
63497.29643985561,163864.0
63497.30653965735,163880.0
63497.316639459095,163896.0
63497.32673926084,163897.0
63497.33683906258,163891.0
63497.34693886432,163891.0
63497.357038666065,163873.0
63497.36713846781,163896.0
63497.37723826955,163879.0
63497.38733807129,163916.0
63497.397437873035,163900.0
63497.40753767478,163916.0
63497.41763747652,163923.0
63497.42773727826,163902.0
63497.437837080004,163887.0
63497.44793688175,163893.0
63497.45803668349,163919.0
63497.46813648524,163916.0
63497.478236286974,163894.0
63497.48833608872,163925.0
63497.49843589046,163924.0
63497.508535692206,163905.0
63497.51863549395,163897.0
63497.52873529569,163893.0
63497.53883509743,163920.0
63497.548934899176,163924.0
63497.55903470092,163928.0
63497.56913450266,163951.0
63497.5792343044,163916.0
63497.589334106146,163934.0
63497.59943390789,163937.0
63497.609533709634,163941.0
63497.61963351137,163882.0
63497.629733313115,163898.0
63497.63983311486,163908.0
63497.6499329166,163809.0
63497.66003271835,163840.0
63497.670132520085,163804.0
63497.68023232183,163799.0
63497.69033212357,163815.0
63497.70043192532,163800.0
63497.710531727054,163802.0
63497.7206315288,163797.0
63497.73073133054,163797.0
63497.74083113229,163825.0
63497.75093093403,163803.0
63497.76103073577,163838.0
63497.77113053751,163822.0
63497.78123033926,163852.0
63497.791330141,163793.0
63497.801429942745,163832.0
63497.81152974448,163841.0
63497.821629546226,163854.0
63497.83172934797,163846.0
63497.841829149715,163852.0
63497.85192895145,163867.0
63497.862028753196,163861.0
63497.87212855494,163853.0
63497.882228356684,163862.0
63497.89232815843,163851.0
63497.902427960165,163873.0
63497.91252776191,163883.0
63497.922627563654,163877.0
63497.9327273654,163861.0
63497.94282716714,163835.0
63497.95292696888,163881.0
63497.96302677062,163861.0
63497.97312657237,163836.0
63497.98322637411,163841.0
63497.99332617585,163848.0
63498.00342597759,163871.0
63498.01352577934,163853.0
63498.02362558108,163867.0
63498.033725382826,163900.0
63498.04382518456,163879.0
63498.05392498631,163858.0
63498.06402478805,163878.0
63498.074124589795,163889.0
63498.08422439154,163898.0
63498.09432419328,163863.0
63498.10442399502,163851.0
63498.114523796765,163915.0
63498.12462359851,163896.0
63498.134723400246,163866.0
63498.14482320199,163890.0
63498.154923003734,163916.0
63498.16502280548,163913.0
63498.17512260722,163889.0
63498.18522240896,163923.0
63498.195322210704,163921.0
63498.20542201245,163907.0
63498.21552181419,163882.0
63498.22562161594,163925.0
63498.23572141767,163936.0
63498.24582121942,163935.0
63498.25592102116,163917.0
63498.266020822906,163929.0
63498.27612062464,163960.0
63498.28622042639,163927.0
63498.29632022813,163947.0
63498.306420029876,163915.0
63498.31651983162,163914.0
63498.32661963336,163913.0
63498.3367194351,163926.0
63498.346819236845,163955.0
63498.35691903859,163961.0
63498.367018840334,163920.0
63498.37711864207,163963.0
63498.387218443815,163945.0
63498.39731824556,163937.0
63498.4074180473,163951.0
63498.41751784904,163969.0
63498.427617650785,163952.0
63498.43771745253,163971.0
63498.44781725427,163958.0
63498.45791705602,163930.0
63498.468016857754,163964.0
63498.4781166595,163923.0
63498.48821646124,163934.0
63498.49831626299,163914.0
63498.50841606473,163877.0
63498.51851586647,163886.0
63498.52861566821,163836.0
63498.53871546996,163842.0
63498.5488152717,163823.0
63498.55891507344,163819.0
63498.56901487518,163842.0
63498.579114676926,163831.0
63498.58921447867,163858.0
63498.599314280415,163864.0
63498.60941408215,163835.0
63498.619513883896,163844.0
63498.62961368564,163829.0
63498.639713487384,163836.0
63498.64981328913,163858.0
63498.659913090865,163859.0
63498.67001289261,163856.0
63498.680112694354,163888.0
63498.6902124961,163855.0
63498.700312297835,163841.0
63498.71041209958,163885.0
63498.72051190132,163894.0
63498.73061170307,163897.0
63498.74071150481,163863.0
63498.75081130655,163883.0
63498.76091110829,163890.0
63498.77101091004,163855.0
63498.78111071178,163873.0
63498.791210513526,163878.0
63498.80131031526,163875.0
63498.81141011701,163888.0
63498.82150991875,163869.0
63498.831609720495,163894.0
63498.84170952223,163911.0
63498.851809323976,163897.0
63498.86190912572,163881.0
63498.872008927465,163914.0
63498.88210872921,163878.0
63498.892208530946,163910.0
63498.90230833269,163922.0
63498.912408134434,163916.0
63498.92250793618,163933.0
63498.93260773792,163892.0
63498.94270753966,163940.0
63498.952807341404,163922.0
63498.96290714315,163929.0
63498.97300694489,163895.0
63498.98310674663,163938.0
63498.99320654837,163907.0
63499.00330635012,163913.0
63499.01340615186,163924.0
63499.023505953606,163958.0
63499.03360575534,163929.0
63499.04370555709,163916.0
63499.05380535883,163917.0
63499.063905160576,163929.0
63499.07400496232,163948.0
63499.08410476406,163980.0
63499.0942045658,163968.0
63499.104304367545,163921.0
63499.11440416929,163941.0
63499.12450397103,163963.0
63499.13460377277,163974.0
63499.144703574515,163937.0
63499.15480337626,163949.0
63499.164903178,163941.0
63499.17500297974,163941.0
63499.185102781485,163953.0
63499.19520258323,163974.0
63499.20530238497,163968.0
63499.21540218672,163972.0
63499.225501988454,163978.0
63499.2356017902,163991.0
63499.24570159194,163985.0
63499.25580139369,163965.0
63499.265901195424,164008.0
63499.27600099717,163997.0
63499.28610079891,163978.0
63499.29620060066,164015.0
63499.3063004024,164005.0
63499.31640020414,163985.0
63499.32650000588,163991.0
63499.336599807626,163972.0
63499.34669960937,163990.0
63499.35679941111,163918.0
63499.36689921285,163940.0
63499.376999014596,163959.0
63499.38709881634,163878.0
63499.397198618084,163853.0
63499.40729841982,163864.0
63499.417398221565,163839.0
63499.42749802331,163845.0
63499.437597825054,163850.0
63499.4476976268,163860.0
63499.457797428535,163846.0
63499.46789723028,163841.0
63499.47799703202,163826.0
63499.48809683377,163871.0
63499.49819663551,163851.0
63499.50829643725,163876.0
63499.51839623899,163901.0
63499.52849604074,163910.0
63499.53859584248,163874.0
63499.54869564422,163864.0
63499.55879544596,163920.0
63499.56889524771,163913.0
63499.57899504945,163896.0
63499.589094851195,163913.0
63499.59919465293,163903.0
63499.609294454676,163920.0
63499.61939425642,163911.0
63499.629494058165,163920.0
63499.6395938599,163930.0
63499.649693661646,163896.0
63499.65979346339,163936.0
63499.669893265134,163915.0
63499.67999306688,163893.0
63499.690092868615,163903.0
63499.70019267036,163918.0
63499.710292472104,163897.0
63499.72039227385,163890.0
63499.73049207559,163908.0
63499.74059187733,163921.0
63499.75069167907,163902.0
63499.76079148082,163897.0
63499.77089128256,163940.0
63499.780991084306,163925.0
63499.79109088604,163925.0
63499.80119068779,163880.0
63499.81129048953,163951.0
63499.821390291276,163946.0
63499.83149009301,163912.0
63499.84158989476,163889.0
63499.8516896965,163963.0
63499.861789498245,163943.0
63499.87188929999,163926.0
63499.88198910173,163962.0
63499.89208890347,163933.0
63499.902188705215,163950.0
63499.91228850696,163959.0
63499.922388308696,163975.0
63499.93248811044,163901.0
63499.942587912185,163940.0
63499.95268771393,163938.0
63499.96278751567,163985.0
63499.97288731741,163934.0
63499.982987119154,163955.0
63499.9930869209,163969.0
63500.00318672264,163956.0
63500.01328652439,163935.0
63500.023386326124,163966.0
63500.03348612787,163977.0
63500.04358592961,163955.0
63500.05368573136,163915.0
63500.0637855331,163960.0
63500.07388533484,163942.0
63500.08398513658,163991.0
63500.094084938326,163969.0
63500.10418474007,163983.0
63500.11428454181,163967.0
63500.12438434355,163980.0
63500.134484145296,163977.0
63500.14458394704,163963.0
63500.154683748784,163982.0
63500.16478355052,163971.0
63500.174883352265,164012.0
63500.18498315401,163936.0
63500.19508295575,163951.0
63500.20518275749,163919.0
63500.215282559235,163961.0
63500.22538236098,163916.0
63500.23548216272,163896.0
63500.24558196447,163890.0
63500.255681766204,163857.0
63500.26578156795,163851.0
63500.27588136969,163849.0
63500.28598117144,163865.0
63500.29608097318,163818.0
63500.30618077492,163829.0
63500.31628057666,163853.0
63500.32638037841,163845.0
63500.33648018015,163822.0
63500.34657998189,163871.0
63500.35667978363,163862.0
63500.366779585376,163861.0
63500.37687938712,163837.0
63500.386979188865,163891.0
63500.3970789906,163878.0
63500.407178792346,163858.0
63500.41727859409,163881.0
63500.427378395834,163880.0
63500.43747819758,163901.0
63500.447577999315,163907.0
63500.45767780106,163902.0
63500.467777602804,163890.0
63500.47787740455,163857.0
63500.487977206285,163851.0
63500.49807700803,163859.0
63500.50817680977,163863.0
63500.51827661152,163851.0
63500.52837641326,163874.0
63500.538476215,163895.0
63500.54857601674,163864.0
63500.55867581849,163857.0
63500.56877562023,163829.0
63500.578875421976,163877.0
63500.58897522371,163836.0
63500.59907502546,163853.0
63500.6091748272,163845.0
63500.619274628945,163874.0
63500.62937443068,163867.0
63500.63947423243,163901.0
63500.64957403417,163887.0
63500.659673835915,163874.0
63500.66977363766,163902.0
63500.679873439396,163916.0
63500.68997324114,163905.0
63500.700073042884,163897.0
63500.71017284463,163913.0
63500.72027264637,163909.0
63500.73037244811,163872.0
63500.740472249854,163881.0
63500.7505720516,163887.0
63500.76067185334,163899.0
63500.77077165508,163902.0
63500.780871456824,163897.0
63500.79097125857,163864.0
63500.80107106031,163886.0
63500.811170862056,163916.0
63500.82127066379,163916.0
63500.83137046554,163882.0
63500.84147026728,163902.0
63500.851570069026,163919.0
63500.86166987077,163921.0
63500.87176967251,163884.0
63500.88186947425,163896.0
63500.891969275996,163917.0
63500.90206907774,163916.0
63500.91216887948,163893.0
63500.92226868122,163943.0
63500.932368482965,163911.0
63500.94246828471,163925.0
63500.95256808645,163952.0
63500.96266788819,163926.0
63500.972767689935,163927.0
63500.98286749168,163923.0
63500.99296729342,163950.0
63501.00306709517,163934.0
63501.013166896904,163923.0
63501.02326669865,163907.0
63501.03336650039,163956.0
63501.04346630214,163897.0
63501.053566103874,163892.0
63501.06366590562,163850.0
63501.07376570736,163854.0
63501.08386550911,163842.0
63501.09396531085,163773.0
63501.10406511259,163781.0
63501.11416491433,163783.0
63501.124264716076,163773.0
63501.13436451782,163758.0
63501.144464319565,163778.0
63501.1545641213,163750.0
63501.164663923046,163739.0
63501.17476372479,163764.0
63501.184863526534,163773.0
63501.19496332827,163759.0
63501.205063130015,163765.0
63501.21516293176,163789.0
63501.225262733504,163802.0
63501.23536253525,163818.0
63501.245462336985,163815.0
63501.25556213873,163803.0
63501.26566194047,163783.0
63501.27576174222,163794.0
63501.28586154396,163777.0
63501.2959613457,163793.0
63501.30606114744,163811.0
63501.31616094919,163800.0
63501.32626075093,163833.0
63501.33636055267,163798.0
63501.34646035441,163795.0
63501.35656015616,163792.0
63501.3666599579,163824.0
63501.376759759645,163774.0
63501.38685956138,163793.0
63501.39695936313,163787.0
63501.40705916487,163772.0
63501.417158966615,163790.0
63501.42725876836,163802.0
63501.437358570096,163786.0
63501.44745837184,163783.0
63501.457558173584,163790.0
63501.46765797533,163804.0
63501.477757777066,163833.0
63501.48785757881,163807.0
63501.497957380554,163781.0
63501.5080571823,163822.0
63501.51815698404,163795.0
63501.52825678578,163799.0
63501.53835658752,163781.0
63501.54845638927,163813.0
63501.55855619101,163792.0
63501.568655992756,163847.0
63501.57875579449,163808.0
63501.58885559624,163855.0
63501.59895539798,163839.0
63501.609055199726,163854.0
63501.61915500146,163835.0
63501.62925480321,163867.0
63501.63935460495,163867.0
63501.649454406695,163840.0
63501.65955420844,163869.0
63501.66965401018,163867.0
63501.67975381192,163871.0
63501.689853613665,163849.0
63501.69995341541,163832.0
63501.71005321715,163885.0
63501.72015301889,163838.0
63501.730252820635,163851.0
63501.74035262238,163865.0
63501.75045242412,163849.0
63501.76055222586,163884.0
63501.770652027604,163864.0
63501.78075182935,163843.0
63501.79085163109,163897.0
63501.80095143284,163869.0
63501.811051234574,163856.0
63501.82115103632,163883.0
63501.83125083806,163848.0
63501.84135063981,163886.0
63501.85145044155,163899.0
63501.86155024329,163903.0
63501.87165004503,163887.0
63501.881749846776,163906.0
63501.89184964852,163899.0
63501.90194945026,163898.0
63501.912049252,163830.0
63501.922149053746,163862.0
63501.93224885549,163823.0
63501.942348657234,163825.0
63501.95244845897,163761.0
63501.962548260715,163741.0
63501.97264806246,163755.0
63501.982747864204,163733.0
63501.99284766595,163746.0
63502.002947467685,163742.0
63502.01304726943,163740.0
63502.02314707117,163736.0
63502.03324687292,163773.0
63502.043346674654,163761.0
63502.0534464764,163763.0
63502.06354627814,163757.0
63502.07364607989,163750.0
63502.08374588163,163777.0
63502.09384568337,163772.0
63502.10394548511,163775.0
63502.11404528686,163810.0
63502.1241450886,163772.0
63502.134244890345,163788.0
63502.14434469208,163807.0
63502.154444493826,163787.0
63502.16454429557,163801.0
63502.174644097315,163815.0
63502.18474389905,163797.0
63502.194843700796,163789.0
63502.20494350254,163788.0
63502.215043304284,163802.0
63502.22514310603,163785.0
63502.235242907765,163774.0
63502.24534270951,163786.0
63502.255442511254,163759.0
63502.265542313,163777.0
63502.27564211474,163804.0
63502.28574191648,163771.0
63502.29584171822,163800.0
63502.30594151997,163783.0
63502.31604132171,163773.0
63502.32614112345,163783.0
63502.33624092519,163779.0
63502.34634072694,163793.0
63502.35644052868,163783.0
63502.366540330426,163802.0
63502.37664013216,163770.0
63502.38673993391,163814.0
63502.39683973565,163793.0
63502.406939537395,163786.0
63502.41703933914,163835.0
63502.42713914088,163817.0
63502.43723894262,163841.0
63502.447338744365,163784.0
63502.45743854611,163859.0
63502.467538347846,163831.0
63502.47763814959,163821.0
63502.487737951335,163830.0
63502.49783775308,163856.0
63502.50793755482,163856.0
63502.51803735656,163829.0
63502.528137158304,163837.0
63502.53823696005,163873.0
63502.54833676179,163843.0
63502.55843656354,163887.0
63502.568536365274,163886.0
63502.57863616702,163860.0
63502.58873596876,163880.0
63502.59883577051,163857.0
63502.60893557224,163870.0
63502.61903537399,163841.0
63502.62913517573,163861.0
63502.639234977476,163876.0
63502.64933477922,163891.0
63502.65943458096,163865.0
63502.6695343827,163862.0
63502.679634184446,163893.0
63502.68973398619,163863.0
63502.699833787934,163876.0
63502.70993358967,163905.0
63502.720033391415,163892.0
63502.73013319316,163854.0
63502.7402329949,163838.0
63502.75033279664,163831.0
63502.760432598385,163823.0
63502.77053240013,163777.0
63502.78063220187,163807.0
63502.79073200362,163758.0
63502.800831805354,163770.0
63502.8109316071,163728.0
63502.82103140884,163782.0
63502.83113121059,163755.0
63502.84123101233,163741.0
63502.85133081407,163745.0
63502.86143061581,163786.0
63502.87153041756,163758.0
63502.8816302193,163785.0
63502.89173002104,163762.0
63502.90182982278,163772.0
63502.911929624526,163755.0
63502.92202942627,163779.0
63502.932129228015,163816.0
63502.94222902975,163773.0
63502.952328831496,163796.0
63502.96242863324,163804.0
63502.972528434984,163813.0
63502.98262823673,163783.0
63502.992728038465,163812.0
63503.00282784021,163811.0
63503.012927641954,163788.0
63503.0230274437,163794.0
63503.033127245435,163773.0
63503.04322704718,163819.0
63503.05332684892,163807.0
63503.06342665067,163790.0
63503.07352645241,163835.0
63503.08362625415,163773.0
63503.09372605589,163804.0
63503.10382585764,163806.0
63503.11392565938,163819.0
63503.124025461126,163791.0
63503.13412526286,163810.0
63503.14422506461,163819.0
63503.15432486635,163765.0
63503.164424668095,163793.0
63503.17452446983,163811.0
63503.18462427158,163853.0
63503.19472407332,163817.0
63503.204823875065,163847.0
63503.21492367681,163824.0
63503.225023478546,163852.0
63503.23512328029,163833.0
63503.245223082034,163836.0
63503.25532288378,163840.0
63503.26542268552,163858.0
63503.27552248726,163816.0
63503.285622289004,163871.0
63503.29572209075,163841.0
63503.30582189249,163817.0
63503.31592169423,163877.0
63503.326021495974,163869.0
63503.33612129772,163865.0
63503.34622109946,163867.0
63503.356320901206,163874.0
63503.36642070294,163875.0
63503.37652050469,163857.0
63503.38662030643,163851.0
63503.396720108176,163863.0
63503.40681990991,163832.0
63503.41691971166,163873.0
63503.4270195134,163886.0
63503.437119315146,163894.0
63503.44721911689,163873.0
63503.45731891863,163893.0
63503.46741872037,163877.0
63503.477518522115,163909.0
63503.48761832386,163870.0
63503.4977181256,163893.0
63503.50781792734,163877.0
63503.517917729085,163872.0
63503.52801753083,163856.0
63503.53811733257,163902.0
63503.54821713432,163859.0
63503.558316936054,163815.0
63503.5684167378,163827.0
63503.57851653954,163839.0
63503.58861634129,163804.0
63503.598716143024,163754.0
63503.60881594477,163806.0
63503.61891574651,163772.0
63503.62901554826,163765.0
63503.63911535,163716.0
63503.64921515174,163782.0
63503.65931495348,163752.0
63503.669414755226,163753.0
63503.67951455697,163745.0
63503.68961435871,163776.0
63503.69971416045,163744.0
63503.709813962196,163773.0
63503.71991376394,163794.0
63503.730013565684,163755.0
63503.74011336742,163750.0
63503.750213169165,163794.0
63503.76031297091,163815.0
63503.770412772654,163815.0
63503.7805125744,163772.0
63503.790612376135,163810.0
63503.80071217788,163803.0
63503.81081197962,163753.0
63503.82091178137,163804.0
63503.83101158311,163790.0
63503.84111138485,163800.0
63503.85121118659,163757.0
63503.86131098834,163787.0
63503.87141079008,163787.0
63503.88151059182,163758.0
63503.89161039356,163769.0
63503.90171019531,163800.0
63503.91180999705,163788.0
63503.921909798795,163760.0
63503.93200960053,163778.0
63503.94210940228,163813.0
63503.95220920402,163807.0
63503.962309005765,163766.0
63503.9724088075,163785.0
63503.982508609246,163815.0
63503.99260841099,163796.0
63504.002708212734,163807.0
63504.01280801448,163821.0
63504.022907816216,163778.0
63504.03300761796,163790.0
63504.043107419704,163812.0
63504.05320722145,163791.0
63504.06330702319,163792.0
63504.07340682493,163815.0
63504.08350662667,163810.0
63504.09360642842,163790.0
63504.10370623016,163818.0
63504.1138060319,163834.0
63504.12390583364,163818.0
63504.13400563539,163837.0
63504.14410543713,163795.0
63504.154205238876,163838.0
63504.16430504061,163826.0
63504.17440484236,163812.0
63504.1845046441,163806.0
63504.194604445845,163862.0
63504.20470424759,163831.0
63504.21480404933,163830.0
63504.22490385107,163823.0
63504.235003652815,163821.0
63504.24510345456,163828.0
63504.255203256296,163828.0
63504.26530305804,163852.0
63504.275402859785,163814.0
63504.28550266153,163834.0
63504.29560246327,163801.0
63504.30570226501,163782.0
63504.315802066754,163790.0
63504.3259018685,163788.0
63504.33600167024,163753.0
63504.34610147199,163703.0
63504.356201273724,163679.0
63504.36630107547,163703.0
63504.37640087721,163715.0
63504.38650067896,163726.0
63504.39660048069,163711.0
63504.40670028244,163697.0
63504.41680008418,163711.0
63504.426899885926,163715.0
63504.43699968767,163731.0
63504.44709948941,163704.0
63504.45719929115,163722.0
63504.467299092896,163702.0
63504.47739889464,163712.0
63504.487498696384,163745.0
63504.49759849812,163722.0
63504.507698299865,163732.0
63504.51779810161,163751.0
63504.527897903354,163722.0
63504.53799770509,163745.0
63504.548097506835,163705.0
63504.55819730858,163764.0
63504.56829711032,163727.0
63504.57839691207,163742.0
63504.588496713804,163741.0
63504.59859651555,163745.0
63504.60869631729,163718.0
63504.61879611904,163747.0
63504.62889592078,163740.0
63504.63899572252,163697.0
63504.64909552426,163698.0
63504.65919532601,163734.0
63504.66929512775,163743.0
63504.67939492949,163697.0
63504.68949473123,163701.0
63504.699594532976,163726.0
63504.70969433472,163727.0
63504.719794136465,163729.0
63504.7298939382,163724.0
63504.739993739946,163734.0
63504.75009354169,163714.0
63504.760193343434,163736.0
63504.77029314518,163755.0
63504.780392946916,163744.0
63504.79049274866,163751.0
63504.800592550404,163726.0
63504.81069235215,163725.0
63504.820792153885,163754.0
63504.83089195563,163715.0
63504.84099175737,163764.0
63504.85109155912,163781.0
63504.86119136086,163770.0
63504.8712911626,163766.0
63504.88139096434,163768.0
63504.89149076609,163776.0
63504.90159056783,163751.0
63504.911690369576,163768.0
63504.92179017131,163735.0
63504.93188997306,163763.0
63504.9419897748,163776.0
63504.952089576545,163783.0
63504.96218937828,163809.0
63504.97228918003,163767.0
63504.98238898177,163770.0
63504.992488783515,163784.0
63505.00258858526,163792.0
63505.012688386996,163752.0
63505.02278818874,163755.0
63505.032887990485,163774.0
63505.04298779223,163782.0
63505.05308759397,163731.0
63505.06318739571,163733.0
63505.073287197454,163715.0
63505.0833869992,163694.0
63505.09348680094,163638.0
63505.10358660268,163690.0
63505.113686404424,163635.0
63505.12378620617,163601.0
63505.13388600791,163604.0
63505.14398580966,163608.0
63505.15408561139,163609.0
63505.16418541314,163607.0
63505.17428521488,163640.0
63505.184385016626,163650.0
63505.19448481837,163636.0
63505.20458462011,163597.0
63505.21468442185,163669.0
63505.224784223596,163646.0
63505.23488402534,163659.0
63505.24498382708,163661.0
63505.25508362882,163691.0
63505.265183430565,163652.0
63505.27528323231,163672.0
63505.285383034054,163652.0
63505.29548283579,163693.0
63505.305582637535,163683.0
63505.31568243928,163670.0
63505.32578224102,163689.0
63505.33588204277,163674.0
63505.345981844504,163704.0
63505.35608164625,163665.0
63505.36618144799,163661.0
63505.37628124974,163665.0
63505.386381051474,163671.0
63505.39648085322,163657.0
63505.40658065496,163630.0
63505.41668045671,163662.0
63505.42678025845,163673.0
63505.43688006019,163622.0
63505.44697986193,163651.0
63505.457079663676,163645.0
63505.46717946542,163647.0
63505.477279267165,163643.0
63505.4873790689,163654.0
63505.497478870646,163624.0
63505.50757867239,163637.0
63505.517678474134,163652.0
63505.52777827587,163666.0
63505.537878077615,163661.0
63505.54797787936,163657.0
63505.558077681104,163639.0
63505.56817748285,163683.0
63505.578277284585,163690.0
63505.58837708633,163690.0
63505.59847688807,163698.0
63505.60857668982,163686.0
63505.61867649156,163660.0
63505.6287762933,163658.0
63505.63887609504,163706.0
63505.64897589679,163677.0
63505.65907569853,163692.0
63505.66917550027,163694.0
63505.67927530201,163643.0
63505.68937510376,163640.0
63505.6994749055,163653.0
63505.709574707245,163715.0
63505.71967450898,163695.0
63505.72977431073,163704.0
63505.73987411247,163689.0
63505.749973914215,163733.0
63505.76007371596,163711.0
63505.770173517696,163700.0
63505.78027331944,163708.0
63505.790373121185,163683.0
63505.80047292293,163694.0
63505.810572724666,163722.0
63505.82067252641,163752.0
63505.830772328154,163684.0
63505.8408721299,163659.0
63505.85097193164,163641.0
63505.86107173338,163606.0
63505.871171535124,163586.0
63505.88127133687,163547.0
63505.89137113861,163560.0
63505.90147094036,163531.0
63505.91157074209,163518.0
63505.92167054384,163525.0
63505.93177034558,163535.0
63505.941870147326,163530.0
63505.95196994906,163551.0
63505.96206975081,163567.0
63505.97216955255,163535.0
63505.982269354296,163551.0
63505.99236915604,163544.0
63506.00246895778,163578.0
63506.01256875952,163546.0
63506.022668561265,163578.0
63506.03276836301,163571.0
63506.04286816475,163549.0
63506.05296796649,163555.0
63506.063067768235,163581.0
63506.07316756998,163582.0
63506.08326737172,163592.0
63506.09336717346,163602.0
63506.103466975204,163587.0
63506.11356677695,163620.0
63506.12366657869,163567.0
63506.13376638044,163595.0
63506.143866182174,163594.0
63506.15396598392,163587.0
63506.16406578566,163565.0
63506.17416558741,163602.0
63506.18426538915,163574.0
63506.19436519089,163548.0
63506.20446499263,163580.0
63506.214564794376,163616.0
63506.22466459612,163568.0
63506.23476439786,163557.0
63506.2448641996,163614.0
63506.254964001346,163603.0
63506.26506380309,163606.0
63506.275163604834,163589.0
63506.28526340657,163628.0
63506.295363208315,163605.0
63506.30546301006,163615.0
63506.315562811804,163624.0
63506.32566261355,163613.0
63506.335762415285,163594.0
63506.34586221703,163626.0
63506.35596201877,163628.0
63506.36606182052,163652.0
63506.376161622255,163645.0
63506.386261424,163635.0
63506.39636122574,163634.0
63506.40646102749,163628.0
63506.41656082923,163602.0
63506.42666063097,163663.0
63506.43676043271,163650.0
63506.44686023446,163640.0
63506.4569600362,163661.0
63506.467059837945,163627.0
63506.47715963968,163646.0
63506.48725944143,163612.0
63506.49735924317,163668.0
63506.507459044915,163639.0
63506.51755884665,163643.0
63506.527658648396,163646.0
63506.53775845014,163679.0
63506.547858251884,163674.0
63506.55795805363,163672.0
63506.568057855366,163669.0
63506.57815765711,163699.0
63506.588257458854,163650.0
63506.5983572606,163697.0
63506.60845706234,163707.0
63506.61855686408,163696.0
63506.628656665824,163650.0
63506.63875646757,163686.0
63506.64885626931,163674.0
63506.65895607105,163652.0
63506.66905587279,163652.0
63506.67915567454,163618.0
63506.68925547628,163579.0
63506.699355278026,163560.0
63506.70945507976,163521.0
63506.71955488151,163516.0
63506.72965468325,163554.0
63506.739754484996,163542.0
63506.74985428674,163532.0
63506.75995408848,163503.0
63506.77005389022,163497.0
63506.780153691965,163485.0
63506.79025349371,163530.0
63506.800353295446,163548.0
63506.81045309719,163555.0
63506.820552898935,163559.0
63506.83065270068,163556.0
63506.84075250242,163564.0
63506.85085230416,163536.0
63506.860952105904,163586.0
63506.87105190765,163554.0
63506.88115170939,163578.0
63506.89125151114,163592.0
63506.901351312874,163615.0
63506.91145111462,163565.0
63506.92155091636,163584.0
63506.93165071811,163597.0
63506.94175051984,163605.0
63506.95185032159,163565.0
63506.96195012333,163611.0
63506.972049925076,163595.0
63506.98214972682,163595.0
63506.99224952856,163614.0
63507.0023493303,163610.0
63507.012449132046,163608.0
63507.02254893379,163584.0
63507.032648735534,163610.0
63507.04274853727,163604.0
63507.052848339015,163610.0
63507.06294814076,163597.0
63507.073047942504,163602.0
63507.08314774424,163604.0
63507.093247545985,163623.0
63507.10334734773,163654.0
63507.11344714947,163644.0
63507.12354695122,163615.0
63507.133646752955,163649.0
63507.1437465547,163623.0
63507.15384635644,163675.0
63507.16394615819,163630.0
63507.17404595993,163659.0
63507.18414576167,163644.0
63507.19424556341,163642.0
63507.20434536516,163671.0
63507.2144451669,163694.0
63507.22454496864,163708.0
63507.23464477038,163673.0
63507.24474457213,163685.0
63507.25484437387,163687.0
63507.264944175615,163730.0
63507.27504397735,163676.0
63507.285143779096,163698.0
63507.29524358084,163679.0
63507.305343382584,163688.0
63507.31544318433,163704.0
63507.325542986066,163696.0
63507.33564278781,163716.0
63507.345742589554,163727.0
63507.3558423913,163707.0
63507.365942193035,163751.0
63507.37604199478,163706.0
63507.38614179652,163735.0
63507.39624159827,163766.0
63507.40634140001,163750.0
63507.41644120175,163763.0
63507.42654100349,163758.0
63507.43664080524,163755.0
63507.44674060698,163746.0
63507.45684040872,163767.0
63507.46694021046,163770.0
63507.47704001221,163774.0
63507.48713981395,163736.0
63507.497239615695,163779.0
63507.50733941743,163739.0
63507.51743921918,163714.0
63507.52753902092,163668.0
63507.537638822665,163693.0
63507.54773862441,163653.0
63507.557838426146,163572.0
63507.56793822789,163592.0
63507.578038029635,163631.0
63507.58813783138,163618.0
63507.59823763312,163591.0
63507.60833743486,163658.0
63507.618437236604,163633.0
63507.62853703835,163652.0
63507.63863684009,163615.0
63507.64873664183,163646.0
63507.658836443574,163642.0
63507.66893624532,163676.0
63507.67903604706,163663.0
63507.68913584881,163688.0
63507.69923565054,163629.0
63507.70933545229,163678.0
63507.71943525403,163683.0
63507.729535055776,163663.0
63507.73963485751,163702.0
63507.74973465926,163708.0
63507.759834461,163726.0
63507.769934262746,163717.0
63507.78003406449,163702.0
63507.79013386623,163710.0
63507.80023366797,163690.0
63507.810333469715,163670.0
63507.82043327146,163684.0
63507.830533073204,163732.0
63507.84063287494,163689.0
63507.850732676685,163673.0
63507.86083247843,163689.0
63507.87093228017,163699.0
63507.88103208192,163706.0
63507.891131883654,163706.0
63507.9012316854,163704.0
63507.91133148714,163693.0
63507.92143128889,163727.0
63507.931531090624,163727.0
63507.94163089237,163760.0
63507.95173069411,163746.0
63507.96183049586,163741.0
63507.9719302976,163734.0
63507.98203009934,163721.0
63507.99212990108,163766.0
63508.002229702826,163761.0
63508.01232950457,163787.0
63508.02242930631,163770.0
63508.03252910805,163783.0
63508.042628909796,163785.0
63508.05272871154,163797.0
63508.062828513284,163779.0
63508.07292831502,163802.0
63508.083028116765,163798.0
63508.09312791851,163737.0
63508.103227720254,163748.0
63508.113327522,163806.0
63508.123427323735,163789.0
63508.13352712548,163796.0
63508.14362692722,163779.0
63508.15372672897,163789.0
63508.163826530705,163818.0
63508.17392633245,163831.0
63508.18402613419,163827.0
63508.19412593594,163817.0
63508.20422573768,163806.0
63508.21432553942,163825.0
63508.22442534116,163782.0
63508.23452514291,163794.0
63508.24462494465,163832.0
63508.254724746395,163835.0
63508.26482454813,163818.0
63508.27492434988,163866.0
63508.28502415162,163841.0
63508.295123953365,163832.0
63508.3052237551,163846.0
63508.315323556846,163829.0
63508.32542335859,163842.0
63508.335523160335,163829.0
63508.34562296208,163799.0
63508.355722763816,163802.0
63508.36582256556,163766.0
63508.375922367304,163747.0
63508.38602216905,163740.0
63508.39612197079,163707.0
63508.40622177253,163685.0
63508.416321574274,163702.0
63508.42642137602,163696.0
63508.43652117776,163739.0
63508.4466209795,163686.0
63508.45672078124,163717.0
63508.46682058299,163764.0
63508.47692038473,163709.0
63508.487020186476,163768.0
63508.49711998821,163724.0
63508.50721978996,163723.0
63508.5173195917,163761.0
63508.527419393446,163768.0
63508.53751919519,163767.0
63508.54761899693,163776.0
63508.55771879867,163782.0
63508.567818600415,163785.0
63508.57791840216,163798.0
63508.588018203896,163775.0
63508.59811800564,163821.0
63508.608217807385,163768.0
63508.61831760913,163800.0
63508.62841741087,163784.0
63508.63851721261,163761.0
63508.648617014354,163772.0
63508.6587168161,163789.0
63508.66881661784,163783.0
63508.67891641959,163806.0
63508.689016221324,163780.0
63508.69911602307,163788.0
63508.70921582481,163808.0
63508.71931562656,163775.0
63508.72941542829,163779.0
63508.73951523004,163791.0
63508.74961503178,163815.0
63508.759714833526,163760.0
63508.76981463527,163797.0
63508.77991443701,163802.0
63508.79001423875,163793.0
63508.800114040496,163805.0
63508.81021384224,163802.0
63508.820313643984,163802.0
63508.83041344572,163819.0
63508.840513247465,163799.0
63508.85061304921,163839.0
63508.860712850954,163809.0
63508.87081265269,163837.0
63508.880912454435,163813.0
63508.89101225618,163832.0
63508.90111205792,163801.0
63508.91121185967,163826.0
63508.921311661405,163848.0
63508.93141146315,163822.0
63508.94151126489,163848.0
63508.95161106664,163850.0
63508.96171086838,163875.0
63508.97181067012,163830.0
63508.98191047186,163864.0
63508.99201027361,163868.0
63509.00211007535,163866.0
63509.01220987709,163847.0
63509.02230967883,163874.0
63509.03240948058,163842.0
63509.04250928232,163875.0
63509.052609084065,163859.0
63509.0627088858,163897.0
63509.072808687546,163869.0
63509.08290848929,163854.0
63509.093008291034,163889.0
63509.10310809278,163889.0
63509.113207894516,163873.0
63509.12330769626,163874.0
63509.133407498004,163890.0
63509.14350729975,163841.0
63509.153607101485,163847.0
63509.16370690323,163836.0
63509.173806704974,163816.0
63509.18390650672,163757.0
63509.19400630846,163758.0
63509.2041061102,163747.0
63509.21420591194,163747.0
63509.22430571369,163713.0
63509.23440551543,163736.0
63509.244505317176,163691.0
63509.25460511891,163712.0
63509.26470492066,163744.0
63509.2748047224,163751.0
63509.284904524146,163762.0
63509.29500432588,163701.0
63509.30510412763,163740.0
63509.31520392937,163797.0
63509.325303731115,163765.0
63509.33540353286,163772.0
63509.345503334596,163782.0
63509.35560313634,163760.0
63509.365702938085,163784.0
63509.37580273983,163758.0
63509.38590254157,163809.0
63509.39600234331,163771.0
63509.406102145054,163777.0
63509.4162019468,163784.0
63509.42630174854,163780.0
63509.43640155028,163790.0
63509.446501352024,163780.0
63509.45660115377,163759.0
63509.46670095551,163781.0
63509.47680075726,163747.0
63509.48690055899,163771.0
63509.49700036074,163783.0
63509.50710016248,163774.0
63509.517199964226,163767.0
63509.52729976597,163775.0
63509.53739956771,163790.0
63509.54749936945,163803.0
63509.557599171196,163788.0
63509.56769897294,163795.0
63509.57779877468,163765.0
63509.58789857642,163755.0
63509.597998378165,163757.0
63509.60809817991,163793.0
63509.618197981654,163763.0
63509.62829778339,163777.0
63509.638397585135,163775.0
63509.64849738688,163796.0
63509.65859718862,163797.0
63509.66869699037,163768.0
63509.678796792105,163811.0
63509.68889659385,163808.0
63509.69899639559,163794.0
63509.70909619734,163826.0
63509.719195999074,163802.0
63509.72929580082,163796.0
63509.73939560256,163775.0
63509.74949540431,163837.0
63509.75959520605,163801.0
63509.76969500779,163816.0
63509.77979480953,163819.0
63509.78989461128,163829.0
63509.79999441302,163825.0
63509.810094214765,163820.0
63509.8201940165,163834.0
63509.830293818246,163840.0
63509.84039361999,163840.0
63509.850493421734,163857.0
63509.86059322347,163825.0
63509.870693025216,163799.0
63509.88079282696,163828.0
63509.890892628704,163849.0
63509.90099243045,163840.0
63509.911092232185,163832.0
63509.92119203393,163853.0
63509.93129183567,163849.0
63509.94139163742,163849.0
63509.95149143916,163840.0
63509.9615912409,163874.0
63509.97169104264,163849.0
63509.98179084439,163842.0
63509.99189064613,163828.0
63510.00199044787,163857.0
63510.01209024961,163789.0
63510.02219005136,163794.0
63510.0322898531,163765.0
63510.042389654845,163724.0
63510.05248945658,163737.0
63510.06258925833,163716.0
63510.07268906007,163710.0
63510.082788861815,163661.0
63510.09288866356,163665.0
63510.102988465296,163696.0
63510.11308826704,163720.0
63510.123188068785,163669.0
63510.13328787053,163684.0
63510.143387672266,163716.0
63510.15348747401,163684.0
63510.163587275754,163711.0
63510.1736870775,163743.0
63510.18378687924,163737.0
63510.19388668098,163758.0
63510.203986482724,163712.0
63510.21408628447,163761.0
63510.22418608621,163739.0
63510.23428588796,163705.0
63510.24438568969,163767.0
63510.25448549144,163764.0
63510.26458529318,163727.0
63510.274685094926,163742.0
63510.28478489666,163750.0
63510.29488469841,163759.0
63510.30498450015,163734.0
63510.315084301896,163739.0
63510.32518410364,163693.0
63510.33528390538,163745.0
63510.34538370712,163716.0
63510.355483508865,163733.0
63510.36558331061,163747.0
63510.375683112354,163734.0
63510.38578291409,163728.0
63510.395882715835,163722.0
63510.40598251758,163721.0
63510.41608231932,163736.0
63510.42618212106,163754.0
63510.436281922804,163745.0
63510.44638172455,163706.0
63510.45648152629,163715.0
63510.46658132804,163767.0
63510.476681129774,163746.0
63510.48678093152,163763.0
63510.49688073326,163750.0
63510.50698053501,163697.0
63510.51708033675,163768.0
63510.52718013849,163743.0
63510.53727994023,163752.0
63510.547379741976,163784.0
63510.55747954372,163760.0
63510.56757934546,163737.0
63510.5776791472,163803.0
63510.587778948946,163742.0
63510.59787875069,163773.0
63510.607978552434,163796.0
63510.61807835417,163784.0
63510.628178155916,163762.0
63510.63827795766,163782.0
63510.648377759404,163805.0
63510.65847756115,163798.0
63510.668577362885,163760.0
63510.67867716463,163790.0
63510.68877696637,163798.0
63510.69887676812,163768.0
63510.708976569855,163800.0
63510.7190763716,163793.0
63510.72917617334,163797.0
63510.73927597509,163788.0
63510.74937577683,163816.0
63510.75947557857,163829.0
63510.76957538031,163809.0
63510.77967518206,163791.0
63510.7897749838,163819.0
63510.799874785545,163810.0
63510.80997458728,163821.0
63510.82007438903,163821.0
63510.83017419077,163842.0
63510.840273992515,163794.0
63510.85037379425,163819.0
63510.860473595996,163797.0
63510.87057339774,163838.0
63510.880673199485,163814.0
63510.89077300123,163792.0
63510.900872802966,163770.0
63510.91097260471,163745.0
63510.921072406454,163713.0
63510.9311722082,163715.0
63510.94127200994,163701.0
63510.95137181168,163686.0
63510.961471613424,163664.0
63510.97157141517,163672.0
63510.98167121691,163695.0
63510.99177101865,163704.0
63511.00187082039,163691.0
63511.01197062214,163700.0
63511.02207042388,163684.0
63511.032170225626,163656.0
63511.04227002736,163746.0
63511.05236982911,163710.0
63511.06246963085,163767.0
63511.072569432596,163719.0
63511.08266923434,163742.0
63511.09276903608,163745.0
63511.10286883782,163734.0
63511.112968639565,163754.0
63511.12306844131,163751.0
63511.13316824305,163767.0
63511.14326804479,163727.0
63511.153367846535,163759.0
63511.16346764828,163737.0
63511.17356745002,163730.0
63511.18366725176,163725.0
63511.193767053504,163755.0
63511.20386685525,163750.0
63511.21396665699,163760.0
63511.22406645874,163756.0
63511.234166260474,163778.0
63511.24426606222,163737.0
63511.25436586396,163716.0
63511.26446566571,163762.0
63511.27456546744,163741.0
63511.28466526919,163732.0
63511.29476507093,163769.0
63511.304864872676,163779.0
63511.31496467442,163761.0
63511.32506447616,163788.0
63511.3351642779,163757.0
63511.345264079646,163779.0
63511.35536388139,163791.0
63511.365463683134,163803.0
63511.37556348487,163811.0
63511.385663286615,163775.0
63511.39576308836,163774.0
63511.405862890104,163799.0
63511.41596269184,163817.0
63511.426062493585,163803.0
63511.43616229533,163823.0
63511.44626209707,163808.0
63511.45636189882,163844.0
63511.466461700555,163809.0
63511.4765615023,163796.0
63511.48666130404,163848.0
63511.49676110579,163845.0
63511.506860907524,163833.0
63511.51696070927,163828.0
63511.52706051101,163801.0
63511.53716031276,163845.0
63511.5472601145,163833.0
63511.55735991624,163816.0
63511.56745971798,163814.0
63511.57755951973,163808.0
63511.58765932147,163842.0
63511.597759123215,163815.0
63511.60785892495,163836.0
63511.617958726696,163834.0
63511.62805852844,163856.0
63511.638158330185,163830.0
63511.64825813193,163850.0
63511.658357933666,163836.0
63511.66845773541,163862.0
63511.678557537154,163846.0
63511.6886573389,163859.0
63511.698757140635,163842.0
63511.70885694238,163847.0
63511.718956744124,163869.0
63511.72905654587,163838.0
63511.73915634761,163855.0
63511.74925614935,163860.0
63511.75935595109,163839.0
63511.76945575284,163793.0
63511.77955555458,163836.0
63511.78965535632,163817.0
63511.79975515806,163762.0
63511.80985495981,163744.0
63511.81995476155,163735.0
63511.830054563296,163727.0
63511.84015436503,163738.0
63511.85025416678,163721.0
63511.86035396852,163738.0
63511.870453770265,163721.0
63511.88055357201,163728.0
63511.890653373746,163769.0
63511.90075317549,163737.0
63511.910852977235,163737.0
63511.92095277898,163753.0
63511.93105258072,163766.0
63511.94115238246,163737.0
63511.951252184204,163772.0
63511.96135198595,163772.0
63511.97145178769,163759.0
63511.98155158943,163775.0
63511.991651391174,163740.0
63512.00175119292,163791.0
63512.01185099466,163822.0
63512.02195079641,163801.0
63512.03205059814,163771.0
63512.04215039989,163775.0
63512.05225020163,163760.0
63512.062350003376,163752.0
63512.07244980511,163752.0
63512.08254960686,163779.0
63512.0926494086,163801.0
63512.102749210346,163834.0
63512.11284901209,163803.0
63512.12294881383,163776.0
63512.13304861557,163757.0
63512.143148417315,163792.0
63512.15324821906,163780.0
63512.163348020804,163780.0
63512.17344782254,163770.0
63512.183547624285,163778.0
63512.19364742603,163813.0
63512.20374722777,163793.0
63512.21384702951,163804.0
63512.223946831255,163808.0
63512.234046633,163784.0
63512.24414643474,163828.0
63512.25424623649,163790.0
63512.264346038224,163783.0
63512.27444583997,163810.0
63512.28454564171,163830.0
63512.29464544346,163821.0
63512.3047452452,163809.0
63512.31484504694,163828.0
63512.32494484868,163821.0
63512.33504465043,163818.0
63512.34514445217,163825.0
63512.35524425391,163829.0
63512.36534405565,163810.0
63512.375443857396,163821.0
63512.38554365914,163851.0
63512.395643460884,163786.0
63512.40574326262,163807.0
63512.415843064366,163821.0
63512.42594286611,163819.0
63512.436042667854,163811.0
63512.4461424696,163825.0
63512.456242271335,163840.0
63512.46634207308,163832.0
63512.476441874824,163810.0
63512.48654167657,163826.0
63512.496641478305,163846.0
63512.50674128005,163860.0
63512.51684108179,163833.0
63512.52694088354,163862.0
63512.53704068528,163857.0
63512.54714048702,163840.0
63512.55724028876,163841.0
63512.56734009051,163860.0
63512.57743989225,163837.0
63512.587539693995,163822.0
63512.59763949573,163813.0
63512.60773929748,163751.0
63512.61783909922,163765.0
63512.627938900965,163728.0
63512.6380387027,163734.0
63512.648138504446,163699.0
63512.65823830619,163685.0
63512.668338107935,163698.0
63512.67843790968,163736.0
63512.688537711416,163711.0
63512.69863751316,163736.0
63512.708737314904,163711.0
63512.71883711665,163738.0
63512.72893691839,163719.0
63512.73903672013,163713.0
63512.749136521874,163738.0
63512.75923632362,163727.0
63512.76933612536,163734.0
63512.7794359271,163756.0
63512.78953572884,163746.0
63512.79963553059,163752.0
63512.80973533233,163749.0
63512.819835134076,163776.0
63512.82993493581,163765.0
63512.84003473756,163748.0
63512.8501345393,163779.0
63512.860234341046,163757.0
63512.87033414279,163741.0
63512.88043394453,163756.0
63512.89053374627,163768.0
63512.900633548015,163715.0
63512.91073334976,163710.0
63512.9208331515,163703.0
63512.93093295324,163720.0
63512.941032754985,163713.0
63512.95113255673,163751.0
63512.96123235847,163738.0
63512.97133216021,163718.0
63512.981431961955,163720.0
63512.9915317637,163736.0
63513.00163156544,163736.0
63513.01173136719,163720.0
63513.021831168924,163726.0
63513.03193097067,163729.0
63513.04203077241,163770.0
63513.05213057416,163753.0
63513.062230375894,163741.0
63513.07233017764,163743.0
63513.08242997938,163761.0
63513.092529781126,163750.0
63513.10262958287,163783.0
63513.11272938461,163761.0
63513.12282918635,163743.0
63513.132928988096,163757.0
63513.14302878984,163778.0
63513.153128591584,163774.0
63513.16322839332,163765.0
63513.173328195066,163807.0
63513.18342799681,163776.0
63513.193527798554,163739.0
63513.20362760029,163772.0
63513.213727402035,163787.0
63513.22382720378,163806.0
63513.23392700552,163778.0
63513.24402680727,163776.0
63513.254126609005,163774.0
63513.26422641075,163746.0
63513.27432621249,163747.0
63513.28442601424,163778.0
63513.29452581598,163792.0
63513.30462561772,163739.0
63513.31472541946,163775.0
63513.32482522121,163778.0
63513.33492502295,163764.0
63513.34502482469,163763.0
63513.35512462643,163832.0
63513.36522442818,163790.0
63513.37532422992,163778.0
63513.385424031665,163765.0
63513.3955238334,163779.0
63513.405623635146,163745.0
63513.41572343689,163697.0
63513.425823238635,163733.0
63513.43592304038,163659.0
63513.446022842116,163634.0
63513.45612264386,163643.0
63513.466222445604,163608.0
63513.47632224735,163617.0
63513.486422049085,163601.0
63513.49652185083,163613.0
63513.506621652574,163636.0
63513.51672145432,163665.0
63513.52682125606,163646.0
63513.5369210578,163666.0
63513.54702085954,163674.0
63513.55712066129,163679.0
63513.56722046303,163699.0
63513.577320264776,163700.0
63513.58742006651,163641.0
63513.59751986826,163665.0
63513.60761967,163677.0
63513.617719471746,163670.0
63513.62781927348,163663.0
63513.63791907523,163694.0
63513.64801887697,163681.0
63513.658118678715,163689.0
63513.66821848046,163693.0
63513.6783182822,163705.0
63513.68841808394,163666.0
63513.698517885685,163678.0
63513.70861768743,163655.0
63513.71871748917,163667.0
63513.72881729091,163653.0
63513.738917092654,163666.0
63513.7490168944,163653.0
63513.75911669614,163649.0
63513.76921649788,163655.0
63513.779316299624,163669.0
63513.78941610137,163685.0
63513.79951590311,163676.0
63513.80961570486,163671.0
63513.819715506594,163675.0
63513.82981530834,163694.0
63513.83991511008,163672.0
63513.850014911826,163695.0
63513.86011471357,163666.0
63513.87021451531,163684.0
63513.88031431705,163662.0
63513.890414118796,163678.0
63513.90051392054,163689.0
63513.91061372228,163674.0
63513.92071352402,163671.0
63513.930813325765,163693.0
63513.94091312751,163693.0
63513.951012929254,163699.0
63513.96111273099,163704.0
63513.971212532735,163714.0
63513.98131233448,163687.0
63513.99141213622,163671.0
63514.00151193797,163660.0
63514.011611739705,163722.0
63514.02171154145,163722.0
63514.03181134319,163704.0
63514.04191114494,163730.0
63514.052010946674,163717.0
63514.06211074842,163706.0
63514.07221055016,163713.0
63514.08231035191,163743.0
63514.09241015365,163712.0
63514.10250995539,163732.0
63514.11260975713,163755.0
63514.12270955888,163709.0
63514.13280936062,163738.0
63514.142909162365,163750.0
63514.1530089641,163754.0
63514.163108765846,163751.0
63514.17320856759,163786.0
63514.183308369335,163780.0
63514.19340817107,163759.0
63514.203507972816,163761.0
63514.21360777456,163764.0
63514.223707576304,163762.0
63514.23380737805,163711.0
63514.243907179785,163683.0
63514.25400698153,163693.0
63514.264106783274,163640.0
63514.27420658502,163635.0
63514.28430638676,163618.0
63514.2944061885,163602.0
63514.30450599024,163623.0
63514.31460579199,163623.0
63514.32470559373,163611.0
63514.33480539547,163659.0
63514.34490519721,163607.0
63514.35500499896,163632.0
63514.3651048007,163616.0
63514.375204602446,163632.0
63514.38530440418,163650.0
63514.39540420593,163647.0
63514.40550400767,163653.0
63514.415603809415,163620.0
63514.42570361116,163646.0
63514.435803412896,163666.0
63514.44590321464,163703.0
63514.456003016385,163701.0
63514.46610281813,163696.0
63514.476202619866,163684.0
63514.48630242161,163647.0
63514.496402223354,163704.0
63514.5065020251,163678.0
63514.51660182684,163662.0
63514.52670162858,163675.0
63514.536801430324,163651.0
63514.54690123207,163695.0
63514.55700103381,163678.0
63514.56710083556,163650.0
63514.57720063729,163710.0
63514.58730043904,163694.0
63514.59740024078,163694.0
63514.607500042526,163693.0
63514.61759984426,163698.0
63514.62769964601,163717.0
63514.63779944775,163684.0
63514.647899249496,163700.0
63514.65799905124,163696.0
63514.66809885298,163679.0
63514.67819865472,163724.0
63514.688298456465,163707.0
63514.69839825821,163711.0
63514.708498059954,163748.0
63514.71859786169,163713.0
63514.728697663435,163718.0
63514.73879746518,163761.0
63514.74889726692,163732.0
63514.75899706866,163744.0
63514.769096870405,163730.0
63514.77919667215,163723.0
63514.78929647389,163709.0
63514.79939627564,163733.0
63514.809496077374,163735.0
63514.81959587912,163743.0
63514.82969568086,163720.0
63514.83979548261,163751.0
63514.84989528435,163749.0
63514.85999508609,163756.0
63514.87009488783,163779.0
63514.88019468958,163744.0
63514.89029449132,163776.0
63514.90039429306,163747.0
63514.9104940948,163799.0
63514.920593896546,163781.0
63514.93069369829,163781.0
63514.940793500034,163765.0
63514.95089330177,163742.0
63514.960993103516,163755.0
63514.97109290526,163785.0
63514.981192707004,163773.0
63514.99129250875,163768.0
63515.001392310485,163774.0
63515.01149211223,163749.0
63515.021591913974,163744.0
63515.03169171572,163743.0
63515.041791517455,163737.0
63515.0518913192,163686.0
63515.06199112094,163673.0
63515.07209092269,163647.0
63515.08219072443,163635.0
63515.09229052617,163645.0
63515.10239032791,163670.0
63515.11249012966,163673.0
63515.1225899314,163650.0
63515.132689733146,163697.0
63515.14278953488,163682.0
63515.15288933663,163662.0
63515.16298913837,163681.0
63515.173088940115,163688.0
63515.18318874185,163660.0
63515.193288543596,163678.0
63515.20338834534,163682.0
63515.213488147085,163720.0
63515.22358794883,163711.0
63515.233687750566,163691.0
63515.24378755231,163680.0
63515.253887354054,163685.0
63515.2639871558,163714.0
63515.27408695754,163695.0
63515.28418675928,163667.0
63515.294286561024,163677.0
63515.30438636277,163710.0
63515.31448616451,163657.0
63515.32458596625,163735.0
63515.33468576799,163671.0
63515.34478556974,163697.0
63515.35488537148,163676.0
63515.364985173226,163713.0
63515.37508497496,163671.0
63515.38518477671,163714.0
63515.39528457845,163683.0
63515.405384380196,163727.0
63515.41548418194,163673.0
63515.42558398368,163708.0
63515.43568378542,163721.0
63515.445783587165,163668.0
63515.45588338891,163707.0
63515.46598319065,163718.0
63515.47608299239,163731.0
63515.486182794135,163695.0
63515.49628259588,163747.0
63515.50638239762,163729.0
63515.51648219936,163737.0
63515.526582001105,163744.0
63515.53668180285,163702.0
63515.54678160459,163703.0
63515.55688140633,163731.0
63515.566981208074,163747.0
63515.57708100982,163765.0
63515.58718081156,163704.0
63515.59728061331,163739.0
63515.607380415044,163704.0
63515.61748021679,163733.0
63515.62758001853,163777.0
63515.63767982028,163757.0
63515.64777962202,163767.0
63515.65787942376,163729.0
63515.6679792255,163750.0
63515.678079027246,163758.0
63515.68817882899,163766.0
63515.698278630734,163727.0
63515.70837843247,163740.0
63515.718478234216,163730.0
63515.72857803596,163692.0
63515.738677837704,163695.0
63515.74877763944,163709.0
63515.758877441185,163678.0
63515.76897724293,163645.0
63515.77907704467,163668.0
63515.78917684642,163623.0
63515.799276648155,163641.0
63515.8093764499,163631.0
63515.81947625164,163649.0
63515.82957605339,163607.0
63515.839675855124,163639.0
63515.84977565687,163665.0
63515.85987545861,163605.0
63515.86997526036,163629.0
63515.8800750621,163665.0
63515.89017486384,163670.0
63515.90027466558,163664.0
63515.91037446733,163657.0
63515.92047426907,163662.0
63515.930574070815,163685.0
63515.94067387255,163662.0
63515.950773674296,163677.0
63515.96087347604,163676.0
63515.970973277785,163693.0
63515.98107307953,163656.0
63515.991172881266,163672.0
63516.00127268301,163677.0
63516.011372484754,163676.0
63516.0214722865,163688.0
63516.031572088235,163686.0
63516.04167188998,163644.0
63516.051771691724,163679.0
63516.06187149347,163666.0
63516.07197129521,163663.0
63516.08207109695,163648.0
63516.09217089869,163671.0
63516.10227070044,163683.0
63516.11237050218,163638.0
63516.12247030392,163626.0
63516.13257010566,163673.0
63516.14266990741,163644.0
63516.15276970915,163651.0
63516.162869510896,163649.0
63516.17296931263,163684.0
63516.18306911438,163703.0
63516.19316891612,163662.0
63516.203268717865,163686.0
63516.21336851961,163691.0
63516.22346832135,163669.0
63516.23356812309,163694.0
63516.243667924835,163727.0
63516.25376772658,163708.0
63516.263867528316,163674.0
63516.27396733006,163662.0
63516.284067131804,163724.0
63516.29416693355,163707.0
63516.30426673529,163678.0
63516.31436653703,163714.0
63516.324466338774,163727.0
63516.33456614052,163722.0
63516.34466594226,163715.0
63516.35476574401,163746.0
63516.364865545744,163723.0
63516.37496534749,163730.0
63516.38506514923,163675.0
63516.395164950976,163734.0
63516.40526475271,163701.0
63516.41536455446,163713.0
63516.4254643562,163706.0
63516.435564157946,163681.0
63516.44566395969,163683.0
63516.45576376143,163659.0
63516.46586356317,163637.0
63516.475963364916,163626.0
63516.48606316666,163593.0
63516.496162968404,163597.0
63516.50626277014,163577.0
63516.516362571885,163547.0
63516.52646237363,163551.0
63516.53656217537,163602.0
63516.54666197711,163581.0
63516.556761778855,163575.0
63516.5668615806,163583.0
63516.57696138234,163575.0
63516.58706118409,163601.0
63516.597160985824,163576.0
63516.60726078757,163614.0
63516.61736058931,163584.0
63516.62746039106,163621.0
63516.6375601928,163634.0
63516.64765999454,163616.0
63516.65775979628,163575.0
63516.66785959803,163621.0
63516.67795939977,163620.0
63516.68805920151,163645.0
63516.69815900325,163593.0
63516.708258804996,163615.0
63516.71835860674,163612.0
63516.728458408485,163591.0
63516.73855821022,163612.0
63516.748658011966,163609.0
63516.75875781371,163615.0
63516.768857615454,163591.0
63516.7789574172,163611.0
63516.789057218935,163634.0
63516.79915702068,163575.0
63516.809256822424,163575.0
63516.81935662417,163593.0
63516.829456425905,163606.0
63516.83955622765,163586.0
63516.84965602939,163604.0
63516.85975583114,163616.0
63516.86985563288,163605.0
63516.87995543462,163580.0
63516.89005523636,163581.0
63516.90015503811,163640.0
63516.91025483985,163612.0
63516.920354641596,163630.0
63516.93045444333,163640.0
63516.94055424508,163588.0
63516.95065404682,163634.0
63516.960753848565,163623.0
63516.9708536503,163641.0
63516.98095345205,163623.0
63516.99105325379,163643.0
63517.001153055535,163608.0
63517.01125285728,163668.0
63517.021352659016,163625.0
63517.03145246076,163668.0
63517.041552262504,163643.0
63517.05165206425,163621.0
63517.06175186599,163646.0
63517.07185166773,163648.0
63517.081951469474,163650.0
63517.09205127122,163637.0
63517.10215107296,163654.0
63517.1122508747,163664.0
63517.12235067644,163660.0
63517.13245047819,163638.0
63517.14255027993,163672.0
63517.152650081676,163627.0
63517.16274988341,163619.0
63517.17284968516,163587.0
63517.1829494869,163574.0
63517.193049288646,163548.0
63517.20314909039,163534.0
63517.21324889213,163494.0
63517.22334869387,163510.0
63517.233448495615,163464.0
63517.24354829736,163475.0
63517.2536480991,163446.0
63517.26374790084,163437.0
63517.273847702585,163449.0
63517.28394750433,163460.0
63517.29404730607,163446.0
63517.30414710781,163437.0
63517.314246909555,163434.0
63517.3243467113,163454.0
63517.33444651304,163485.0
63517.34454631479,163431.0
63517.354646116524,163455.0
63517.36474591827,163460.0
63517.37484572001,163414.0
63517.38494552176,163467.0
63517.395045323494,163451.0
63517.40514512524,163478.0
63517.41524492698,163488.0
63517.42534472873,163461.0
63517.43544453047,163475.0
63517.44554433221,163501.0
63517.45564413395,163490.0
63517.465743935696,163527.0
63517.47584373744,163527.0
63517.485943539185,163467.0
63517.49604334092,163517.0
63517.506143142666,163514.0
63517.51624294441,163525.0
63517.526342746154,163514.0
63517.53644254789,163518.0
63517.546542349635,163523.0
63517.55664215138,163509.0
63517.566741953124,163538.0
63517.57684175487,163527.0
63517.586941556605,163499.0
63517.59704135835,163491.0
63517.60714116009,163482.0
63517.61724096184,163529.0
63517.62734076358,163549.0
63517.63744056532,163503.0
63517.64754036706,163556.0
63517.65764016881,163545.0
63517.66773997055,163531.0
63517.67783977229,163511.0
63517.68793957403,163563.0
63517.69803937578,163559.0
63517.70813917752,163537.0
63517.718238979265,163521.0
63517.728338781,163572.0
63517.738438582746,163552.0
63517.74853838449,163555.0
63517.758638186235,163570.0
63517.76873798798,163536.0
63517.778837789716,163548.0
63517.78893759146,163539.0
63517.799037393204,163567.0
63517.80913719495,163557.0
63517.819236996686,163553.0
63517.82933679843,163510.0
63517.839436600174,163522.0
63517.84953640192,163537.0
63517.85963620366,163547.0
63517.8697360054,163565.0
63517.87983580714,163556.0
63517.88993560889,163525.0
63517.90003541063,163557.0
63517.910135212376,163554.0
63517.92023501411,163579.0
63517.93033481586,163546.0
63517.9404346176,163537.0
63517.950534419346,163544.0
63517.96063422108,163520.0
63517.97073402283,163522.0
63517.98083382457,163492.0
63517.990933626315,163447.0
63518.00103342806,163428.0
63518.0111332298,163423.0
63518.02123303154,163425.0
63518.031332833285,163407.0
63518.04143263503,163397.0
63518.05153243677,163409.0
63518.06163223851,163394.0
63518.071732040255,163395.0
63518.081831842,163401.0
63518.09193164374,163409.0
63518.10203144548,163371.0
63518.112131247224,163397.0
63518.12223104897,163397.0
63518.13233085071,163354.0
63518.14243065246,163377.0
63518.152530454194,163398.0
63518.16263025594,163367.0
63518.17273005768,163412.0
63518.18282985943,163390.0
63518.19292966117,163405.0
63518.20302946291,163394.0
63518.21312926465,163435.0
63518.223229066396,163422.0
63518.23332886814,163412.0
63518.24342866988,163414.0
63518.25352847162,163407.0
63518.263628273366,163410.0
63518.27372807511,163399.0
63518.283827876854,163384.0
63518.29392767859,163377.0
63518.304027480335,163393.0
63518.31412728208,163400.0
63518.324227083824,163429.0
63518.33432688557,163408.0
63518.344426687305,163392.0
63518.35452648905,163386.0
63518.36462629079,163374.0
63518.37472609254,163400.0
63518.384825894274,163354.0
63518.39492569602,163355.0
63518.40502549776,163353.0
63518.41512529951,163357.0
63518.42522510125,163365.0
63518.43532490299,163393.0
63518.44542470473,163381.0
63518.45552450648,163419.0
63518.46562430822,163394.0
63518.475724109965,163428.0
63518.4858239117,163426.0
63518.495923713446,163429.0
63518.50602351519,163427.0
63518.516123316935,163448.0
63518.52622311867,163451.0
63518.536322920416,163416.0
63518.54642272216,163435.0
63518.556522523904,163436.0
63518.56662232565,163474.0
63518.576722127385,163438.0
63518.58682192913,163504.0
63518.596921730874,163482.0
63518.60702153262,163491.0
63518.61712133436,163495.0
63518.6272211361,163464.0
63518.63732093784,163533.0
63518.64742073959,163510.0
63518.65752054133,163501.0
63518.66762034307,163503.0
63518.67772014481,163532.0
63518.68781994656,163510.0
63518.6979197483,163549.0
63518.708019550046,163541.0
63518.71811935178,163539.0
63518.72821915353,163534.0
63518.73831895527,163535.0
63518.748418757015,163564.0
63518.75851855876,163561.0
63518.7686183605,163559.0
63518.77871816224,163554.0
63518.788817963985,163534.0
63518.79891776573,163525.0
63518.809017567466,163504.0
63518.81911736921,163518.0
63518.829217170955,163499.0
63518.8393169727,163431.0
63518.84941677444,163441.0
63518.85951657618,163408.0
63518.869616377924,163383.0
63518.87971617967,163438.0
63518.88981598141,163417.0
63518.89991578316,163409.0
63518.910015584894,163396.0
63518.92011538664,163402.0
63518.93021518838,163414.0
63518.940314990126,163433.0
63518.95041479186,163393.0
63518.96051459361,163456.0
63518.97061439535,163454.0
63518.980714197096,163443.0
63518.99081399884,163408.0
63519.00091380058,163431.0
63519.01101360232,163431.0
63519.021113404066,163462.0
63519.03121320581,163443.0
63519.041313007554,163488.0
63519.05141280929,163445.0
63519.061512611035,163492.0
63519.07161241278,163505.0
63519.08171221452,163447.0
63519.09181201626,163461.0
63519.101911818005,163466.0
63519.11201161975,163469.0
63519.12211142149,163447.0
63519.13221122324,163495.0
63519.142311024974,163465.0
63519.15241082672,163492.0
63519.16251062846,163442.0
63519.17261043021,163499.0
63519.18271023195,163475.0
63519.19281003369,163488.0
63519.20290983543,163502.0
63519.21300963718,163494.0
63519.22310943892,163477.0
63519.23320924066,163494.0
63519.2433090424,163501.0
63519.253408844146,163484.0
63519.26350864589,163508.0
63519.273608447635,163488.0
63519.28370824937,163521.0
63519.293808051116,163488.0
63519.30390785286,163525.0
63519.314007654604,163516.0
63519.32410745635,163502.0
63519.334207258085,163514.0
63519.34430705983,163533.0
63519.354406861574,163496.0
63519.36450666332,163569.0
63519.374606465055,163543.0
63519.3847062668,163542.0
63519.39480606854,163552.0
63519.40490587029,163549.0
63519.41500567203,163522.0
63519.42510547377,163574.0
63519.43520527551,163540.0
63519.44530507726,163558.0
63519.455404879,163563.0
63519.465504680746,163562.0
63519.47560448248,163542.0
63519.48570428423,163528.0
63519.49580408597,163579.0
63519.505903887715,163567.0
63519.51600368945,163568.0
63519.5261034912,163558.0
63519.53620329294,163603.0
63519.546303094685,163566.0
63519.55640289643,163588.0
63519.566502698166,163583.0
63519.57660249991,163602.0
63519.586702301654,163585.0
63519.5968021034,163600.0
63519.606901905136,163543.0
63519.61700170688,163567.0
63519.627101508624,163558.0
63519.63720131037,163555.0
63519.64730111211,163553.0
63519.65740091385,163494.0
63519.66750071559,163502.0
63519.67760051734,163510.0
63519.68770031908,163495.0
63519.697800120826,163450.0
63519.70789992256,163437.0
63519.71799972431,163454.0
63519.72809952605,163457.0
63519.738199327796,163448.0
63519.74829912954,163468.0
63519.75839893128,163459.0
63519.76849873302,163425.0
63519.778598534765,163480.0
63519.78869833651,163450.0
63519.79879813825,163475.0
63519.80889793999,163482.0
63519.818997741735,163502.0
63519.82909754348,163502.0
63519.83919734522,163502.0
63519.84929714696,163494.0
63519.859396948705,163508.0
63519.86949675045,163489.0
63519.87959655219,163510.0
63519.88969635393,163495.0
63519.899796155674,163488.0
63519.90989595742,163511.0
63519.91999575916,163504.0
63519.93009556091,163523.0
63519.940195362644,163510.0
63519.95029516439,163497.0
63519.96039496613,163523.0
63519.97049476788,163512.0
63519.98059456962,163518.0
63519.99069437136,163532.0
63520.0007941731,163542.0
63520.010893974846,163511.0
63520.02099377659,163507.0
63520.031093578335,163523.0
63520.04119338007,163520.0
63520.051293181816,163525.0
63520.06139298356,163501.0
63520.071492785304,163518.0
63520.08159258704,163552.0
63520.091692388785,163547.0
63520.10179219053,163547.0
63520.111891992274,163565.0
63520.12199179402,163516.0
63520.132091595755,163533.0
63520.1421913975,163529.0
63520.15229119924,163562.0
63520.16239100099,163539.0
63520.172490802724,163568.0
63520.18259060447,163569.0
63520.19269040621,163542.0
63520.20279020796,163546.0
63520.2128900097,163560.0
63520.22298981144,163600.0
63520.23308961318,163558.0
63520.24318941493,163542.0
63520.25328921667,163574.0
63520.263389018415,163571.0
63520.27348882015,163550.0
63520.283588621896,163569.0
63520.29368842364,163583.0
63520.303788225385,163569.0
63520.31388802712,163603.0
63520.323987828866,163608.0
63520.33408763061,163599.0
63520.344187432354,163595.0
63520.3542872341,163625.0
63520.364387035836,163636.0
63520.37448683758,163593.0
63520.384586639324,163621.0
63520.39468644107,163636.0
63520.40478624281,163615.0
63520.41488604455,163605.0
63520.42498584629,163600.0
63520.43508564804,163604.0
63520.44518544978,163541.0
63520.45528525152,163549.0
63520.46538505326,163537.0
63520.47548485501,163497.0
63520.48558465675,163478.0
63520.495684458496,163501.0
63520.50578426023,163495.0
63520.51588406198,163506.0
63520.52598386372,163520.0
63520.536083665465,163532.0
63520.54618346721,163486.0
63520.55628326895,163517.0
63520.56638307069,163486.0
63520.576482872435,163524.0
63520.58658267418,163512.0
63520.596682475916,163508.0
63520.60678227766,163475.0
63520.616882079405,163542.0
63520.62698188115,163534.0
63520.63708168289,163539.0
63520.64718148463,163560.0
63520.657281286374,163552.0
63520.66738108812,163502.0
63520.67748088986,163537.0
63520.68758069161,163561.0
63520.697680493344,163539.0
63520.70778029509,163550.0
63520.71788009683,163547.0
63520.72797989858,163550.0
63520.73807970031,163520.0
63520.74817950206,163564.0
63520.7582793038,163578.0
63520.768379105546,163523.0
63520.77847890729,163547.0
63520.78857870903,163555.0
63520.79867851077,163535.0
63520.808778312516,163530.0
63520.81887811426,163545.0
63520.828977916004,163562.0
63520.83907771774,163543.0
63520.849177519485,163559.0
63520.85927732123,163530.0
63520.869377122974,163530.0
63520.87947692471,163564.0
63520.889576726455,163563.0
63520.8996765282,163601.0
63520.90977632994,163572.0
63520.91987613169,163583.0
63520.929975933424,163574.0
63520.94007573517,163618.0
63520.95017553691,163588.0
63520.96027533866,163592.0
63520.9703751404,163598.0
63520.98047494214,163627.0
63520.99057474388,163598.0
63521.00067454563,163615.0
63521.01077434737,163613.0
63521.02087414911,163630.0
63521.03097395085,163586.0
63521.041073752596,163621.0
63521.05117355434,163618.0
63521.061273356085,163618.0
63521.07137315782,163623.0
63521.081472959566,163613.0
63521.09157276131,163642.0
63521.101672563054,163613.0
63521.1117723648,163668.0
63521.121872166535,163631.0
63521.13197196828,163621.0
63521.142071770024,163617.0
63521.15217157177,163663.0
63521.162271373505,163664.0
63521.17237117525,163655.0
63521.18247097699,163652.0
63521.19257077874,163685.0
63521.20267058048,163633.0
63521.21277038222,163640.0
63521.22287018396,163608.0
63521.23296998571,163667.0
63521.24306978745,163631.0
63521.253169589196,163620.0
63521.26326939093,163620.0
63521.27336919268,163569.0
63521.28346899442,163558.0
63521.293568796165,163534.0
63521.3036685979,163547.0
63521.31376839965,163540.0
63521.32386820139,163508.0
63521.333968003135,163516.0
63521.34406780488,163536.0
63521.354167606616,163502.0
63521.36426740836,163515.0
63521.374367210105,163525.0
63521.38446701185,163506.0
63521.39456681359,163535.0
63521.40466661533,163540.0
63521.414766417074,163540.0
63521.42486621882,163536.0
63521.43496602056,163574.0
63521.4450658223,163539.0
63521.455165624044,163548.0
63521.46526542579,163569.0
63521.47536522753,163533.0
63521.48546502928,163547.0
63521.49556483101,163578.0
63521.50566463276,163534.0
63521.5157644345,163574.0
63521.525864236246,163575.0
63521.53596403799,163562.0
63521.54606383973,163562.0
63521.55616364147,163536.0
63521.566263443216,163544.0
63521.57636324496,163558.0
63521.5864630467,163575.0
63521.59656284844,163552.0
63521.606662650185,163561.0
63521.61676245193,163555.0
63521.62686225367,163559.0
63521.63696205541,163542.0
63521.647061857155,163578.0
63521.6571616589,163573.0
63521.66726146064,163576.0
63521.67736126239,163578.0
63521.687461064124,163567.0
63521.69756086587,163575.0
63521.70766066761,163605.0
63521.71776046936,163590.0
63521.727860271094,163571.0
63521.73796007284,163558.0
63521.74805987458,163574.0
63521.75815967633,163574.0
63521.76825947807,163577.0
63521.77835927981,163605.0
63521.78845908155,163617.0
63521.798558883296,163638.0
63521.80865868504,163584.0
63521.818758486785,163588.0
63521.82885828852,163610.0
63521.838958090266,163609.0
63521.84905789201,163593.0
63521.859157693754,163603.0
63521.86925749549,163631.0
63521.879357297235,163651.0
63521.88945709898,163598.0
63521.899556900724,163615.0
63521.90965670247,163637.0
63521.919756504205,163636.0
63521.92985630595,163623.0
63521.93995610769,163625.0
63521.95005590944,163645.0
63521.96015571118,163669.0
63521.97025551292,163684.0
63521.98035531466,163657.0
63521.99045511641,163661.0
63522.00055491815,163632.0
63522.01065471989,163673.0
63522.02075452163,163690.0
63522.03085432338,163662.0
63522.04095412512,163673.0
63522.051053926865,163669.0
63522.0611537286,163634.0
63522.07125353035,163644.0
63522.08135333209,163625.0
63522.091453133835,163630.0
63522.10155293558,163603.0
63522.111652737316,163589.0
63522.12175253906,163546.0
63522.131852340804,163543.0
63522.14195214255,163526.0
63522.152051944286,163511.0
63522.16215174603,163498.0
63522.172251547774,163514.0
63522.18235134952,163490.0
63522.19245115126,163519.0
63522.202550953,163516.0
63522.212650754744,163510.0
63522.22275055649,163499.0
63522.23285035823,163520.0
63522.242950159976,163527.0
63522.25304996171,163520.0
63522.26314976346,163528.0
63522.2732495652,163546.0
63522.283349366946,163533.0
63522.29344916868,163528.0
63522.30354897043,163517.0
63522.31364877217,163562.0
63522.323748573916,163557.0
63522.33384837566,163537.0
63522.3439481774,163560.0
63522.35404797914,163522.0
63522.364147780885,163560.0
63522.37424758263,163524.0
63522.38434738437,163583.0
63522.39444718611,163516.0
63522.404546987855,163545.0
63522.4146467896,163535.0
63522.42474659134,163559.0
63522.43484639308,163541.0
63522.444946194824,163558.0
63522.45504599657,163552.0
63522.46514579831,163553.0
63522.47524560006,163582.0
63522.485345401794,163552.0
63522.49544520354,163576.0
63522.50554500528,163567.0
63522.51564480703,163577.0
63522.52574460877,163572.0
63522.53584441051,163578.0
63522.54594421225,163554.0
63522.556044013996,163595.0
63522.56614381574,163580.0
63522.57624361748,163611.0
63522.58634341922,163597.0
63522.596443220966,163602.0
63522.60654302271,163600.0
63522.616642824454,163612.0
63522.62674262619,163597.0
63522.636842427935,163607.0
63522.64694222968,163612.0
63522.657042031424,163598.0
63522.66714183317,163600.0
63522.677241634905,163603.0
63522.68734143665,163623.0
63522.69744123839,163649.0
63522.70754104014,163649.0
63522.717640841875,163602.0
63522.72774064362,163646.0
63522.73784044536,163613.0
63522.74794024711,163662.0
63522.75804004885,163629.0
63522.76813985059,163647.0
63522.77823965233,163653.0
63522.78833945408,163636.0
63522.79843925582,163663.0
63522.808539057565,163686.0
63522.8186388593,163659.0
63522.82873866105,163651.0
63522.83883846279,163662.0
63522.848938264535,163705.0
63522.85903806627,163691.0
63522.869137868016,163679.0
63522.87923766976,163715.0
63522.889337471504,163698.0
63522.89943727325,163697.0
63522.909537074986,163675.0
63522.91963687673,163713.0
63522.929736678474,163682.0
63522.93983648022,163656.0
63522.94993628196,163641.0
63522.9600360837,163641.0
63522.97013588544,163577.0
63522.98023568719,163602.0
63522.99033548893,163579.0
63523.00043529067,163586.0
63523.01053509241,163578.0
63523.02063489416,163568.0
63523.0307346959,163575.0
63523.040834497646,163557.0
63523.05093429938,163575.0
63523.06103410113,163588.0
63523.07113390287,163548.0
63523.081233704615,163599.0
63523.09133350636,163578.0
63523.1014333081,163594.0
63523.11153310984,163592.0
63523.121632911585,163620.0
63523.13173271333,163647.0
63523.141832515066,163629.0
63523.15193231681,163624.0
63523.162032118555,163617.0
63523.1721319203,163660.0
63523.18223172204,163635.0
63523.19233152378,163626.0
63523.202431325524,163660.0
63523.21253112727,163596.0
63523.22263092901,163647.0
63523.23273073076,163613.0
63523.242830532494,163671.0
63523.25293033424,163626.0
63523.26303013598,163644.0
63523.27312993773,163646.0
63523.28322973946,163647.0
63523.29332954121,163635.0
63523.30342934295,163662.0
63523.313529144696,163655.0
63523.32362894644,163651.0
63523.33372874818,163614.0
63523.34382854992,163663.0
63523.353928351666,163641.0
63523.36402815341,163651.0
63523.37412795515,163653.0
63523.38422775689,163688.0
63523.394327558635,163673.0
63523.40442736038,163649.0
63523.414527162124,163674.0
63523.42462696386,163680.0
63523.434726765605,163692.0
63523.44482656735,163675.0
63523.45492636909,163703.0
63523.46502617084,163690.0
63523.475125972574,163682.0
63523.48522577432,163690.0
