time,ppg
63011.656654745195,128638.0
63011.66670539477,128672.0
63011.67675604433,128691.0
63011.6868066939,128657.0
63011.69685734347,128701.0
63011.70690799304,128671.0
63011.71695864261,128679.0
63011.727009292175,128682.0
63011.73705994174,128681.0
63011.747110591314,128673.0
63011.75716124088,128651.0
63011.76721189045,128703.0
63011.77726254002,128651.0
63011.78731318958,128686.0
63011.797363839156,128685.0
63011.80741448872,128691.0
63011.817465138294,128692.0
63011.82751578786,128675.0
63011.837566437425,128680.0
63011.847617087,128662.0
63011.85766773656,128641.0
63011.86771838614,128640.0
63011.8777690357,128635.0
63011.88781968527,128611.0
63011.89787033484,128625.0
63011.907920984406,128608.0
63011.91797163397,128591.0
63011.928022283544,128590.0
63011.93807293311,128581.0
63011.94812358268,128595.0
63011.95817423225,128603.0
63011.96822488181,128591.0
63011.978275531386,128577.0
63011.98832618095,128560.0
63011.998376830525,128596.0
63012.00842748009,128567.0
63012.018478129656,128608.0
63012.02852877923,128592.0
63012.038579428794,128608.0
63012.04863007837,128618.0
63012.05868072793,128589.0
63012.0687313775,128579.0
63012.07878202707,128600.0
63012.088832676636,128644.0
63012.09888332621,128593.0
63012.108933975775,128629.0
63012.11898462534,128626.0
63012.12903527491,128586.0
63012.13908592448,128587.0
63012.149136574044,128652.0
63012.15918722362,128626.0
63012.16923787318,128607.0
63012.179288522755,128610.0
63012.18933917232,128610.0
63012.199389821886,128639.0
63012.20944047146,128608.0
63012.219491121024,128639.0
63012.2295417706,128613.0
63012.23959242016,128626.0
63012.24964306973,128615.0
63012.2596937193,128643.0
63012.26974436887,128608.0
63012.27979501844,128636.0
63012.289845668005,128659.0
63012.29989631757,128634.0
63012.30994696714,128593.0
63012.31999761671,128627.0
63012.33004826628,128655.0
63012.34009891585,128618.0
63012.35014956541,128630.0
63012.360200214986,128630.0
63012.37025086455,128641.0
63012.38030151412,128632.0
63012.39035216369,128632.0
63012.400402813255,128626.0
63012.41045346283,128610.0
63012.42050411239,128616.0
63012.43055476196,128642.0
63012.44060541153,128604.0
63012.4506560611,128622.0
63012.46070671067,128627.0
63012.470757360235,128639.0
63012.4808080098,128630.0
63012.490858659374,128632.0
63012.50090930894,128622.0
63012.51095995851,128654.0
63012.52101060808,128615.0
63012.53106125764,128625.0
63012.541111907216,128611.0
63012.55116255678,128594.0
63012.561213206354,128648.0
63012.57126385592,128631.0
63012.581314505485,128652.0
63012.59136515506,128626.0
63012.601415804624,128648.0
63012.61146645419,128640.0
63012.62151710376,128644.0
63012.63156775333,128635.0
63012.6416184029,128648.0
63012.651669052466,128673.0
63012.66171970203,128629.0
63012.671770351604,128674.0
63012.68182100117,128645.0
63012.69187165074,128662.0
63012.70192230031,128657.0
63012.71197294987,128674.0
63012.72202359945,128681.0
63012.73207424901,128670.0
63012.742124898585,128652.0
63012.75217554815,128702.0
63012.762226197716,128668.0
63012.77227684729,128654.0
63012.782327496854,128678.0
63012.79237814643,128630.0
63012.80242879599,128621.0
63012.81247944556,128638.0
63012.82253009513,128647.0
63012.832580744696,128600.0
63012.84263139426,128588.0
63012.852682043835,128599.0
63012.8627326934,128623.0
63012.87278334297,128584.0
63012.88283399254,128609.0
63012.892884642104,128606.0
63012.90293529168,128584.0
63012.91298594124,128564.0
63012.923036590815,128575.0
63012.93308724038,128615.0
63012.943137889946,128601.0
63012.95318853952,128593.0
63012.963239189085,128628.0
63012.97328983866,128553.0
63012.98334048822,128585.0
63012.99339113779,128617.0
63013.00344178736,128609.0
63013.01349243693,128550.0
63013.0235430865,128587.0
63013.033593736065,128570.0
63013.04364438563,128594.0
63013.0536950352,128567.0
63013.06374568477,128604.0
63013.073796334334,128640.0
63013.08384698391,128586.0
63013.09389763347,128627.0
63013.103948283046,128617.0
63013.11399893261,128641.0
63013.12404958218,128608.0
63013.13410023175,128607.0
63013.144150881315,128625.0
63013.15420153089,128616.0
63013.16425218045,128640.0
63013.17430283002,128600.0
63013.18435347959,128632.0
63013.19440412916,128605.0
63013.20445477873,128612.0
63013.214505428296,128628.0
63013.22455607786,128623.0
63013.234606727434,128599.0
63013.244657377,128641.0
63013.25470802657,128601.0
63013.26475867614,128617.0
63013.2748093257,128606.0
63013.284859975276,128614.0
63013.29491062484,128587.0
63013.30496127441,128611.0
63013.31501192398,128635.0
63013.325062573545,128607.0
63013.33511322312,128578.0
63013.345163872684,128617.0
63013.35521452225,128593.0
63013.36526517182,128617.0
63013.37531582139,128637.0
63013.38536647096,128613.0
63013.395417120526,128610.0
63013.40546777009,128588.0
63013.415518419664,128603.0
63013.42556906923,128644.0
63013.4356197188,128649.0
63013.44567036837,128628.0
63013.455721017934,128669.0
63013.46577166751,128627.0
63013.47582231707,128654.0
63013.485872966645,128654.0
63013.49592361621,128634.0
63013.505974265776,128639.0
63013.51602491535,128668.0
63013.526075564914,128652.0
63013.53612621448,128671.0
63013.54617686405,128631.0
63013.55622751362,128650.0
63013.56627816319,128677.0
63013.57632881276,128631.0
63013.58637946232,128620.0
63013.596430111895,128605.0
63013.60648076146,128555.0
63013.61653141103,128563.0
63013.6265820606,128572.0
63013.636632710164,128624.0
63013.64668335974,128686.0
63013.6567340093,128644.0
63013.666784658875,128666.0
63013.67683530844,128579.0
63013.686885958006,128492.0
63013.69693660758,128466.0
63013.706987257145,128453.0
63013.71703790672,128428.0
63013.72708855628,128454.0
63013.73713920585,128478.0
63013.74718985542,128501.0
63013.75724050499,128477.0
63013.76729115455,128445.0
63013.777341804125,128452.0
63013.78739245369,128468.0
63013.79744310326,128483.0
63013.80749375283,128523.0
63013.817544402395,128547.0
63013.82759505197,128519.0
63013.83764570153,128524.0
63013.847696351106,128544.0
63013.85774700067,128552.0
63013.86779765024,128512.0
63013.87784829981,128534.0
63013.887898949375,128521.0
63013.89794959895,128526.0
63013.90800024851,128540.0
63013.91805089808,128560.0
63013.92810154765,128547.0
63013.93815219722,128550.0
63013.94820284679,128550.0
63013.958253496356,128563.0
63013.96830414592,128551.0
63013.978354795494,128573.0
63013.98840544506,128579.0
63013.998456094625,128566.0
63014.0085067442,128560.0
63014.01855739376,128549.0
63014.028608043336,128578.0
63014.0386586929,128538.0
63014.04870934247,128567.0
63014.05875999204,128544.0
63014.068810641606,128570.0
63014.07886129118,128574.0
63014.088911940744,128578.0
63014.09896259031,128607.0
63014.10901323988,128572.0
63014.11906388945,128561.0
63014.12911453902,128570.0
63014.139165188586,128564.0
63014.14921583815,128562.0
63014.159266487724,128600.0
63014.16931713729,128592.0
63014.17936778686,128570.0
63014.18941843643,128613.0
63014.199469085994,128569.0
63014.20951973557,128599.0
63014.21957038513,128598.0
63014.2296210347,128592.0
63014.23967168427,128614.0
63014.249722333836,128611.0
63014.25977298341,128623.0
63014.269823632974,128575.0
63014.27987428254,128614.0
63014.28992493211,128622.0
63014.29997558168,128644.0
63014.31002623125,128611.0
63014.32007688082,128636.0
63014.33012753038,128628.0
63014.340178179955,128606.0
63014.35022882952,128609.0
63014.36027947909,128640.0
63014.37033012866,128603.0
63014.380380778224,128659.0
63014.3904314278,128648.0
63014.40048207736,128613.0
63014.410532726935,128623.0
63014.4205833765,128636.0
63014.43063402607,128629.0
63014.44068467564,128634.0
63014.450735325205,128667.0
63014.46078597478,128655.0
63014.47083662434,128661.0
63014.48088727391,128628.0
63014.49093792348,128612.0
63014.50098857305,128653.0
63014.51103922261,128614.0
63014.521089872185,128595.0
63014.53114052175,128606.0
63014.54119117132,128614.0
63014.55124182089,128623.0
63014.561292470455,128571.0
63014.57134312003,128595.0
63014.58139376959,128587.0
63014.591444419166,128588.0
63014.60149506873,128587.0
63014.6115457183,128557.0
63014.62159636787,128599.0
63014.631647017435,128601.0
63014.64169766701,128618.0
63014.65174831657,128562.0
63014.66179896614,128587.0
63014.67184961571,128564.0
63014.68190026528,128565.0
63014.69195091484,128594.0
63014.702001564416,128588.0
63014.71205221398,128582.0
63014.722102863554,128601.0
63014.73215351312,128582.0
63014.742204162685,128570.0
63014.75225481226,128570.0
63014.76230546182,128575.0
63014.772356111396,128591.0
63014.78240676096,128554.0
63014.79245741053,128581.0
63014.8025080601,128543.0
63014.812558709666,128613.0
63014.82260935924,128584.0
63014.832660008804,128595.0
63014.84271065837,128584.0
63014.85276130794,128565.0
63014.86281195751,128585.0
63014.87286260708,128572.0
63014.882913256646,128604.0
63014.89296390621,128553.0
63014.903014555784,128566.0
63014.91306520535,128576.0
63014.92311585492,128565.0
63014.93316650449,128540.0
63014.943217154054,128543.0
63014.95326780363,128570.0
63014.96331845319,128563.0
63014.97336910276,128555.0
63014.98341975233,128592.0
63014.993470401896,128578.0
63015.00352105147,128589.0
63015.013571701034,128560.0
63015.0236223506,128553.0
63015.03367300017,128577.0
63015.04372364974,128531.0
63015.05377429931,128548.0
63015.06382494888,128536.0
63015.07387559844,128564.0
63015.083926248015,128561.0
63015.09397689758,128578.0
63015.10402754715,128555.0
63015.11407819672,128576.0
63015.124128846284,128555.0
63015.13417949586,128569.0
63015.14423014542,128586.0
63015.154280794995,128575.0
63015.16433144456,128571.0
63015.17438209413,128530.0
63015.1844327437,128514.0
63015.194483393265,128569.0
63015.20453404283,128614.0
63015.2145846924,128591.0
63015.22463534197,128567.0
63015.23468599154,128578.0
63015.24473664111,128593.0
63015.25478729067,128555.0
63015.264837940245,128590.0
63015.27488858981,128578.0
63015.284939239384,128551.0
63015.29498988895,128557.0
63015.305040538515,128518.0
63015.31509118809,128535.0
63015.32514183765,128504.0
63015.335192487226,128527.0
63015.34524313679,128514.0
63015.35529378636,128491.0
63015.36534443593,128507.0
63015.375395085495,128531.0
63015.38544573507,128502.0
63015.39549638463,128499.0
63015.4055470342,128512.0
63015.41559768377,128525.0
63015.42564833334,128484.0
63015.4356989829,128498.0
63015.445749632476,128525.0
63015.45580028204,128465.0
63015.465850931614,128463.0
63015.47590158118,128492.0
63015.485952230745,128495.0
63015.49600288032,128506.0
63015.50605352988,128501.0
63015.516104179456,128480.0
63015.52615482902,128489.0
63015.53620547859,128475.0
63015.54625612816,128470.0
63015.556306777726,128478.0
63015.5663574273,128508.0
63015.576408076864,128478.0
63015.58645872643,128533.0
63015.596509376,128484.0
63015.60656002557,128511.0
63015.61661067514,128494.0
63015.626661324706,128530.0
63015.63671197427,128510.0
63015.646762623845,128514.0
63015.65681327341,128510.0
63015.666863922976,128528.0
63015.67691457255,128507.0
63015.686965222114,128535.0
63015.69701587169,128571.0
63015.70706652125,128527.0
63015.71711717082,128597.0
63015.72716782039,128579.0
63015.737218469956,128602.0
63015.74726911953,128570.0
63015.757319769094,128584.0
63015.76737041866,128591.0
63015.77742106823,128604.0
63015.7874717178,128572.0
63015.79752236737,128623.0
63015.80757301694,128608.0
63015.8176236665,128605.0
63015.827674316075,128611.0
63015.83772496564,128609.0
63015.84777561521,128555.0
63015.85782626478,128623.0
63015.867876914344,128633.0
63015.87792756392,128586.0
63015.88797821348,128583.0
63015.89802886305,128618.0
63015.90807951262,128618.0
63015.91813016219,128611.0
63015.92818081176,128624.0
63015.938231461325,128616.0
63015.94828211089,128596.0
63015.95833276046,128626.0
63015.96838341003,128607.0
63015.9784340596,128654.0
63015.98848470917,128641.0
63015.99853535873,128625.0
63016.008586008305,128648.0
63016.01863665787,128642.0
63016.028687307444,128626.0
63016.03873795701,128620.0
63016.048788606575,128614.0
63016.05883925615,128638.0
63016.06888990571,128632.0
63016.078940555286,128657.0
63016.08899120485,128648.0
63016.09904185442,128643.0
63016.10909250399,128621.0
63016.119143153555,128647.0
63016.12919380312,128609.0
63016.139244452694,128634.0
63016.14929510226,128610.0
63016.15934575183,128589.0
63016.1693964014,128572.0
63016.17944705096,128581.0
63016.189497700536,128601.0
63016.1995483501,128575.0
63016.209598999674,128554.0
63016.21964964924,128564.0
63016.229700298805,128599.0
63016.23975094838,128580.0
63016.24980159794,128568.0
63016.25985224752,128555.0
63016.26990289708,128563.0
63016.27995354665,128537.0
63016.29000419622,128601.0
63016.300054845786,128569.0
63016.31010549536,128544.0
63016.320156144924,128549.0
63016.33020679449,128582.0
63016.34025744406,128547.0
63016.35030809363,128557.0
63016.36035874319,128577.0
63016.370409392766,128544.0
63016.38046004233,128518.0
63016.390510691905,128557.0
63016.40056134147,128550.0
63016.410611991036,128564.0
63016.42066264061,128574.0
63016.430713290174,128577.0
63016.44076393975,128580.0
63016.45081458931,128583.0
63016.46086523888,128594.0
63016.47091588845,128575.0
63016.480966538016,128599.0
63016.49101718759,128606.0
63016.501067837155,128592.0
63016.51111848672,128562.0
63016.52116913629,128559.0
63016.53121978586,128533.0
63016.54127043543,128605.0
63016.551321085,128577.0
63016.56137173456,128561.0
63016.571422384135,128607.0
63016.5814730337,128577.0
63016.591523683266,128571.0
63016.60157433284,128558.0
63016.611624982404,128588.0
63016.62167563198,128583.0
63016.63172628154,128577.0
63016.64177693111,128580.0
63016.65182758068,128545.0
63016.66187823025,128579.0
63016.67192887982,128575.0
63016.681979529385,128613.0
63016.69203017895,128600.0
63016.70208082852,128565.0
63016.71213147809,128591.0
63016.72218212766,128610.0
63016.73223277723,128584.0
63016.74228342679,128589.0
63016.752334076366,128607.0
63016.76238472593,128614.0
63016.772435375504,128617.0
63016.78248602507,128636.0
63016.792536674635,128619.0
63016.80258732421,128597.0
63016.81263797377,128614.0
63016.82268862334,128622.0
63016.83273927291,128641.0
63016.84278992248,128644.0
63016.85284057205,128679.0
63016.862891221615,128684.0
63016.87294187118,128671.0
63016.882992520754,128683.0
63016.89304317032,128661.0
63016.90309381989,128701.0
63016.91314446946,128643.0
63016.92319511902,128677.0
63016.933245768596,128671.0
63016.94329641816,128677.0
63016.953347067734,128702.0
63016.9633977173,128681.0
63016.973448366865,128709.0
63016.98349901644,128670.0
63016.993549666004,128681.0
63017.00360031558,128657.0
63017.01365096514,128669.0
63017.02370161471,128647.0
63017.03375226428,128641.0
63017.043802913846,128615.0
63017.05385356341,128615.0
63017.063904212984,128633.0
63017.07395486255,128581.0
63017.08400551212,128621.0
63017.09405616169,128619.0
63017.10410681125,128614.0
63017.11415746083,128619.0
63017.12420811039,128608.0
63017.134258759965,128606.0
63017.14430940953,128639.0
63017.154360059096,128581.0
63017.16441070867,128614.0
63017.174461358234,128583.0
63017.18451200781,128602.0
63017.19456265737,128592.0
63017.20461330694,128612.0
63017.21466395651,128609.0
63017.224714606076,128626.0
63017.23476525565,128566.0
63017.244815905215,128603.0
63017.25486655478,128615.0
63017.26491720435,128565.0
63017.27496785392,128615.0
63017.285018503484,128600.0
63017.29506915306,128587.0
63017.30511980262,128559.0
63017.315170452195,128540.0
63017.32522110176,128547.0
63017.335271751326,128557.0
63017.3453224009,128542.0
63017.355373050465,128564.0
63017.36542370004,128519.0
63017.3754743496,128541.0
63017.38552499917,128519.0
63017.39557564874,128543.0
63017.40562629831,128501.0
63017.41567694788,128517.0
63017.425727597445,128516.0
63017.43577824701,128545.0
63017.44582889658,128502.0
63017.45587954615,128524.0
63017.46593019572,128562.0
63017.47598084529,128565.0
63017.48603149485,128618.0
63017.496082144426,128586.0
63017.50613279399,128580.0
63017.51618344356,128608.0
63017.52623409313,128640.0
63017.536284742695,128628.0
63017.54633539227,128600.0
63017.55638604183,128626.0
63017.5664366914,128658.0
63017.57648734097,128637.0
63017.58653799054,128602.0
63017.59658864011,128629.0
63017.606639289676,128631.0
63017.61668993924,128637.0
63017.626740588814,128655.0
63017.63679123838,128639.0
63017.64684188795,128685.0
63017.65689253752,128648.0
63017.66694318708,128651.0
63017.676993836656,128642.0
63017.68704448622,128644.0
63017.697095135794,128660.0
63017.70714578536,128676.0
63017.717196434925,128667.0
63017.7272470845,128648.0
63017.737297734064,128652.0
63017.74734838363,128651.0
63017.7573990332,128682.0
63017.76744968277,128667.0
63017.77750033234,128669.0
63017.787550981906,128662.0
63017.79760163147,128697.0
63017.807652281044,128656.0
63017.81770293061,128621.0
63017.82775358018,128643.0
63017.83780422975,128598.0
63017.847854879314,128604.0
63017.85790552889,128610.0
63017.86795617845,128608.0
63017.878006828025,128595.0
63017.88805747759,128627.0
63017.898108127156,128566.0
63017.90815877673,128595.0
63017.918209426294,128588.0
63017.92826007587,128579.0
63017.93831072543,128623.0
63017.948361375,128600.0
63017.95841202457,128580.0
63017.96846267414,128579.0
63017.9785133237,128566.0
63017.988563973275,128588.0
63017.99861462284,128619.0
63018.00866527241,128617.0
63018.01871592198,128572.0
63018.028766571544,128576.0
63018.03881722112,128565.0
63018.04886787068,128607.0
63018.058918520255,128563.0
63018.06896916982,128585.0
63018.079019819386,128574.0
63018.08907046896,128581.0
63018.099121118525,128564.0
63018.1091717681,128592.0
63018.11922241766,128588.0
63018.12927306723,128574.0
63018.1393237168,128586.0
63018.14937436637,128576.0
63018.15942501594,128576.0
63018.169475665505,128591.0
63018.17952631507,128592.0
63018.18957696464,128580.0
63018.19962761421,128589.0
63018.209678263775,128548.0
63018.21972891335,128603.0
63018.22977956291,128578.0
63018.239830212486,128577.0
63018.24988086205,128605.0
63018.25993151162,128595.0
63018.26998216119,128590.0
63018.280032810755,128597.0
63018.29008346033,128580.0
63018.30013410989,128586.0
63018.31018475946,128596.0
63018.32023540903,128600.0
63018.3302860586,128606.0
63018.34033670817,128566.0
63018.350387357736,128612.0
63018.3604380073,128607.0
63018.370488656874,128592.0
63018.38053930644,128592.0
63018.39058995601,128600.0
63018.40064060558,128615.0
63018.41069125514,128631.0
63018.420741904716,128592.0
63018.43079255428,128620.0
63018.44084320385,128611.0
63018.45089385342,128586.0
63018.460944502986,128584.0
63018.47099515256,128631.0
63018.481045802124,128621.0
63018.49109645169,128616.0
63018.50114710126,128646.0
63018.51119775083,128574.0
63018.5212484004,128621.0
63018.531299049966,128608.0
63018.54134969953,128651.0
63018.551400349104,128618.0
63018.56145099867,128629.0
63018.57150164824,128650.0
63018.58155229781,128612.0
63018.591602947374,128641.0
63018.60165359695,128641.0
63018.61170424651,128656.0
63018.621754896085,128646.0
63018.63180554565,128629.0
63018.641856195216,128651.0
63018.65190684479,128587.0
63018.661957494354,128597.0
63018.67200814392,128602.0
63018.68205879349,128589.0
63018.69210944306,128591.0
63018.70216009263,128581.0
63018.7122107422,128618.0
63018.72226139176,128592.0
63018.732312041335,128572.0
63018.7423626909,128621.0
63018.75241334047,128612.0
63018.76246399004,128575.0
63018.772514639604,128581.0
63018.78256528918,128615.0
63018.79261593874,128586.0
63018.802666588315,128582.0
63018.81271723788,128598.0
63018.82276788745,128601.0
63018.83281853702,128566.0
63018.842869186585,128609.0
63018.85291983616,128593.0
63018.86297048572,128574.0
63018.87302113529,128577.0
63018.88307178486,128602.0
63018.89312243443,128594.0
63018.90317308399,128579.0
63018.913223733565,128582.0
63018.92327438313,128610.0
63018.9333250327,128603.0
63018.94337568227,128577.0
63018.953426331835,128584.0
63018.96347698141,128626.0
63018.97352763097,128602.0
63018.983578280546,128588.0
63018.99362893011,128641.0
63019.00367957968,128602.0
63019.01373022925,128620.0
63019.023780878815,128601.0
63019.03383152839,128648.0
63019.04388217795,128571.0
63019.05393282752,128613.0
63019.06398347709,128617.0
63019.07403412666,128658.0
63019.08408477623,128589.0
63019.094135425796,128637.0
63019.10418607536,128645.0
63019.114236724934,128630.0
63019.1242873745,128640.0
63019.134338024065,128640.0
63019.14438867364,128669.0
63019.1544393232,128622.0
63019.164489972776,128656.0
63019.17454062234,128644.0
63019.18459127191,128646.0
63019.19464192148,128639.0
63019.204692571046,128665.0
63019.21474322062,128638.0
63019.224793870184,128634.0
63019.23484451975,128652.0
63019.24489516932,128660.0
63019.25494581889,128630.0
63019.26499646846,128640.0
63019.275047118026,128665.0
63019.28509776759,128638.0
63019.295148417164,128623.0
63019.30519906673,128660.0
63019.3152497163,128677.0
63019.32530036587,128684.0
63019.335351015434,128630.0
63019.34540166501,128661.0
63019.35545231457,128662.0
63019.36550296414,128658.0
63019.37555361371,128644.0
63019.385604263276,128665.0
63019.39565491285,128666.0
63019.405705562414,128648.0
63019.41575621198,128676.0
63019.42580686155,128644.0
63019.43585751112,128605.0
63019.44590816069,128657.0
63019.45595881026,128649.0
63019.46600945982,128631.0
63019.476060109395,128623.0
63019.48611075896,128631.0
63019.49616140853,128626.0
63019.5062120581,128600.0
63019.516262707664,128561.0
63019.52631335724,128596.0
63019.5363640068,128562.0
63019.546414656375,128584.0
63019.55646530594,128543.0
63019.56651595551,128619.0
63019.57656660508,128576.0
63019.586617254645,128585.0
63019.59666790422,128584.0
63019.60671855378,128598.0
63019.61676920335,128623.0
63019.62681985292,128582.0
63019.63687050249,128609.0
63019.64692115205,128588.0
63019.656971801625,128569.0
63019.66702245119,128598.0
63019.677073100764,128588.0
63019.68712375033,128565.0
63019.697174399895,128592.0
63019.70722504947,128610.0
63019.71727569903,128586.0
63019.727326348606,128592.0
63019.73737699817,128602.0
63019.74742764774,128614.0
63019.75747829731,128608.0
63019.767528946875,128602.0
63019.77757959645,128622.0
63019.78763024601,128586.0
63019.79768089558,128609.0
63019.80773154515,128593.0
63019.81778219472,128631.0
63019.82783284429,128624.0
63019.837883493856,128628.0
63019.84793414342,128609.0
63019.857984792994,128599.0
63019.86803544256,128599.0
63019.878086092125,128625.0
63019.8881367417,128638.0
63019.89818739126,128597.0
63019.908238040836,128635.0
63019.9182886904,128633.0
63019.92833933997,128660.0
63019.93838998954,128603.0
63019.948440639106,128655.0
63019.95849128868,128636.0
63019.968541938244,128624.0
63019.97859258781,128622.0
63019.98864323738,128652.0
63019.99869388695,128632.0
63020.00874453652,128605.0
63020.018795186086,128648.0
63020.02884583565,128626.0
63020.038896485225,128640.0
63020.04894713479,128631.0
63020.05899778436,128672.0
63020.06904843393,128649.0
63020.079099083494,128652.0
63020.08914973307,128646.0
63020.09920038263,128653.0
63020.1092510322,128628.0
63020.11930168177,128649.0
63020.129352331336,128652.0
63020.13940298091,128643.0
63020.149453630474,128674.0
63020.15950428004,128651.0
63020.16955492961,128669.0
63020.17960557918,128646.0
63020.18965622875,128651.0
63020.19970687832,128662.0
63020.20975752788,128664.0
63020.219808177455,128686.0
63020.22985882702,128645.0
63020.23990947659,128652.0
63020.24996012616,128675.0
63020.260010775724,128690.0
63020.2700614253,128699.0
63020.28011207486,128652.0
63020.290162724436,128688.0
63020.300213374,128677.0
63020.31026402357,128700.0
63020.32031467314,128678.0
63020.330365322705,128695.0
63020.34041597227,128685.0
63020.35046662184,128718.0
63020.36051727141,128680.0
63020.37056792098,128704.0
63020.38061857055,128718.0
63020.39066922011,128705.0
63020.400719869685,128666.0
63020.41077051925,128698.0
63020.420821168824,128676.0
63020.43087181839,128689.0
63020.440922467955,128683.0
63020.45097311753,128670.0
63020.46102376709,128687.0
63020.471074416666,128646.0
63020.48112506623,128684.0
63020.4911757158,128656.0
63020.50122636537,128632.0
63020.511277014935,128677.0
63020.52132766451,128677.0
63020.531378314074,128681.0
63020.54142896364,128688.0
63020.55147961321,128697.0
63020.56153026278,128670.0
63020.57158091234,128708.0
63020.581631561916,128701.0
63020.59168221148,128706.0
63020.601732861054,128739.0
63020.61178351062,128734.0
63020.621834160185,128752.0
63020.63188480976,128745.0
63020.64193545932,128723.0
63020.6519861089,128750.0
63020.66203675846,128740.0
63020.67208740803,128780.0
63020.6821380576,128778.0
63020.692188707166,128764.0
63020.70223935674,128780.0
63020.712290006304,128783.0
63020.72234065587,128766.0
63020.73239130544,128775.0
63020.74244195501,128772.0
63020.75249260458,128758.0
63020.762543254146,128785.0
63020.77259390371,128779.0
63020.782644553285,128778.0
63020.79269520285,128767.0
63020.802745852416,128766.0
63020.81279650199,128758.0
63020.822847151554,128767.0
63020.83289780113,128785.0
63020.84294845069,128755.0
63020.85299910026,128779.0
63020.86304974983,128777.0
63020.873100399396,128769.0
63020.88315104897,128750.0
63020.893201698535,128720.0
63020.9032523481,128759.0
63020.91330299767,128803.0
63020.92335364724,128768.0
63020.93340429681,128726.0
63020.94345494638,128767.0
63020.95350559594,128750.0
63020.963556245515,128785.0
63020.97360689508,128780.0
63020.98365754465,128756.0
63020.99370819422,128762.0
63021.003758843784,128717.0
63021.01380949336,128729.0
63021.02386014292,128744.0
63021.03391079249,128767.0
63021.04396144206,128789.0
63021.05401209163,128740.0
63021.0640627412,128759.0
63021.074113390765,128744.0
63021.08416404033,128738.0
63021.0942146899,128770.0
63021.10426533947,128748.0
63021.11431598904,128756.0
63021.12436663861,128749.0
63021.13441728817,128758.0
63021.144467937746,128760.0
63021.15451858731,128773.0
63021.164569236884,128708.0
63021.17461988645,128751.0
63021.184670536015,128741.0
63021.19472118559,128757.0
63021.20477183515,128765.0
63021.214822484726,128769.0
63021.22487313429,128794.0
63021.23492378386,128761.0
63021.24497443343,128780.0
63021.255025082995,128793.0
63021.26507573256,128750.0
63021.275126382134,128771.0
63021.2851770317,128762.0
63021.29522768127,128789.0
63021.30527833084,128752.0
63021.3153289804,128775.0
63021.325379629976,128759.0
63021.33543027954,128774.0
63021.345480929114,128753.0
63021.35553157868,128792.0
63021.365582228245,128755.0
63021.37563287782,128776.0
63021.385683527384,128798.0
63021.39573417696,128767.0
63021.40578482652,128743.0
63021.41583547609,128756.0
63021.42588612566,128704.0
63021.435936775226,128738.0
63021.4459874248,128701.0
63021.456038074364,128716.0
63021.46608872393,128750.0
63021.4761393735,128734.0
63021.48619002307,128719.0
63021.49624067263,128714.0
63021.50629132221,128745.0
63021.51634197177,128727.0
63021.526392621345,128741.0
63021.53644327091,128746.0
63021.546493920476,128713.0
63021.55654457005,128729.0
63021.566595219614,128769.0
63021.57664586919,128697.0
63021.58669651875,128734.0
63021.59674716832,128716.0
63021.60679781789,128731.0
63021.616848467456,128695.0
63021.62689911703,128731.0
63021.636949766595,128737.0
63021.64700041616,128718.0
63021.65705106573,128715.0
63021.6671017153,128710.0
63021.67715236487,128710.0
63021.68720301444,128720.0
63021.697253664,128770.0
63021.707304313575,128732.0
63021.71735496314,128699.0
63021.727405612706,128717.0
63021.73745626228,128728.0
63021.747506911845,128692.0
63021.75755756142,128729.0
63021.76760821098,128723.0
63021.77765886055,128734.0
63021.78770951012,128699.0
63021.79776015969,128737.0
63021.80781080926,128723.0
63021.817861458825,128716.0
63021.82791210839,128708.0
63021.83796275796,128763.0
63021.84801340753,128719.0
63021.8580640571,128732.0
63021.86811470667,128690.0
63021.87816535623,128698.0
63021.888216005806,128724.0
63021.89826665537,128731.0
63021.908317304944,128750.0
63021.91836795451,128709.0
63021.928418604075,128735.0
63021.93846925365,128716.0
63021.94851990321,128757.0
63021.95857055278,128726.0
63021.96862120235,128735.0
63021.97867185192,128742.0
63021.98872250149,128720.0
63021.998773151056,128736.0
63022.00882380062,128745.0
63022.018874450194,128762.0
63022.02892509976,128761.0
63022.03897574933,128778.0
63022.0490263989,128752.0
63022.05907704846,128754.0
63022.069127698036,128766.0
63022.0791783476,128733.0
63022.089228997174,128759.0
63022.09927964674,128747.0
63022.109330296305,128750.0
63022.11938094588,128779.0
63022.129431595444,128767.0
63022.13948224502,128746.0
63022.14953289458,128767.0
63022.15958354415,128758.0
63022.16963419372,128741.0
63022.179684843286,128770.0
63022.18973549285,128800.0
63022.199786142424,128773.0
63022.20983679199,128783.0
63022.21988744156,128795.0
63022.22993809113,128789.0
63022.239988740694,128774.0
63022.25003939027,128805.0
63022.26009003983,128800.0
63022.270140689405,128785.0
63022.28019133897,128832.0
63022.290241988536,128800.0
63022.30029263811,128790.0
63022.310343287674,128796.0
63022.32039393725,128789.0
63022.33044458681,128809.0
63022.34049523638,128792.0
63022.35054588595,128781.0
63022.36059653552,128778.0
63022.37064718509,128822.0
63022.380697834655,128795.0
63022.39074848422,128772.0
63022.40079913379,128829.0
63022.41084978336,128798.0
63022.420900432924,128797.0
63022.4309510825,128770.0
63022.44100173206,128822.0
63022.451052381635,128769.0
63022.4611030312,128791.0
63022.471153680766,128783.0
63022.48120433034,128758.0
63022.491254979905,128755.0
63022.50130562948,128785.0
63022.51135627904,128790.0
63022.52140692861,128746.0
63022.53145757818,128767.0
63022.54150822775,128761.0
63022.55155887732,128789.0
63022.561609526885,128752.0
63022.57166017645,128773.0
63022.58171082602,128746.0
63022.59176147559,128756.0
63022.60181212516,128716.0
63022.61186277473,128776.0
63022.62191342429,128755.0
63022.631964073866,128727.0
63022.64201472343,128735.0
63022.652065373,128763.0
63022.66211602257,128753.0
63022.672166672135,128767.0
63022.68221732171,128794.0
63022.69226797127,128776.0
63022.70231862084,128762.0
63022.71236927041,128774.0
63022.72241991998,128798.0
63022.73247056955,128765.0
63022.742521219116,128795.0
63022.75257186868,128788.0
63022.762622518254,128751.0
63022.77267316782,128776.0
63022.78272381739,128798.0
63022.79277446696,128799.0
63022.80282511652,128823.0
63022.812875766096,128814.0
63022.82292641566,128770.0
63022.832977065234,128803.0
63022.8430277148,128766.0
63022.853078364366,128778.0
63022.86312901394,128818.0
63022.873179663504,128811.0
63022.88323031307,128801.0
63022.89328096264,128802.0
63022.90333161221,128802.0
63022.91338226178,128799.0
63022.923432911346,128770.0
63022.93348356091,128828.0
63022.943534210484,128801.0
63022.95358486005,128803.0
63022.96363550962,128783.0
63022.97368615919,128783.0
63022.983736808754,128808.0
63022.99378745833,128807.0
63023.00383810789,128827.0
63023.013888757465,128815.0
63023.02393940703,128782.0
63023.033990056596,128804.0
63023.04404070617,128784.0
63023.054091355734,128805.0
63023.06414200531,128794.0
63023.07419265487,128810.0
63023.08424330444,128806.0
63023.09429395401,128817.0
63023.10434460358,128812.0
63023.11439525314,128799.0
63023.124445902715,128775.0
63023.13449655228,128756.0
63023.14454720185,128801.0
63023.15459785142,128785.0
63023.164648500984,128754.0
63023.17469915056,128774.0
63023.18474980012,128757.0
63023.194800449695,128750.0
63023.20485109926,128758.0
63023.21490174883,128723.0
63023.2249523984,128777.0
63023.235003047965,128754.0
63023.24505369754,128751.0
63023.2551043471,128766.0
63023.26515499667,128754.0
63023.27520564624,128770.0
63023.28525629581,128766.0
63023.29530694538,128779.0
63023.305357594945,128755.0
63023.31540824451,128757.0
63023.32545889408,128768.0
63023.33550954365,128794.0
63023.345560193215,128766.0
63023.35561084279,128810.0
63023.36566149235,128785.0
63023.375712141926,128771.0
63023.38576279149,128801.0
63023.39581344106,128772.0
63023.40586409063,128802.0
63023.415914740195,128808.0
63023.42596538977,128817.0
63023.43601603933,128788.0
63023.4460666889,128806.0
63023.45611733847,128787.0
63023.46616798804,128822.0
63023.47621863761,128799.0
63023.486269287176,128811.0
63023.49631993674,128804.0
63023.506370586314,128833.0
63023.51642123588,128806.0
63023.52647188545,128810.0
63023.53652253502,128816.0
63023.54657318458,128819.0
63023.556623834156,128802.0
63023.56667448372,128822.0
63023.57672513329,128805.0
63023.58677578286,128797.0
63023.596826432426,128849.0
63023.606877082,128831.0
63023.616927731564,128824.0
63023.62697838113,128809.0
63023.6370290307,128862.0
63023.64707968027,128869.0
63023.65713032984,128856.0
63023.667180979406,128809.0
63023.67723162897,128892.0
63023.687282278544,128849.0
63023.69733292811,128821.0
63023.70738357768,128817.0
63023.71743422725,128852.0
63023.727484876814,128861.0
63023.73753552639,128864.0
63023.74758617595,128827.0
63023.757636825525,128884.0
63023.76768747509,128850.0
63023.777738124656,128862.0
63023.78778877423,128873.0
63023.797839423794,128856.0
63023.80789007336,128881.0
63023.81794072293,128867.0
63023.8279913725,128851.0
63023.83804202207,128841.0
63023.84809267164,128881.0
63023.8581433212,128852.0
63023.868193970775,128865.0
63023.87824462034,128817.0
63023.88829526991,128821.0
63023.89834591948,128848.0
63023.908396569044,128826.0
63023.91844721862,128839.0
63023.92849786818,128837.0
63023.938548517755,128858.0
63023.94859916732,128872.0
63023.95864981689,128888.0
63023.96870046646,128849.0
63023.978751116025,128825.0
63023.9888017656,128825.0
63023.99885241516,128808.0
63024.00890306473,128806.0
63024.0189537143,128815.0
63024.02900436387,128811.0
63024.03905501343,128819.0
63024.049105663005,128799.0
63024.05915631257,128817.0
63024.069206962144,128807.0
63024.07925761171,128829.0
63024.089308261275,128816.0
63024.09935891085,128811.0
63024.10940956041,128796.0
63024.119460209986,128794.0
63024.12951085955,128817.0
63024.13956150912,128813.0
63024.14961215869,128829.0
63024.159662808255,128808.0
63024.16971345783,128808.0
63024.17976410739,128801.0
63024.18981475696,128828.0
63024.19986540653,128823.0
63024.2099160561,128847.0
63024.21996670567,128815.0
63024.230017355236,128793.0
63024.2400680048,128802.0
63024.250118654374,128829.0
63024.26016930394,128833.0
63024.27021995351,128822.0
63024.28027060308,128810.0
63024.29032125264,128807.0
63024.300371902216,128839.0
63024.31042255178,128851.0
63024.32047320135,128854.0
63024.33052385092,128850.0
63024.340574500486,128802.0
63024.35062515006,128835.0
63024.360675799624,128883.0
63024.37072644919,128830.0
63024.38077709876,128803.0
63024.39082774833,128825.0
63024.4008783979,128809.0
63024.410929047466,128840.0
63024.42097969703,128813.0
63024.431030346605,128821.0
63024.44108099617,128838.0
63024.45113164574,128840.0
63024.46118229531,128795.0
63024.471232944874,128829.0
63024.48128359445,128844.0
63024.49133424401,128818.0
63024.501384893585,128816.0
63024.51143554315,128815.0
63024.521486192716,128832.0
63024.53153684229,128854.0
63024.541587491854,128838.0
63024.55163814142,128838.0
63024.56168879099,128811.0
63024.57173944056,128844.0
63024.58179009013,128834.0
63024.5918407397,128814.0
63024.60189138926,128834.0
63024.611942038835,128843.0
63024.6219926884,128802.0
63024.63204333797,128828.0
63024.64209398754,128837.0
63024.652144637104,128829.0
63024.66219528668,128818.0
63024.67224593624,128813.0
63024.682296585815,128844.0
63024.69234723538,128848.0
63024.70239788495,128814.0
63024.71244853452,128828.0
63024.722499184085,128839.0
63024.73254983366,128850.0
63024.74260048322,128818.0
63024.75265113279,128845.0
63024.76270178236,128800.0
63024.77275243193,128793.0
63024.78280308149,128799.0
63024.792853731065,128848.0
63024.80290438063,128824.0
63024.812955030204,128842.0
63024.82300567977,128838.0
63024.833056329335,128793.0
63024.84310697891,128828.0
63024.85315762847,128804.0
63024.863208278046,128783.0
63024.87325892761,128809.0
63024.88330957718,128802.0
63024.89336022675,128796.0
63024.903410876315,128818.0
63024.91346152589,128793.0
63024.923512175454,128776.0
63024.93356282502,128793.0
63024.94361347459,128795.0
63024.95366412416,128788.0
63024.96371477373,128787.0
63024.973765423296,128810.0
63024.98381607286,128784.0
63024.993866722434,128784.0
63025.003917372,128789.0
63025.013968021565,128821.0
63025.02401867114,128775.0
63025.0340693207,128792.0
63025.04411997028,128799.0
63025.05417061984,128772.0
63025.06422126941,128794.0
63025.07427191898,128784.0
63025.084322568546,128779.0
63025.09437321812,128805.0
63025.104423867684,128816.0
63025.11447451725,128844.0
63025.12452516682,128843.0
63025.13457581639,128804.0
63025.14462646596,128807.0
63025.154677115526,128774.0
63025.16472776509,128789.0
63025.174778414665,128803.0
63025.18482906423,128785.0
63025.1948797138,128785.0
63025.20493036337,128771.0
63025.214981012934,128807.0
63025.22503166251,128833.0
63025.23508231207,128797.0
63025.24513296164,128803.0
63025.25518361121,128803.0
63025.265234260776,128789.0
63025.27528491035,128769.0
63025.285335559915,128826.0
63025.29538620948,128777.0
63025.30543685905,128771.0
63025.31548750862,128796.0
63025.32553815819,128801.0
63025.33558880776,128809.0
63025.34563945732,128779.0
63025.355690106895,128831.0
63025.36574075646,128809.0
63025.37579140603,128801.0
63025.3858420556,128788.0
63025.395892705164,128811.0
63025.40594335474,128778.0
63025.4159940043,128796.0
63025.426044653876,128828.0
63025.43609530344,128808.0
63025.44614595301,128772.0
63025.45619660258,128798.0
63025.466247252145,128820.0
63025.47629790171,128801.0
63025.48634855128,128795.0
63025.49639920085,128808.0
63025.50644985042,128782.0
63025.51650049999,128774.0
63025.52655114955,128794.0
63025.536601799125,128798.0
63025.54665244869,128788.0
63025.556703098264,128835.0
63025.56675374783,128772.0
63025.576804397395,128771.0
63025.58685504697,128800.0
63025.59690569653,128797.0
63025.606956346106,128819.0
63025.61700699567,128776.0
63025.62705764524,128803.0
63025.63710829481,128797.0
63025.647158944375,128783.0
63025.65720959395,128793.0
63025.667260243514,128789.0
63025.67731089308,128799.0
63025.68736154265,128771.0
63025.69741219222,128721.0
63025.70746284178,128775.0
63025.717513491356,128779.0
63025.72756414092,128746.0
63025.737614790494,128784.0
63025.74766544006,128775.0
63025.757716089625,128758.0
63025.7677667392,128770.0
63025.777817388764,128779.0
63025.78786803834,128775.0
63025.7979186879,128759.0
63025.80796933747,128779.0
63025.81801998704,128790.0
63025.828070636606,128752.0
63025.83812128618,128759.0
63025.848171935744,128795.0
63025.85822258531,128761.0
63025.86827323488,128763.0
63025.87832388445,128763.0
63025.88837453402,128785.0
63025.89842518359,128760.0
63025.90847583315,128764.0
63025.918526482725,128763.0
63025.92857713229,128777.0
63025.938627781856,128754.0
63025.94867843143,128764.0
63025.958729080994,128806.0
63025.96877973057,128726.0
63025.97883038013,128753.0
63025.9888810297,128754.0
63025.99893167927,128750.0
63026.008982328836,128731.0
63026.01903297841,128770.0
63026.029083627975,128766.0
63026.03913427754,128751.0
63026.04918492711,128761.0
63026.05923557668,128761.0
63026.06928622625,128740.0
63026.07933687582,128765.0
63026.08938752538,128739.0
63026.099438174955,128760.0
63026.10948882452,128733.0
63026.11953947409,128751.0
63026.12959012366,128767.0
63026.139640773225,128738.0
63026.1496914228,128734.0
63026.15974207236,128747.0
63026.16979272193,128752.0
63026.1798433715,128733.0
63026.18989402107,128724.0
63026.19994467064,128750.0
63026.209995320205,128746.0
63026.22004596977,128734.0
63026.23009661934,128711.0
63026.24014726891,128742.0
63026.25019791848,128770.0
63026.26024856805,128711.0
63026.27029921761,128756.0
63026.280349867186,128744.0
63026.29040051675,128762.0
63026.300451166324,128742.0
63026.31050181589,128753.0
63026.320552465455,128760.0
63026.33060311503,128755.0
63026.34065376459,128757.0
63026.350704414166,128730.0
63026.36075506373,128715.0
63026.3708057133,128732.0
63026.38085636287,128766.0
63026.390907012435,128744.0
63026.400957662,128745.0
63026.411008311574,128734.0
63026.42105896114,128753.0
63026.43110961071,128724.0
63026.44116026028,128730.0
63026.45121090984,128738.0
63026.461261559416,128700.0
63026.47131220898,128722.0
63026.481362858554,128714.0
63026.49141350812,128685.0
63026.501464157685,128694.0
63026.51151480726,128703.0
63026.521565456824,128709.0
63026.5316161064,128698.0
63026.54166675596,128681.0
63026.55171740553,128716.0
63026.5617680551,128734.0
63026.571818704666,128712.0
63026.58186935424,128708.0
63026.591920003804,128736.0
63026.60197065337,128670.0
63026.61202130294,128690.0
63026.62207195251,128703.0
63026.632122602074,128708.0
63026.64217325165,128672.0
63026.65222390121,128710.0
63026.662274550785,128691.0
63026.67232520035,128688.0
63026.682375849916,128676.0
63026.69242649949,128689.0
63026.702477149054,128716.0
63026.71252779863,128693.0
63026.72257844819,128720.0
63026.73262909776,128694.0
63026.74267974733,128708.0
63026.7527303969,128674.0
63026.76278104647,128707.0
63026.772831696035,128708.0
63026.7828823456,128677.0
63026.79293299517,128687.0
63026.80298364474,128718.0
63026.81303429431,128713.0
63026.82308494388,128700.0
63026.83313559344,128709.0
63026.843186243015,128723.0
63026.85323689258,128707.0
63026.863287542146,128722.0
63026.87333819172,128738.0
63026.883388841285,128707.0
63026.89343949086,128697.0
63026.90349014042,128720.0
63026.91354078999,128714.0
63026.92359143956,128713.0
63026.93364208913,128716.0
63026.9436927387,128741.0
63026.953743388265,128726.0
63026.96379403783,128718.0
63026.9738446874,128736.0
63026.98389533697,128744.0
63026.99394598654,128711.0
63027.00399663611,128707.0
63027.01404728567,128729.0
63027.024097935246,128723.0
63027.03414858481,128705.0
63027.044199234384,128703.0
63027.05424988395,128711.0
63027.064300533515,128726.0
63027.07435118309,128728.0
63027.08440183265,128760.0
63027.09445248222,128715.0
63027.10450313179,128738.0
63027.11455378136,128727.0
63027.12460443093,128761.0
63027.134655080496,128737.0
63027.14470573006,128749.0
63027.154756379634,128724.0
63027.1648070292,128740.0
63027.17485767877,128722.0
63027.18490832834,128733.0
63027.1949589779,128733.0
63027.205009627476,128732.0
63027.21506027704,128706.0
63027.225110926614,128712.0
63027.23516157618,128740.0
63027.245212225745,128716.0
63027.25526287532,128707.0
63027.265313524884,128714.0
63027.27536417446,128706.0
63027.28541482402,128687.0
63027.29546547359,128722.0
63027.30551612316,128706.0
63027.315566772726,128696.0
63027.32561742229,128700.0
63027.335668071864,128735.0
63027.34571872143,128709.0
63027.355769371,128726.0
63027.36582002057,128743.0
63027.375870670134,128691.0
63027.38592131971,128714.0
63027.39597196927,128686.0
63027.406022618845,128711.0
63027.41607326841,128718.0
63027.426123917976,128693.0
63027.43617456755,128694.0
63027.446225217114,128692.0
63027.45627586669,128700.0
63027.46632651625,128709.0
63027.47637716582,128722.0
63027.48642781539,128687.0
63027.49647846496,128690.0
63027.50652911453,128697.0
63027.516579764095,128726.0
63027.52663041366,128731.0
63027.53668106323,128677.0
63027.5467317128,128698.0
63027.556782362364,128690.0
63027.56683301194,128704.0
63027.5768836615,128695.0
63027.586934311075,128680.0
63027.59698496064,128713.0
63027.60703561021,128715.0
63027.61708625978,128734.0
63027.627136909345,128713.0
63027.63718755892,128699.0
63027.64723820848,128710.0
63027.65728885805,128736.0
63027.66733950762,128682.0
63027.67739015719,128713.0
63027.68744080676,128715.0
63027.697491456325,128716.0
63027.70754210589,128685.0
63027.71759275546,128717.0
63027.72764340503,128717.0
63027.7376940546,128714.0
63027.74774470417,128723.0
63027.75779535373,128714.0
63027.767846003306,128725.0
63027.77789665287,128701.0
63027.78794730244,128735.0
63027.79799795201,128724.0
63027.808048601575,128711.0
63027.81809925115,128736.0
63027.82814990071,128719.0
63027.83820055028,128714.0
63027.84825119985,128705.0
63027.85830184942,128742.0
63027.86835249899,128737.0
63027.878403148556,128728.0
63027.88845379812,128740.0
63027.898504447694,128742.0
63027.90855509726,128731.0
63027.91860574683,128732.0
63027.9286563964,128745.0
63027.93870704596,128758.0
63027.948757695536,128744.0
63027.9588083451,128707.0
63027.968858994675,128718.0
63027.97890964424,128749.0
63027.988960293806,128739.0
63027.99901094338,128717.0
63028.009061592944,128741.0
63028.01911224251,128741.0
63028.02916289208,128734.0
63028.03921354165,128740.0
63028.04926419122,128735.0
63028.059314840786,128741.0
63028.06936549035,128737.0
63028.079416139924,128696.0
63028.08946678949,128685.0
63028.09951743906,128690.0
63028.10956808863,128673.0
63028.119618738194,128676.0
63028.12966938777,128708.0
63028.13972003733,128709.0
63028.149770686905,128694.0
63028.15982133647,128722.0
63028.169871986036,128704.0
63028.17992263561,128703.0
63028.189973285174,128685.0
63028.20002393475,128716.0
63028.21007458431,128705.0
63028.22012523388,128666.0
63028.23017588345,128728.0
63028.24022653302,128678.0
63028.25027718258,128709.0
63028.260327832155,128690.0
63028.27037848172,128717.0
63028.28042913129,128697.0
63028.29047978086,128699.0
63028.300530430424,128683.0
63028.31058108,128719.0
63028.32063172956,128709.0
63028.330682379135,128701.0
63028.3407330287,128707.0
63028.35078367827,128686.0
63028.36083432784,128697.0
63028.370884977405,128689.0
63028.38093562698,128671.0
63028.39098627654,128701.0
63028.40103692611,128706.0
63028.41108757568,128698.0
63028.42113822525,128709.0
63028.43118887482,128661.0
63028.441239524385,128704.0
63028.45129017395,128693.0
63028.461340823524,128677.0
63028.47139147309,128698.0
63028.481442122655,128696.0
63028.49149277223,128656.0
63028.50154342179,128692.0
63028.511594071366,128700.0
63028.52164472093,128708.0
63028.5316953705,128727.0
63028.54174602007,128694.0
63028.551796669635,128707.0
63028.56184731921,128668.0
63028.57189796877,128706.0
63028.58194861834,128708.0
63028.59199926791,128706.0
63028.60204991748,128698.0
63028.61210056705,128704.0
63028.622151216616,128720.0
63028.63220186618,128724.0
63028.642252515754,128684.0
63028.65230316532,128729.0
63028.66235381489,128710.0
63028.67240446446,128697.0
63028.68245511402,128688.0
63028.692505763596,128693.0
63028.70255641316,128712.0
63028.71260706273,128714.0
63028.7226577123,128741.0
63028.732708361866,128727.0
63028.74275901144,128720.0
63028.752809661004,128711.0
63028.76286031057,128732.0
63028.77291096014,128707.0
63028.78296160971,128723.0
63028.79301225928,128749.0
63028.803062908846,128734.0
63028.81311355841,128709.0
63028.823164207985,128726.0
63028.83321485755,128739.0
63028.84326550712,128747.0
63028.85331615669,128739.0
63028.863366806254,128740.0
63028.87341745583,128756.0
63028.88346810539,128720.0
63028.893518754965,128758.0
63028.90356940453,128736.0
63028.913620054096,128744.0
63028.92367070367,128712.0
63028.933721353234,128767.0
63028.94377200281,128743.0
63028.95382265237,128742.0
63028.96387330194,128742.0
63028.97392395151,128759.0
63028.98397460108,128702.0
63028.99402525064,128732.0
63029.004075900215,128722.0
63029.01412654978,128713.0
63029.02417719935,128670.0
63029.03422784892,128698.0
63029.044278498484,128675.0
63029.05432914806,128697.0
63029.06437979762,128691.0
63029.074430447195,128701.0
63029.08448109676,128706.0
63029.09453174633,128677.0
63029.1045823959,128693.0
63029.114633045465,128689.0
63029.12468369504,128709.0
63029.1347343446,128684.0
63029.14478499417,128706.0
63029.15483564374,128689.0
63029.16488629331,128657.0
63029.17493694287,128665.0
63029.184987592445,128710.0
63029.19503824201,128687.0
63029.205088891584,128656.0
63029.21513954115,128699.0
63029.225190190715,128666.0
63029.23524084029,128684.0
63029.24529148985,128678.0
63029.255342139426,128699.0
63029.26539278899,128674.0
63029.27544343856,128682.0
63029.28549408813,128639.0
63029.295544737695,128688.0
63029.30559538727,128700.0
63029.315646036834,128690.0
63029.3256966864,128700.0
63029.33574733597,128694.0
63029.34579798554,128677.0
63029.35584863511,128686.0
63029.365899284676,128699.0
63029.37594993424,128683.0
63029.386000583814,128681.0
63029.39605123338,128692.0
63029.40610188295,128697.0
63029.41615253252,128658.0
63029.42620318208,128701.0
63029.436253831656,128677.0
63029.44630448122,128688.0
63029.45635513079,128679.0
63029.46640578036,128678.0
63029.476456429926,128699.0
63029.4865070795,128689.0
63029.496557729064,128716.0
63029.50660837863,128669.0
63029.5166590282,128666.0
63029.52670967777,128702.0
63029.53676032734,128696.0
63029.546810976906,128728.0
63029.55686162647,128638.0
63029.566912276045,128694.0
63029.57696292561,128676.0
63029.58701357518,128705.0
63029.59706422475,128675.0
63029.607114874314,128697.0
63029.61716552389,128710.0
63029.62721617345,128697.0
63029.637266823025,128700.0
63029.64731747259,128708.0
63029.657368122156,128688.0
63029.66741877173,128668.0
63029.677469421295,128726.0
63029.68752007086,128693.0
63029.69757072043,128704.0
63029.70762137,128707.0
63029.71767201957,128732.0
63029.72772266914,128704.0
63029.7377733187,128691.0
63029.747823968275,128732.0
63029.75787461784,128711.0
63029.76792526741,128720.0
63029.77797591698,128718.0
63029.788026566544,128735.0
63029.79807721612,128722.0
63029.80812786568,128727.0
63029.818178515256,128699.0
63029.82822916482,128692.0
63029.83827981439,128694.0
63029.84833046396,128732.0
63029.858381113525,128700.0
63029.8684317631,128738.0
63029.87848241266,128718.0
63029.88853306223,128728.0
63029.8985837118,128735.0
63029.90863436137,128713.0
63029.91868501093,128706.0
63029.928735660505,128701.0
63029.93878631007,128677.0
63029.948836959644,128687.0
63029.95888760921,128659.0
63029.968938258775,128703.0
63029.97898890835,128684.0
63029.98903955791,128677.0
63029.999090207486,128723.0
63030.00914085705,128679.0
63030.01919150662,128691.0
63030.02924215619,128677.0
63030.039292805755,128680.0
63030.04934345533,128690.0
63030.059394104894,128692.0
63030.06944475446,128676.0
63030.07949540403,128714.0
63030.0895460536,128632.0
63030.09959670317,128684.0
63030.109647352736,128709.0
63030.1196980023,128679.0
63030.129748651874,128709.0
63030.13979930144,128687.0
63030.149849951005,128714.0
63030.15990060058,128663.0
63030.169951250144,128683.0
63030.18000189972,128695.0
63030.19005254928,128700.0
63030.20010319885,128663.0
63030.21015384842,128713.0
63030.220204497986,128724.0
63030.23025514756,128674.0
63030.240305797124,128708.0
63030.25035644669,128686.0
63030.26040709626,128695.0
63030.27045774583,128696.0
63030.2805083954,128712.0
63030.290559044966,128723.0
63030.30060969453,128709.0
63030.310660344105,128703.0
63030.32071099367,128698.0
63030.33076164324,128718.0
63030.34081229281,128699.0
63030.350862942374,128706.0
63030.36091359195,128702.0
63030.37096424151,128677.0
63030.38101489108,128717.0
63030.39106554065,128690.0
63030.401116190216,128743.0
63030.41116683979,128682.0
63030.421217489355,128717.0
63030.43126813892,128699.0
63030.44131878849,128700.0
63030.45136943806,128747.0
63030.46142008763,128728.0
63030.4714707372,128720.0
63030.48152138676,128693.0
63030.491572036335,128733.0
63030.5016226859,128744.0
63030.51167333547,128715.0
63030.52172398504,128716.0
63030.531774634605,128734.0
63030.54182528418,128707.0
63030.55187593374,128732.0
63030.561926583316,128715.0
63030.57197723288,128769.0
63030.58202788245,128760.0
63030.59207853202,128740.0
63030.602129181585,128774.0
63030.61217983115,128745.0
63030.62223048072,128722.0
63030.63228113029,128744.0
63030.64233177986,128753.0
63030.65238242943,128732.0
63030.66243307899,128749.0
63030.672483728566,128764.0
63030.68253437813,128773.0
63030.692585027704,128771.0
63030.70263567727,128738.0
63030.712686326835,128770.0
63030.72273697641,128747.0
63030.73278762597,128746.0
63030.742838275546,128774.0
63030.75288892511,128782.0
63030.76293957468,128740.0
63030.77299022425,128752.0
63030.783040873815,128769.0
63030.79309152339,128769.0
63030.803142172954,128768.0
63030.81319282252,128747.0
63030.82324347209,128746.0
63030.83329412166,128767.0
63030.84334477122,128779.0
63030.853395420796,128769.0
63030.86344607036,128775.0
63030.873496719934,128751.0
63030.8835473695,128720.0
63030.893598019065,128740.0
63030.90364866864,128709.0
63030.913699318204,128697.0
63030.92374996778,128720.0
63030.93380061734,128735.0
63030.94385126691,128708.0
63030.95390191648,128740.0
63030.963952566046,128715.0
63030.97400321562,128696.0
63030.984053865184,128690.0
63030.99410451475,128728.0
63031.00415516432,128735.0
63031.01420581389,128712.0
63031.02425646346,128766.0
63031.03430711303,128722.0
63031.04435776259,128732.0
63031.054408412165,128705.0
63031.06445906173,128705.0
63031.074509711296,128735.0
63031.08456036087,128723.0
63031.094611010434,128695.0
63031.10466166001,128711.0
63031.11471230957,128746.0
63031.12476295914,128717.0
63031.13481360871,128755.0
63031.144864258276,128730.0
63031.15491490785,128703.0
63031.164965557415,128722.0
63031.17501620698,128702.0
63031.18506685655,128735.0
63031.19511750612,128721.0
63031.20516815569,128724.0
63031.21521880526,128740.0
63031.22526945482,128714.0
63031.235320104395,128728.0
63031.24537075396,128730.0
63031.25542140353,128756.0
63031.2654720531,128773.0
63031.275522702665,128721.0
63031.28557335224,128797.0
63031.2956240018,128787.0
63031.30567465137,128774.0
63031.31572530094,128797.0
63031.32577595051,128801.0
63031.33582660008,128793.0
63031.345877249645,128781.0
63031.35592789921,128779.0
63031.36597854878,128821.0
63031.37602919835,128808.0
63031.38607984792,128823.0
63031.39613049749,128844.0
63031.40618114705,128810.0
63031.416231796626,128863.0
63031.42628244619,128841.0
63031.436333095764,128846.0
63031.44638374533,128866.0
63031.456434394895,128852.0
63031.46648504447,128854.0
63031.47653569403,128879.0
63031.486586343606,128860.0
63031.49663699317,128892.0
63031.50668764274,128923.0
63031.51673829231,128873.0
63031.526788941876,128867.0
63031.53683959144,128882.0
63031.546890241014,128882.0
63031.55694089058,128853.0
63031.56699154015,128837.0
63031.57704218972,128868.0
63031.58709283928,128844.0
63031.597143488856,128833.0
63031.60719413842,128854.0
63031.617244787994,128834.0
63031.62729543756,128807.0
63031.637346087125,128825.0
63031.6473967367,128785.0
63031.657447386264,128798.0
63031.66749803584,128780.0
63031.6775486854,128813.0
63031.68759933497,128792.0
63031.69764998454,128785.0
63031.707700634106,128775.0
63031.71775128368,128764.0
63031.727801933244,128745.0
63031.73785258281,128764.0
63031.74790323238,128752.0
63031.75795388195,128750.0
63031.768004531514,128743.0
63031.77805518109,128750.0
63031.78810583065,128774.0
63031.798156480225,128753.0
63031.80820712979,128770.0
63031.818257779356,128774.0
63031.82830842893,128768.0
63031.838359078494,128779.0
63031.84840972807,128806.0
63031.85846037763,128777.0
63031.8685110272,128787.0
63031.87856167677,128796.0
63031.88861232634,128774.0
63031.89866297591,128769.0
63031.908713625475,128781.0
63031.91876427504,128784.0
63031.92881492461,128817.0
63031.93886557418,128770.0
63031.94891622375,128807.0
63031.95896687332,128775.0
63031.96901752288,128801.0
63031.979068172455,128795.0
63031.98911882202,128807.0
63031.999169471586,128788.0
63032.00922012116,128755.0
63032.019270770725,128751.0
63032.0293214203,128771.0
63032.03937206986,128812.0
63032.04942271943,128746.0
63032.059473369,128774.0
63032.06952401857,128752.0
63032.07957466814,128720.0
63032.089625317705,128711.0
63032.09967596727,128742.0
63032.10972661684,128714.0
63032.11977726641,128701.0
63032.12982791598,128712.0
63032.13987856555,128714.0
63032.14992921511,128688.0
63032.159979864686,128677.0
63032.17003051425,128700.0
63032.180081163824,128712.0
63032.19013181339,128705.0
63032.200182462955,128676.0
63032.21023311253,128745.0
63032.22028376209,128684.0
63032.23033441166,128695.0
63032.24038506123,128712.0
63032.2504357108,128712.0
63032.26048636037,128692.0
63032.270537009936,128701.0
63032.2805876595,128735.0
63032.290638309074,128716.0
63032.30068895864,128702.0
63032.31073960821,128714.0
63032.32079025778,128727.0
63032.33084090734,128706.0
63032.340891556916,128728.0
63032.35094220648,128750.0
63032.360992856055,128715.0
63032.37104350562,128722.0
63032.381094155186,128760.0
63032.39114480476,128752.0
63032.401195454324,128733.0
63032.4112461039,128714.0
63032.42129675346,128752.0
63032.43134740303,128704.0
63032.4413980526,128713.0
63032.451448702166,128686.0
63032.46149935173,128684.0
63032.471550001304,128684.0
63032.48160065087,128691.0
63032.49165130044,128710.0
63032.50170195001,128701.0
63032.511752599574,128668.0
63032.52180324915,128701.0
63032.53185389871,128701.0
63032.541904548285,128659.0
63032.55195519785,128679.0
63032.562005847416,128701.0
63032.57205649699,128672.0
63032.582107146554,128712.0
63032.59215779613,128711.0
63032.60220844569,128710.0
63032.61225909526,128710.0
63032.62230974483,128683.0
63032.6323603944,128724.0
63032.64241104397,128709.0
63032.652461693535,128700.0
63032.6625123431,128699.0
63032.67256299267,128722.0
63032.68261364224,128715.0
63032.692664291804,128710.0
63032.70271494138,128726.0
63032.71276559094,128695.0
63032.722816240515,128712.0
63032.73286689008,128698.0
63032.74291753965,128728.0
63032.75296818922,128694.0
63032.763018838785,128715.0
63032.77306948836,128717.0
63032.78312013792,128719.0
63032.79317078749,128704.0
63032.80322143706,128694.0
63032.81327208663,128677.0
63032.8233227362,128718.0
63032.833373385765,128692.0
63032.84342403533,128677.0
63032.8534746849,128696.0
63032.86352533447,128668.0
63032.87357598404,128672.0
63032.88362663361,128675.0
63032.89367728317,128678.0
63032.903727932746,128662.0
63032.91377858231,128714.0
63032.92382923188,128691.0
63032.93387988145,128694.0
63032.943930531015,128663.0
63032.95398118059,128700.0
63032.96403183015,128668.0
63032.97408247972,128695.0
63032.98413312929,128665.0
63032.99418377886,128657.0
63033.00423442843,128665.0
63033.014285077996,128676.0
63033.02433572756,128662.0
63033.034386377134,128656.0
63033.0444370267,128654.0
63033.05448767627,128669.0
63033.06453832584,128682.0
63033.0745889754,128647.0
63033.084639624976,128682.0
63033.09469027454,128660.0
63033.104740924115,128672.0
63033.11479157368,128622.0
63033.124842223246,128657.0
63033.13489287282,128661.0
63033.144943522384,128618.0
63033.15499417195,128674.0
63033.16504482152,128662.0
63033.17509547109,128655.0
63033.18514612066,128681.0
63033.195196770226,128695.0
63033.20524741979,128675.0
63033.215298069365,128673.0
63033.22534871893,128654.0
63033.2353993685,128671.0
63033.24545001807,128668.0
63033.255500667634,128679.0
63033.26555131721,128687.0
63033.27560196677,128678.0
63033.285652616345,128696.0
63033.29570326591,128698.0
63033.305753915476,128678.0
63033.31580456505,128729.0
63033.325855214614,128700.0
63033.33590586419,128710.0
63033.34595651375,128727.0
63033.35600716332,128707.0
63033.36605781289,128702.0
63033.37610846246,128758.0
63033.38615911202,128726.0
63033.396209761595,128724.0
63033.40626041116,128737.0
63033.41631106073,128720.0
63033.4263617103,128723.0
63033.436412359864,128724.0
63033.44646300944,128726.0
63033.456513659,128719.0
63033.466564308575,128735.0
63033.47661495814,128722.0
63033.48666560771,128745.0
63033.49671625728,128711.0
63033.506766906845,128734.0
63033.51681755642,128738.0
63033.52686820598,128749.0
63033.53691885555,128735.0
63033.54696950512,128749.0
63033.55702015469,128749.0
63033.56707080426,128722.0
63033.577121453825,128761.0
63033.58717210339,128741.0
63033.597222752964,128724.0
63033.60727340253,128707.0
63033.617324052095,128725.0
63033.62737470167,128744.0
63033.63742535123,128738.0
63033.647476000806,128725.0
63033.65752665037,128721.0
63033.66757729994,128745.0
63033.67762794951,128753.0
63033.687678599075,128720.0
63033.69772924865,128703.0
63033.70777989821,128714.0
63033.71783054778,128679.0
63033.72788119735,128659.0
63033.73793184692,128708.0
63033.74798249649,128688.0
63033.758033146056,128653.0
63033.76808379562,128680.0
63033.778134445194,128646.0
63033.78818509476,128690.0
63033.79823574433,128645.0
63033.8082863939,128619.0
63033.81833704346,128661.0
63033.828387693036,128660.0
63033.8384383426,128671.0
63033.84848899217,128668.0
63033.85853964174,128665.0
63033.868590291306,128683.0
63033.87864094088,128683.0
63033.888691590444,128683.0
63033.89874224001,128706.0
63033.90879288958,128719.0
63033.91884353915,128703.0
63033.92889418872,128701.0
63033.938944838286,128685.0
63033.94899548785,128733.0
63033.959046137425,128707.0
63033.96909678699,128694.0
63033.97914743656,128740.0
63033.98919808613,128715.0
63033.999248735694,128711.0
63034.00929938527,128724.0
63034.01935003483,128720.0
63034.029400684405,128705.0
63034.03945133397,128717.0
63034.049501983536,128723.0
63034.05955263311,128713.0
63034.069603282675,128687.0
63034.07965393225,128708.0
63034.08970458181,128713.0
63034.09975523138,128694.0
63034.10980588095,128697.0
63034.11985653052,128703.0
63034.12990718008,128693.0
63034.139957829655,128718.0
63034.15000847922,128697.0
63034.16005912879,128722.0
63034.17010977836,128713.0
63034.180160427924,128708.0
63034.1902110775,128730.0
63034.20026172706,128711.0
63034.210312376636,128678.0
63034.2203630262,128675.0
63034.23041367577,128709.0
63034.24046432534,128718.0
63034.250514974905,128687.0
63034.26056562448,128678.0
63034.27061627404,128734.0
63034.28066692361,128719.0
63034.29071757318,128707.0
63034.30076822275,128726.0
63034.31081887232,128715.0
63034.320869521885,128686.0
63034.33092017145,128718.0
63034.340970821024,128713.0
63034.35102147059,128715.0
63034.361072120155,128716.0
63034.37112276973,128712.0
63034.38117341929,128678.0
63034.391224068866,128709.0
63034.40127471843,128721.0
63034.411325368,128724.0
63034.42137601757,128721.0
63034.431426667135,128693.0
63034.44147731671,128736.0
63034.451527966274,128723.0
63034.46157861584,128716.0
63034.47162926541,128726.0
63034.48167991498,128730.0
63034.49173056455,128732.0
63034.501781214116,128718.0
63034.51183186368,128730.0
63034.521882513254,128740.0
63034.53193316282,128738.0
63034.54198381239,128760.0
63034.55203446196,128741.0
63034.56208511152,128748.0
63034.5721357611,128736.0
63034.58218641066,128757.0
63034.59223706023,128744.0
63034.6022877098,128746.0
63034.612338359366,128765.0
63034.62238900894,128766.0
63034.632439658504,128742.0
63034.64249030807,128759.0
63034.65254095764,128753.0
63034.66259160721,128740.0
63034.67264225678,128765.0
63034.682692906346,128711.0
63034.69274355591,128730.0
63034.702794205485,128731.0
63034.71284485505,128727.0
63034.72289550462,128728.0
63034.73294615419,128718.0
63034.742996803754,128659.0
63034.75304745333,128707.0
63034.76309810289,128713.0
63034.773148752465,128716.0
63034.78319940203,128735.0
63034.793250051596,128748.0
63034.80330070117,128719.0
63034.813351350735,128747.0
63034.8234020003,128728.0
63034.83345264987,128745.0
63034.84350329944,128707.0
63034.85355394901,128705.0
63034.86360459858,128720.0
63034.87365524814,128710.0
63034.883705897715,128725.0
63034.89375654728,128702.0
63034.90380719685,128726.0
63034.91385784642,128727.0
63034.923908495985,128748.0
63034.93395914556,128699.0
63034.94400979512,128732.0
63034.954060444696,128717.0
63034.96411109426,128721.0
63034.97416174383,128723.0
63034.9842123934,128725.0
63034.994263042965,128745.0
63035.00431369254,128708.0
63035.0143643421,128766.0
63035.02441499167,128717.0
63035.03446564124,128748.0
63035.04451629081,128727.0
63035.05456694037,128742.0
63035.064617589946,128722.0
63035.07466823951,128714.0
63035.084718889084,128744.0
63035.09476953865,128743.0
63035.104820188215,128725.0
63035.11487083779,128714.0
63035.12492148735,128700.0
63035.134972136926,128727.0
63035.14502278649,128699.0
63035.15507343606,128733.0
63035.16512408563,128748.0
63035.175174735195,128713.0
63035.18522538477,128737.0
63035.195276034334,128741.0
63035.2053266839,128748.0
63035.21537733347,128739.0
63035.22542798304,128739.0
63035.23547863261,128731.0
63035.245529282176,128734.0
63035.25557993174,128747.0
63035.265630581314,128741.0
63035.27568123088,128722.0
63035.285731880445,128738.0
63035.29578253002,128704.0
63035.305833179584,128762.0
63035.31588382916,128751.0
63035.32593447872,128737.0
63035.33598512829,128787.0
63035.34603577786,128750.0
63035.356086427426,128755.0
63035.366137077,128743.0
63035.376187726564,128766.0
63035.38623837613,128740.0
63035.3962890257,128740.0
63035.40633967527,128756.0
63035.41639032484,128765.0
63035.42644097441,128724.0
63035.43649162397,128711.0
63035.446542273545,128750.0
63035.45659292311,128784.0
63035.46664357268,128746.0
63035.47669422225,128765.0
63035.486744871814,128753.0
63035.49679552139,128766.0
63035.50684617095,128754.0
63035.51689682052,128757.0
63035.52694747009,128756.0
63035.536998119656,128744.0
63035.54704876923,128768.0
63035.557099418795,128726.0
63035.56715006836,128747.0
63035.57720071793,128749.0
63035.5872513675,128755.0
63035.59730201707,128779.0
63035.60735266664,128758.0
63035.6174033162,128736.0
63035.627453965775,128784.0
63035.63750461534,128757.0
63035.64755526491,128759.0
63035.65760591448,128745.0
63035.667656564045,128710.0
63035.67770721362,128725.0
63035.68775786318,128724.0
63035.697808512756,128734.0
63035.70785916232,128731.0
63035.71790981189,128722.0
63035.72796046146,128723.0
63035.738011111025,128737.0
63035.74806176059,128683.0
63035.75811241016,128758.0
63035.76816305973,128723.0
63035.7782137093,128721.0
63035.78826435887,128689.0
63035.79831500843,128685.0
63035.808365658006,128735.0
63035.81841630757,128717.0
63035.828466957144,128703.0
63035.83851760671,128716.0
63035.848568256275,128695.0
63035.85861890585,128713.0
63035.86866955541,128685.0
63035.878720204986,128737.0
63035.88877085455,128679.0
63035.89882150412,128725.0
63035.90887215369,128700.0
63035.918922803256,128754.0
63035.92897345283,128696.0
63035.939024102394,128729.0
63035.94907475196,128783.0
63035.95912540153,128717.0
63035.9691760511,128748.0
63035.97922670066,128728.0
63035.989277350236,128760.0
63035.9993279998,128744.0
63036.009378649374,128734.0
63036.01942929894,128740.0
63036.029479948505,128761.0
63036.03953059808,128702.0
63036.049581247644,128763.0
63036.05963189722,128748.0
63036.06968254678,128715.0
63036.07973319635,128724.0
63036.08978384592,128757.0
63036.099834495486,128749.0
63036.10988514506,128766.0
63036.119935794624,128749.0
63036.12998644419,128750.0
63036.14003709376,128760.0
63036.15008774333,128721.0
63036.1601383929,128767.0
63036.17018904247,128750.0
63036.18023969203,128770.0
63036.190290341605,128753.0
63036.20034099117,128793.0
63036.210391640736,128746.0
63036.22044229031,128743.0
63036.230492939874,128758.0
63036.24054358945,128773.0
63036.25059423901,128780.0
63036.26064488858,128771.0
63036.27069553815,128791.0
63036.28074618772,128730.0
63036.29079683729,128719.0
63036.300847486855,128772.0
63036.31089813642,128753.0
63036.32094878599,128749.0
63036.33099943556,128760.0
63036.34105008513,128792.0
63036.3511007347,128737.0
63036.36115138426,128740.0
63036.371202033835,128789.0
63036.3812526834,128755.0
63036.39130333297,128769.0
63036.40135398254,128729.0
63036.411404632105,128787.0
63036.42145528168,128768.0
63036.43150593124,128759.0
63036.44155658081,128762.0
63036.45160723038,128736.0
63036.46165787995,128738.0
63036.47170852952,128762.0
63036.481759179085,128799.0
63036.49180982865,128764.0
63036.50186047822,128746.0
63036.51191112779,128769.0
63036.52196177736,128780.0
63036.53201242693,128738.0
63036.54206307649,128759.0
63036.552113726066,128749.0
63036.56216437563,128751.0
63036.572215025204,128764.0
63036.58226567477,128757.0
63036.592316324335,128740.0
63036.60236697391,128757.0
63036.61241762347,128721.0
63036.622468273046,128712.0
63036.63251892261,128732.0
63036.64256957218,128732.0
63036.65262022175,128717.0
63036.662670871316,128731.0
63036.67272152088,128748.0
63036.682772170454,128771.0
63036.69282282002,128767.0
63036.70287346959,128762.0
63036.71292411916,128747.0
63036.72297476872,128733.0
63036.733025418296,128783.0
63036.74307606786,128725.0
63036.753126717434,128724.0
63036.763177367,128747.0
63036.773228016566,128779.0
63036.78327866614,128717.0
63036.793329315704,128769.0
63036.80337996528,128758.0
63036.81343061484,128760.0
63036.82348126441,128732.0
63036.83353191398,128776.0
63036.843582563546,128748.0
63036.85363321312,128733.0
63036.863683862684,128770.0
63036.87373451225,128779.0
63036.88378516182,128735.0
63036.89383581139,128738.0
63036.903886460954,128762.0
63036.91393711053,128768.0
63036.92398776009,128750.0
63036.934038409665,128743.0
63036.94408905923,128751.0
63036.954139708796,128772.0
63036.96419035837,128761.0
63036.974241007934,128790.0
63036.98429165751,128783.0
63036.99434230707,128732.0
63037.00439295664,128766.0
63037.01444360621,128743.0
63037.02449425578,128737.0
63037.03454490535,128725.0
63037.044595554915,128764.0
63037.05464620448,128764.0
63037.06469685405,128772.0
63037.07474750362,128774.0
63037.08479815319,128746.0
63037.09484880276,128774.0
63037.10489945232,128792.0
63037.114950101895,128752.0
63037.12500075146,128775.0
63037.13505140103,128771.0
63037.1451020506,128753.0
63037.155152700165,128776.0
63037.16520334974,128779.0
63037.1752539993,128772.0
63037.18530464887,128763.0
63037.19535529844,128798.0
63037.20540594801,128802.0
63037.21545659758,128784.0
63037.225507247145,128783.0
63037.23555789671,128803.0
63037.24560854628,128810.0
63037.25565919585,128764.0
63037.26570984542,128787.0
63037.27576049499,128802.0
63037.28581114455,128772.0
63037.295861794126,128798.0
63037.30591244369,128795.0
63037.315963093264,128798.0
63037.32601374283,128817.0
63037.336064392395,128777.0
63037.34611504197,128802.0
63037.35616569153,128787.0
63037.3662163411,128785.0
63037.37626699067,128795.0
63037.38631764024,128788.0
63037.39636828981,128801.0
63037.406418939376,128824.0
63037.41646958894,128815.0
63037.426520238514,128767.0
63037.43657088808,128766.0
63037.44662153765,128778.0
63037.45667218722,128808.0
63037.46672283678,128777.0
63037.476773486356,128785.0
63037.48682413592,128798.0
63037.496874785495,128785.0
63037.50692543506,128753.0
63037.516976084626,128735.0
63037.5270267342,128742.0
63037.537077383764,128736.0
63037.54712803334,128760.0
63037.5571786829,128753.0
63037.56722933247,128724.0
63037.57727998204,128731.0
63037.587330631606,128758.0
63037.59738128117,128778.0
63037.607431930744,128743.0
63037.61748258031,128731.0
63037.62753322988,128765.0
63037.63758387945,128773.0
63037.647634529014,128783.0
63037.65768517859,128747.0
63037.66773582815,128754.0
63037.677786477725,128736.0
63037.68783712729,128767.0
63037.697887776856,128766.0
63037.70793842643,128751.0
63037.717989075994,128761.0
63037.72803972557,128723.0
63037.73809037513,128725.0
63037.7481410247,128730.0
63037.75819167427,128754.0
63037.76824232384,128731.0
63037.77829297341,128766.0
63037.788343622975,128752.0
63037.79839427254,128742.0
63037.80844492211,128721.0
63037.81849557168,128793.0
63037.828546221244,128741.0
63037.83859687082,128747.0
63037.84864752038,128745.0
63037.858698169955,128777.0
63037.86874881952,128733.0
63037.87879946909,128755.0
63037.88885011866,128736.0
63037.898900768225,128752.0
63037.9089514178,128755.0
63037.91900206736,128755.0
63037.92905271693,128731.0
63037.9391033665,128769.0
63037.94915401607,128767.0
63037.95920466564,128751.0
63037.969255315205,128773.0
63037.97930596477,128769.0
63037.989356614344,128762.0
63037.99940726391,128762.0
63038.00945791348,128745.0
63038.01950856305,128769.0
63038.02955921261,128809.0
63038.039609862186,128778.0
63038.04966051175,128773.0
63038.05971116132,128786.0
63038.06976181089,128769.0
63038.079812460455,128781.0
63038.08986311003,128793.0
63038.09991375959,128789.0
63038.10996440916,128810.0
63038.12001505873,128789.0
63038.1300657083,128785.0
63038.14011635787,128780.0
63038.150167007436,128757.0
63038.160217657,128797.0
63038.170268306574,128763.0
63038.18031895614,128775.0
63038.19036960571,128782.0
63038.20042025528,128787.0
63038.21047090484,128788.0
63038.220521554416,128764.0
63038.23057220398,128763.0
63038.240622853555,128806.0
63038.25067350312,128800.0
63038.260724152686,128794.0
63038.27077480226,128798.0
63038.280825451824,128800.0
63038.29087610139,128806.0
63038.30092675096,128833.0
63038.31097740053,128795.0
63038.3210280501,128787.0
63038.331078699666,128807.0
63038.34112934923,128824.0
63038.351179998805,128845.0
63038.36123064837,128796.0
63038.37128129794,128809.0
63038.38133194751,128823.0
63038.391382597074,128800.0
63038.40143324665,128797.0
63038.41148389621,128786.0
63038.421534545785,128814.0
63038.43158519535,128759.0
63038.441635844916,128761.0
63038.45168649449,128780.0
63038.461737144054,128771.0
63038.47178779363,128749.0
63038.48183844319,128782.0
63038.49188909276,128735.0
63038.50193974233,128759.0
63038.5119903919,128741.0
63038.52204104146,128750.0
63038.532091691035,128758.0
63038.5421423406,128752.0
63038.55219299017,128766.0
63038.56224363974,128785.0
63038.572294289304,128757.0
63038.58234493888,128742.0
63038.59239558844,128779.0
63038.602446238016,128766.0
63038.61249688758,128759.0
63038.62254753715,128807.0
63038.63259818672,128755.0
63038.642648836285,128739.0
63038.65269948586,128769.0
63038.66275013542,128725.0
63038.67280078499,128790.0
63038.68285143456,128743.0
63038.69290208413,128752.0
63038.7029527337,128762.0
63038.713003383265,128756.0
63038.72305403283,128758.0
63038.733104682404,128781.0
63038.74315533197,128750.0
63038.75320598154,128725.0
63038.76325663111,128749.0
63038.77330728067,128772.0
63038.783357930246,128756.0
63038.79340857981,128752.0
63038.80345922938,128793.0
63038.81350987895,128770.0
63038.823560528515,128755.0
63038.83361117809,128749.0
63038.843661827654,128780.0
63038.85371247722,128758.0
63038.86376312679,128756.0
63038.87381377636,128762.0
63038.88386442593,128781.0
63038.893915075496,128771.0
63038.90396572506,128752.0
63038.914016374634,128778.0
63038.9240670242,128756.0
63038.93411767377,128751.0
63038.94416832334,128770.0
63038.9542189729,128779.0
63038.96426962248,128722.0
63038.97432027204,128771.0
63038.98437092161,128765.0
63038.99442157118,128766.0
63039.004472220746,128760.0
63039.01452287032,128773.0
63039.024573519884,128750.0
63039.03462416945,128764.0
63039.04467481902,128760.0
63039.05472546859,128816.0
63039.06477611816,128772.0
63039.074826767726,128751.0
63039.08487741729,128757.0
63039.094928066865,128768.0
63039.10497871643,128788.0
63039.115029366,128760.0
63039.12508001557,128785.0
63039.135130665134,128760.0
63039.14518131471,128787.0
63039.15523196427,128772.0
63039.165282613845,128770.0
63039.17533326341,128747.0
63039.185383912976,128779.0
63039.19543456255,128784.0
63039.205485212115,128768.0
63039.21553586169,128796.0
63039.22558651125,128805.0
63039.23563716082,128781.0
63039.24568781039,128780.0
63039.25573845996,128785.0
63039.26578910952,128821.0
63039.275839759095,128783.0
63039.28589040866,128776.0
63039.29594105823,128805.0
63039.3059917078,128776.0
63039.316042357364,128778.0
63039.32609300694,128772.0
63039.3361436565,128795.0
63039.346194306076,128766.0
63039.35624495564,128760.0
63039.36629560521,128778.0
63039.37634625478,128776.0
63039.386396904345,128727.0
63039.39644755392,128752.0
63039.40649820348,128769.0
63039.41654885305,128742.0
63039.42659950262,128730.0
63039.43665015219,128738.0
63039.44670080176,128728.0
63039.456751451326,128768.0
63039.46680210089,128748.0
63039.476852750464,128754.0
63039.48690340003,128749.0
63039.496954049595,128737.0
63039.50700469917,128774.0
63039.51705534873,128756.0
63039.527105998306,128735.0
63039.53715664787,128750.0
63039.54720729744,128770.0
63039.55725794701,128760.0
63039.567308596575,128742.0
63039.57735924615,128717.0
63039.587409895714,128783.0
63039.59746054528,128752.0
63039.60751119485,128731.0
63039.61756184442,128769.0
63039.62761249399,128739.0
63039.637663143556,128763.0
63039.64771379312,128738.0
63039.657764442694,128763.0
63039.66781509226,128736.0
63039.67786574183,128736.0
63039.6879163914,128779.0
63039.697967040964,128781.0
63039.70801769054,128738.0
63039.7180683401,128783.0
63039.72811898967,128761.0
63039.73816963924,128773.0
63039.748220288806,128751.0
63039.75827093838,128758.0
63039.768321587944,128769.0
63039.77837223751,128746.0
63039.78842288708,128735.0
63039.79847353665,128791.0
63039.80852418622,128758.0
63039.81857483579,128785.0
63039.82862548535,128755.0
63039.838676134925,128764.0
63039.84872678449,128754.0
63039.85877743406,128762.0
63039.86882808363,128770.0
63039.878878733194,128748.0
63039.88892938277,128769.0
63039.89898003233,128776.0
63039.909030681905,128795.0
63039.91908133147,128735.0
63039.929131981036,128750.0
63039.93918263061,128746.0
63039.949233280175,128735.0
63039.95928392974,128739.0
63039.96933457931,128755.0
63039.97938522888,128747.0
63039.98943587845,128736.0
63039.99948652802,128729.0
63040.00953717758,128759.0
63040.019587827155,128771.0
63040.02963847672,128747.0
63040.03968912629,128789.0
63040.04973977586,128763.0
63040.059790425425,128746.0
63040.069841075,128767.0
63040.07989172456,128790.0
63040.089942374136,128744.0
63040.0999930237,128735.0
63040.11004367327,128744.0
63040.12009432284,128779.0
63040.130144972405,128769.0
63040.14019562198,128740.0
63040.15024627154,128799.0
63040.16029692111,128772.0
63040.17034757068,128772.0
63040.18039822025,128758.0
63040.19044886981,128782.0
63040.200499519386,128765.0
63040.21055016895,128762.0
63040.220600818524,128781.0
63040.23065146809,128781.0
63040.240702117655,128732.0
63040.25075276723,128765.0
63040.26080341679,128740.0
63040.270854066366,128730.0
63040.28090471593,128722.0
63040.2909553655,128723.0
63040.30100601507,128737.0
63040.311056664636,128734.0
63040.32110731421,128728.0
63040.331157963774,128756.0
63040.34120861334,128746.0
63040.35125926291,128676.0
63040.36130991248,128740.0
63040.37136056205,128718.0
63040.381411211616,128736.0
63040.39146186118,128730.0
63040.401512510754,128764.0
63040.41156316032,128725.0
63040.421613809885,128740.0
63040.43166445946,128722.0
63040.441715109024,128718.0
63040.4517657586,128739.0
63040.46181640816,128730.0
63040.47186705773,128739.0
63040.4819177073,128697.0
63040.491968356866,128702.0
63040.50201900644,128731.0
63040.512069656004,128741.0
63040.52212030557,128715.0
63040.53217095514,128761.0
63040.54222160471,128742.0
63040.55227225428,128753.0
63040.56232290385,128706.0
63040.57237355341,128756.0
63040.582424202985,128739.0
63040.59247485255,128751.0
63040.60252550212,128712.0
63040.61257615169,128745.0
63040.622626801254,128753.0
63040.63267745083,128702.0
63040.64272810039,128724.0
63040.65277874996,128719.0
63040.66282939953,128707.0
63040.6728800491,128737.0
63040.68293069867,128747.0
63040.692981348235,128764.0
63040.7030319978,128711.0
63040.71308264737,128734.0
63040.72313329694,128743.0
63040.73318394651,128719.0
63040.74323459608,128741.0
63040.75328524564,128753.0
63040.763335895215,128734.0
63040.77338654478,128754.0
63040.78343719435,128729.0
63040.79348784392,128754.0
63040.803538493485,128724.0
63040.81358914306,128770.0
63040.82363979262,128760.0
63040.833690442196,128749.0
63040.84374109176,128756.0
63040.85379174133,128747.0
63040.8638423909,128771.0
63040.873893040465,128757.0
63040.88394369003,128795.0
63040.8939943396,128782.0
63040.90404498917,128782.0
63040.91409563874,128763.0
63040.92414628831,128745.0
63040.93419693787,128761.0
63040.944247587446,128768.0
63040.95429823701,128765.0
63040.964348886584,128755.0
63040.97439953615,128733.0
63040.984450185715,128768.0
63040.99450083529,128770.0
63041.00455148485,128756.0
63041.014602134426,128725.0
63041.02465278399,128736.0
63041.03470343356,128772.0
63041.04475408313,128770.0
63041.054804732696,128793.0
63041.06485538227,128793.0
63041.074906031834,128769.0
63041.0849566814,128749.0
63041.09500733097,128787.0
63041.10505798054,128757.0
63041.1151086301,128752.0
63041.125159279676,128727.0
63041.13520992924,128747.0
63041.145260578814,128692.0
63041.15531122838,128738.0
63041.165361877946,128718.0
63041.17541252752,128697.0
63041.185463177084,128734.0
63041.19551382666,128738.0
63041.20556447622,128717.0
63041.21561512579,128722.0
63041.22566577536,128752.0
63041.235716424926,128735.0
63041.2457670745,128722.0
63041.255817724064,128728.0
63041.26586837363,128704.0
63041.2759190232,128743.0
63041.28596967277,128739.0
63041.29602032234,128730.0
63041.30607097191,128730.0
63041.31612162147,128689.0
63041.326172271045,128720.0
63041.33622292061,128737.0
63041.346273570176,128705.0
63041.35632421975,128693.0
63041.366374869314,128717.0
63041.37642551889,128699.0
63041.38647616845,128744.0
63041.39652681802,128720.0
63041.40657746759,128727.0
63041.41662811716,128715.0
63041.42667876673,128709.0
63041.436729416295,128713.0
63041.44678006586,128723.0
63041.45683071543,128716.0
63041.466881365,128703.0
63041.47693201457,128749.0
63041.48698266414,128724.0
63041.4970333137,128707.0
63041.507083963275,128691.0
63041.51713461284,128747.0
63041.527185262414,128727.0
63041.53723591198,128709.0
63041.547286561545,128758.0
63041.55733721112,128702.0
63041.56738786068,128730.0
63041.57743851025,128722.0
63041.58748915982,128705.0
63041.59753980939,128716.0
63041.60759045896,128742.0
63041.617641108525,128734.0
63041.62769175809,128716.0
63041.63774240766,128710.0
63041.64779305723,128761.0
63041.6578437068,128738.0
63041.66789435637,128765.0
63041.67794500593,128738.0
63041.687995655506,128693.0
63041.69804630507,128735.0
63041.708096954644,128737.0
63041.71814760421,128768.0
63041.728198253775,128771.0
63041.73824890335,128742.0
63041.74829955291,128715.0
63041.758350202486,128748.0
63041.76840085205,128744.0
63041.77845150162,128751.0
63041.78850215119,128733.0
63041.798552800756,128755.0
63041.80860345032,128739.0
63041.818654099894,128759.0
63041.82870474946,128762.0
63041.83875539903,128746.0
63041.8488060486,128751.0
63041.85885669816,128742.0
63041.868907347736,128775.0
63041.8789579973,128731.0
63041.889008646875,128761.0
63041.89905929644,128735.0
63041.909109946006,128743.0
63041.91916059558,128759.0
63041.929211245144,128746.0
63041.93926189472,128749.0
63041.94931254428,128761.0
63041.95936319385,128765.0
63041.96941384342,128761.0
63041.979464492986,128747.0
63041.98951514256,128729.0
63041.999565792124,128762.0
63042.00961644169,128733.0
63042.01966709126,128757.0
63042.02971774083,128730.0
63042.039768390394,128748.0
63042.04981903997,128712.0
63042.05986968953,128733.0
63042.069920339105,128697.0
63042.07997098867,128733.0
63042.090021638236,128693.0
63042.10007228781,128704.0
63042.110122937374,128725.0
63042.12017358695,128691.0
63042.13022423651,128710.0
63042.14027488608,128733.0
63042.15032553565,128724.0
63042.16037618522,128699.0
63042.17042683479,128736.0
63042.180477484355,128734.0
63042.19052813392,128715.0
63042.20057878349,128691.0
63042.21062943306,128743.0
63042.22068008263,128711.0
63042.2307307322,128708.0
63042.24078138176,128675.0
63042.250832031335,128696.0
63042.2608826809,128713.0
63042.27093333047,128720.0
63042.28098398004,128734.0
63042.291034629605,128701.0
63042.30108527918,128693.0
63042.31113592874,128700.0
63042.32118657831,128741.0
63042.33123722788,128689.0
63042.34128787745,128705.0
63042.35133852702,128719.0
63042.361389176585,128721.0
63042.37143982615,128672.0
63042.381490475724,128721.0
63042.39154112529,128715.0
63042.40159177486,128709.0
63042.41164242443,128691.0
63042.42169307399,128712.0
63042.431743723566,128703.0
63042.44179437313,128707.0
63042.451845022704,128703.0
63042.46189567227,128686.0
63042.471946321835,128694.0
63042.48199697141,128682.0
63042.49204762097,128665.0
63042.50209827054,128658.0
63042.51214892011,128720.0
63042.52219956968,128692.0
63042.53225021925,128729.0
63042.542300868816,128687.0
63042.55235151838,128706.0
63042.562402167954,128672.0
63042.57245281752,128723.0
63042.58250346709,128710.0
63042.59255411666,128708.0
63042.60260476622,128702.0
63042.612655415796,128675.0
63042.62270606536,128674.0
63042.632756714935,128730.0
63042.6428073645,128709.0
63042.652858014066,128696.0
63042.66290866364,128710.0
63042.672959313204,128673.0
63042.68300996278,128725.0
63042.69306061234,128717.0
63042.70311126191,128737.0
63042.71316191148,128710.0
63042.723212561046,128714.0
63042.73326321061,128676.0
63042.743313860185,128722.0
63042.75336450975,128726.0
63042.76341515932,128704.0
63042.77346580889,128693.0
63042.783516458454,128739.0
63042.79356710803,128673.0
63042.80361775759,128716.0
63042.813668407165,128722.0
63042.82371905673,128693.0
63042.833769706296,128695.0
63042.84382035587,128708.0
63042.853871005434,128704.0
63042.86392165501,128695.0
63042.87397230457,128711.0
63042.88402295414,128725.0
63042.89407360371,128714.0
63042.90412425328,128704.0
63042.91417490285,128728.0
63042.924225552415,128716.0
63042.93427620198,128751.0
63042.94432685155,128705.0
63042.95437750112,128743.0
63042.964428150684,128717.0
63042.97447880026,128701.0
63042.98452944982,128726.0
63042.994580099396,128718.0
63043.00463074896,128707.0
63043.01468139853,128649.0
63043.0247320481,128689.0
63043.034782697665,128682.0
63043.04483334724,128674.0
63043.0548839968,128650.0
63043.06493464637,128691.0
63043.07498529594,128677.0
63043.08503594551,128668.0
63043.09508659508,128653.0
63043.105137244645,128646.0
63043.11518789421,128645.0
63043.125238543784,128685.0
63043.13528919335,128653.0
63043.14533984292,128646.0
63043.15539049249,128642.0
63043.16544114205,128662.0
63043.175491791626,128663.0
63043.18554244119,128648.0
63043.19559309076,128677.0
63043.20564374033,128660.0
63043.215694389895,128652.0
63043.22574503947,128619.0
63043.235795689034,128659.0
63043.2458463386,128655.0
63043.25589698817,128643.0
63043.26594763774,128645.0
63043.27599828731,128643.0
63043.286048936876,128675.0
63043.29609958644,128650.0
63043.306150236014,128685.0
63043.31620088558,128691.0
63043.32625153515,128638.0
63043.33630218472,128668.0
63043.34635283428,128645.0
63043.35640348386,128683.0
63043.36645413342,128652.0
63043.376504782995,128674.0
63043.38655543256,128669.0
63043.396606082126,128654.0
63043.4066567317,128676.0
63043.416707381264,128692.0
63043.42675803084,128676.0
63043.4368086804,128655.0
63043.44685932997,128679.0
63043.45690997954,128669.0
63043.466960629106,128631.0
63043.47701127867,128661.0
63043.487061928245,128649.0
63043.49711257781,128671.0
63043.50716322738,128660.0
63043.51721387695,128702.0
63043.527264526514,128694.0
63043.53731517609,128670.0
63043.54736582565,128681.0
63043.557416475225,128678.0
63043.56746712479,128650.0
63043.577517774356,128656.0
63043.58756842393,128679.0
63043.597619073495,128664.0
63043.60766972307,128665.0
63043.61772037263,128687.0
63043.6277710222,128685.0
63043.63782167177,128707.0
63043.64787232134,128661.0
63043.6579229709,128695.0
63043.667973620475,128685.0
63043.67802427004,128651.0
63043.68807491961,128707.0
63043.69812556918,128694.0
63043.708176218744,128683.0
63043.71822686832,128636.0
63043.72827751788,128690.0
63043.738328167456,128714.0
63043.74837881702,128697.0
63043.75842946659,128672.0
63043.76848011616,128708.0
63043.778530765725,128707.0
63043.7885814153,128687.0
63043.79863206486,128709.0
63043.80868271443,128719.0
63043.818733364,128656.0
63043.82878401357,128692.0
63043.83883466314,128663.0
63043.848885312706,128702.0
63043.85893596227,128711.0
63043.868986611844,128693.0
63043.87903726141,128687.0
63043.88908791098,128690.0
63043.89913856055,128697.0
63043.90918921011,128680.0
63043.919239859686,128657.0
63043.92929050925,128653.0
63043.93934115882,128654.0
63043.94939180839,128675.0
63043.959442457955,128656.0
63043.96949310753,128637.0
63043.979543757094,128645.0
63043.98959440666,128659.0
63043.99964505623,128636.0
63044.0096957058,128655.0
63044.01974635537,128617.0
63044.029797004936,128647.0
63044.0398476545,128620.0
63044.049898304074,128630.0
63044.05994895364,128609.0
63044.06999960321,128606.0
63044.08005025278,128633.0
63044.090100902344,128649.0
63044.10015155192,128615.0
63044.11020220148,128637.0
63044.120252851055,128638.0
63044.13030350062,128603.0
63044.140354150186,128654.0
63044.15040479976,128660.0
63044.160455449324,128632.0
63044.17050609889,128642.0
63044.18055674846,128621.0
63044.19060739803,128602.0
63044.2006580476,128634.0
63044.21070869717,128611.0
63044.22075934673,128654.0
63044.230809996305,128633.0
63044.24086064587,128634.0
63044.25091129544,128652.0
63044.26096194501,128649.0
63044.271012594574,128659.0
63044.28106324415,128640.0
63044.29111389371,128621.0
63044.301164543285,128620.0
63044.31121519285,128609.0
63044.321265842416,128635.0
63044.33131649199,128644.0
63044.341367141555,128634.0
63044.35141779113,128608.0
63044.36146844069,128629.0
63044.37151909026,128614.0
63044.38156973983,128647.0
63044.3916203894,128634.0
63044.40167103896,128634.0
63044.411721688535,128648.0
63044.4217723381,128641.0
63044.43182298767,128611.0
63044.44187363724,128637.0
63044.451924286805,128636.0
63044.46197493638,128628.0
63044.47202558594,128606.0
63044.482076235516,128621.0
63044.49212688508,128645.0
63044.50217753465,128605.0
63044.51222818422,128666.0
63044.522278833785,128647.0
63044.53232948336,128593.0
63044.54238013292,128628.0
63044.55243078249,128616.0
63044.56248143206,128666.0
63044.57253208163,128654.0
63044.5825827312,128635.0
63044.592633380766,128676.0
63044.60268403033,128661.0
63044.612734679904,128647.0
63044.62278532947,128614.0
63044.632835979035,128622.0
63044.64288662861,128623.0
63044.65293727817,128648.0
63044.662987927746,128628.0
63044.67303857731,128642.0
63044.68308922688,128626.0
63044.69313987645,128637.0
63044.703190526016,128671.0
63044.71324117559,128676.0
63044.723291825154,128630.0
63044.73334247472,128658.0
63044.74339312429,128655.0
63044.75344377386,128630.0
63044.76349442343,128642.0
63044.773545072996,128639.0
63044.78359572256,128631.0
63044.793646372134,128619.0
63044.8036970217,128594.0
63044.81374767127,128620.0
63044.82379832084,128617.0
63044.833848970404,128623.0
63044.84389961998,128637.0
63044.85395026954,128608.0
63044.86400091911,128609.0
63044.87405156868,128652.0
63044.884102218246,128606.0
63044.89415286782,128611.0
63044.904203517384,128586.0
63044.91425416695,128594.0
63044.92430481652,128594.0
63044.93435546609,128615.0
63044.94440611566,128603.0
63044.95445676523,128608.0
63044.96450741479,128584.0
63044.974558064365,128594.0
63044.98460871393,128615.0
63044.9946593635,128588.0
63045.00471001307,128589.0
63045.014760662634,128617.0
63045.02481131221,128598.0
63045.03486196177,128581.0
63045.044912611345,128588.0
63045.05496326091,128592.0
63045.06501391048,128614.0
63045.07506456005,128581.0
63045.085115209615,128631.0
63045.09516585918,128582.0
63045.10521650875,128607.0
63045.11526715832,128582.0
63045.12531780789,128588.0
63045.13536845746,128619.0
63045.14541910702,128620.0
63045.155469756595,128589.0
63045.16552040616,128599.0
63045.17557105573,128589.0
63045.1856217053,128612.0
63045.195672354865,128624.0
63045.20572300444,128594.0
63045.215773654,128610.0
63045.225824303576,128626.0
63045.23587495314,128630.0
63045.24592560271,128614.0
63045.25597625228,128624.0
63045.266026901845,128615.0
63045.27607755142,128597.0
63045.28612820098,128605.0
63045.29617885055,128637.0
63045.30622950012,128614.0
63045.31628014969,128608.0
63045.32633079925,128628.0
63045.336381448826,128633.0
63045.34643209839,128627.0
63045.356482747964,128626.0
63045.36653339753,128648.0
63045.376584047095,128624.0
63045.38663469667,128626.0
63045.39668534623,128615.0
63045.406735995806,128648.0
63045.41678664537,128611.0
63045.42683729494,128629.0
63045.43688794451,128617.0
63045.446938594076,128630.0
63045.45698924365,128635.0
63045.467039893214,128643.0
63045.47709054278,128620.0
63045.48714119235,128616.0
63045.49719184192,128627.0
63045.50724249149,128642.0
63045.517293141056,128636.0
63045.52734379062,128603.0
63045.537394440194,128628.0
63045.54744508976,128593.0
63045.557495739326,128636.0
63045.5675463889,128613.0
63045.577597038464,128637.0
63045.58764768804,128619.0
63045.5976983376,128629.0
63045.60774898717,128589.0
63045.61779963674,128641.0
63045.627850286306,128600.0
63045.63790093588,128612.0
63045.647951585444,128588.0
63045.65800223501,128600.0
63045.66805288458,128625.0
63045.67810353415,128614.0
63045.68815418372,128617.0
63045.69820483329,128612.0
63045.70825548285,128587.0
63045.718306132425,128599.0
63045.72835678199,128634.0
63045.73840743156,128602.0
63045.74845808113,128589.0
63045.758508730694,128598.0
63045.76855938027,128610.0
63045.77861002983,128583.0
63045.7886606794,128626.0
63045.79871132897,128598.0
63045.80876197854,128555.0
63045.81881262811,128576.0
63045.828863277675,128604.0
63045.83891392724,128591.0
63045.84896457681,128587.0
63045.85901522638,128622.0
63045.86906587595,128609.0
63045.87911652552,128600.0
63045.88916717508,128606.0
63045.899217824655,128569.0
63045.90926847422,128624.0
63045.919319123794,128610.0
63045.92936977336,128604.0
63045.939420422925,128646.0
63045.9494710725,128577.0
63045.95952172206,128596.0
63045.969572371636,128567.0
63045.9796230212,128576.0
63045.98967367077,128592.0
63045.99972432034,128605.0
63046.009774969905,128623.0
63046.01982561947,128589.0
63046.02987626904,128586.0
63046.03992691861,128628.0
63046.04997756818,128611.0
63046.06002821775,128612.0
63046.07007886731,128626.0
63046.080129516886,128626.0
63046.09018016645,128613.0
63046.100230816024,128597.0
63046.11028146559,128618.0
63046.120332115155,128590.0
63046.13038276473,128609.0
63046.14043341429,128571.0
63046.150484063866,128625.0
63046.16053471343,128598.0
63046.170585363,128626.0
63046.18063601257,128624.0
63046.190686662136,128617.0
63046.20073731171,128607.0
63046.210787961274,128617.0
63046.22083861084,128632.0
63046.23088926041,128628.0
63046.24093990998,128628.0
63046.25099055954,128638.0
63046.261041209116,128611.0
63046.27109185868,128607.0
63046.281142508255,128622.0
63046.29119315782,128635.0
63046.301243807386,128617.0
63046.31129445696,128608.0
63046.321345106524,128640.0
63046.3313957561,128643.0
63046.34144640566,128669.0
63046.35149705523,128658.0
63046.3615477048,128648.0
63046.371598354366,128650.0
63046.38164900394,128621.0
63046.391699653504,128653.0
63046.40175030307,128669.0
63046.41180095264,128655.0
63046.42185160221,128644.0
63046.43190225178,128649.0
63046.44195290135,128632.0
63046.45200355091,128642.0
63046.462054200485,128657.0
63046.47210485005,128650.0
63046.482155499616,128633.0
63046.49220614919,128653.0
63046.502256798754,128651.0
63046.51230744833,128660.0
63046.52235809789,128653.0
63046.53240874746,128670.0
63046.54245939703,128619.0
63046.5525100466,128603.0
63046.56256069617,128600.0
63046.572611345735,128609.0
63046.5826619953,128620.0
63046.59271264487,128611.0
63046.60276329444,128626.0
63046.61281394401,128641.0
63046.62286459358,128627.0
63046.63291524314,128599.0
63046.642965892715,128651.0
63046.65301654228,128614.0
63046.663067191854,128632.0
63046.67311784142,128638.0
63046.683168490985,128639.0
63046.69321914056,128584.0
63046.70326979012,128624.0
63046.71332043969,128618.0
63046.72337108926,128638.0
63046.73342173883,128604.0
63046.7434723884,128597.0
63046.753523037965,128618.0
63046.76357368753,128641.0
63046.773624337104,128629.0
63046.78367498667,128622.0
63046.79372563624,128612.0
63046.80377628581,128609.0
63046.81382693537,128609.0
63046.823877584946,128626.0
63046.83392823451,128654.0
63046.843978884084,128614.0
63046.85402953365,128656.0
63046.864080183215,128629.0
63046.87413083279,128622.0
63046.88418148235,128591.0
63046.89423213193,128602.0
63046.90428278149,128639.0
63046.91433343106,128623.0
63046.92438408063,128647.0
63046.934434730196,128653.0
63046.94448537976,128641.0
63046.954536029334,128600.0
63046.9645866789,128652.0
63046.97463732847,128627.0
63046.98468797804,128621.0
63046.9947386276,128659.0
63047.004789277176,128661.0
63047.01483992674,128623.0
63047.024890576315,128635.0
63047.03494122588,128656.0
63047.044991875446,128667.0
63047.05504252502,128637.0
63047.065093174584,128671.0
63047.07514382416,128648.0
63047.08519447372,128626.0
63047.09524512329,128677.0
63047.10529577286,128661.0
63047.115346422426,128671.0
63047.125397072,128644.0
63047.135447721565,128657.0
63047.14549837113,128694.0
63047.1555490207,128651.0
63047.16559967027,128652.0
63047.175650319834,128659.0
63047.18570096941,128636.0
63047.19575161897,128683.0
63047.205802268545,128702.0
63047.21585291811,128682.0
63047.225903567676,128649.0
63047.23595421725,128663.0
63047.246004866814,128653.0
63047.25605551639,128695.0
63047.26610616595,128654.0
63047.27615681552,128673.0
63047.28620746509,128666.0
63047.29625811466,128660.0
63047.30630876423,128656.0
63047.316359413795,128678.0
63047.32641006336,128715.0
63047.33646071293,128673.0
63047.3465113625,128655.0
63047.35656201207,128682.0
63047.36661266164,128676.0
63047.3766633112,128678.0
63047.386713960776,128709.0
63047.39676461034,128688.0
63047.40681525991,128681.0
63047.41686590948,128698.0
63047.426916559045,128685.0
63047.43696720862,128700.0
63047.44701785818,128682.0
63047.45706850775,128721.0
63047.46711915732,128678.0
63047.47716980689,128674.0
63047.48722045646,128705.0
63047.497271106025,128713.0
63047.50732175559,128657.0
63047.517372405164,128656.0
63047.52742305473,128682.0
63047.5374737043,128660.0
63047.54752435387,128650.0
63047.55757500343,128677.0
63047.567625653006,128665.0
63047.57767630257,128668.0
63047.587726952144,128686.0
63047.59777760171,128654.0
63047.607828251275,128673.0
63047.61787890085,128669.0
63047.627929550414,128665.0
63047.63798019998,128687.0
63047.64803084955,128664.0
63047.65808149912,128665.0
63047.66813214869,128655.0
63047.678182798256,128713.0
63047.68823344782,128654.0
63047.698284097394,128675.0
63047.70833474696,128661.0
63047.71838539653,128655.0
63047.7284360461,128658.0
63047.73848669566,128639.0
63047.74853734524,128662.0
63047.7585879948,128649.0
63047.768638644375,128668.0
63047.77868929394,128638.0
63047.788739943506,128651.0
63047.79879059308,128650.0
63047.808841242644,128675.0
63047.81889189222,128700.0
63047.82894254178,128634.0
63047.83899319135,128622.0
63047.84904384092,128665.0
63047.859094490486,128662.0
63047.86914514005,128683.0
63047.879195789625,128645.0
63047.88924643919,128666.0
63047.89929708876,128656.0
63047.90934773833,128683.0
63047.919398387894,128699.0
63047.92944903747,128665.0
63047.93949968703,128632.0
63047.949550336605,128633.0
63047.95960098617,128671.0
63047.969651635736,128673.0
63047.97970228531,128666.0
63047.989752934875,128656.0
63047.99980358445,128704.0
63048.00985423401,128686.0
63048.01990488358,128678.0
63048.02995553315,128655.0
63048.04000618272,128693.0
63048.05005683229,128663.0
63048.060107481855,128665.0
63048.07015813142,128654.0
63048.08020878099,128685.0
63048.09025943056,128661.0
63048.100310080124,128660.0
63048.1103607297,128708.0
63048.12041137926,128701.0
63048.130462028836,128657.0
63048.1405126784,128681.0
63048.15056332797,128708.0
63048.16061397754,128650.0
63048.170664627105,128695.0
63048.18071527668,128686.0
63048.19076592624,128707.0
63048.20081657581,128681.0
63048.21086722538,128697.0
63048.22091787495,128683.0
63048.23096852452,128680.0
63048.241019174086,128700.0
63048.25106982365,128697.0
63048.261120473224,128684.0
63048.27117112279,128682.0
63048.28122177236,128703.0
63048.29127242193,128671.0
63048.30132307149,128700.0
63048.311373721066,128689.0
63048.32142437063,128670.0
63048.3314750202,128687.0
63048.34152566977,128704.0
63048.351576319335,128723.0
63048.36162696891,128711.0
63048.371677618474,128679.0
63048.38172826804,128706.0
63048.39177891761,128658.0
63048.40182956718,128674.0
63048.41188021675,128680.0
63048.421930866316,128710.0
63048.43198151588,128717.0
63048.442032165454,128694.0
63048.45208281502,128704.0
63048.46213346459,128719.0
63048.47218411416,128712.0
63048.482234763724,128697.0
63048.4922854133,128690.0
63048.50233606286,128696.0
63048.512386712435,128704.0
63048.522437362,128707.0
63048.532488011566,128706.0
63048.54253866114,128668.0
63048.552589310704,128685.0
63048.56263996028,128669.0
63048.57269060984,128651.0
63048.58274125941,128674.0
63048.59279190898,128686.0
63048.60284255855,128687.0
63048.61289320811,128708.0
63048.622943857685,128678.0
63048.63299450725,128680.0
63048.64304515682,128698.0
63048.65309580639,128667.0
63048.663146455954,128676.0
63048.67319710553,128680.0
63048.68324775509,128686.0
63048.693298404665,128672.0
63048.70334905423,128663.0
63048.713399703796,128682.0
63048.72345035337,128663.0
63048.733501002935,128671.0
63048.74355165251,128699.0
63048.75360230207,128678.0
63048.76365295164,128695.0
63048.77370360121,128703.0
63048.78375425078,128685.0
63048.79380490035,128686.0
63048.803855549915,128704.0
63048.81390619948,128699.0
63048.82395684905,128646.0
63048.83400749862,128693.0
63048.844058148185,128680.0
63048.85410879776,128695.0
63048.86415944732,128642.0
63048.874210096896,128679.0
63048.88426074646,128635.0
63048.89431139603,128697.0
63048.9043620456,128682.0
63048.914412695165,128676.0
63048.92446334474,128675.0
63048.9345139943,128669.0
63048.94456464387,128674.0
63048.95461529344,128708.0
63048.96466594301,128683.0
63048.97471659258,128668.0
63048.984767242146,128707.0
63048.99481789171,128700.0
63049.004868541284,128676.0
63049.01491919085,128668.0
63049.02496984042,128699.0
63049.03502048999,128677.0
63049.04507113955,128691.0
63049.055121789126,128674.0
63049.06517243869,128720.0
63049.07522308826,128679.0
63049.08527373783,128697.0
63049.095324387396,128706.0
63049.10537503697,128675.0
63049.115425686534,128738.0
63049.1254763361,128709.0
63049.13552698567,128731.0
63049.14557763524,128689.0
63049.15562828481,128698.0
63049.165678934376,128703.0
63049.17572958394,128721.0
63049.185780233514,128679.0
63049.19583088308,128733.0
63049.20588153265,128702.0
63049.21593218222,128701.0
63049.225982831784,128707.0
63049.23603348136,128725.0
63049.24608413092,128711.0
63049.256134780495,128705.0
63049.26618543006,128728.0
63049.276236079626,128715.0
63049.2862867292,128707.0
63049.296337378764,128699.0
63049.30638802833,128699.0
63049.3164386779,128707.0
63049.32648932747,128720.0
63049.33653997704,128730.0
63049.34659062661,128742.0
63049.35664127617,128708.0
63049.366691925745,128723.0
63049.37674257531,128713.0
63049.38679322488,128749.0
63049.39684387445,128718.0
63049.406894524014,128755.0
63049.41694517359,128720.0
63049.42699582315,128709.0
63049.437046472725,128715.0
63049.44709712229,128766.0
63049.45714777186,128740.0
63049.46719842143,128721.0
63049.477249070995,128729.0
63049.48729972057,128727.0
63049.49735037013,128733.0
63049.5074010197,128729.0
63049.51745166927,128742.0
63049.52750231884,128703.0
63049.5375529684,128684.0
63049.547603617975,128673.0
63049.55765426754,128721.0
63049.56770491711,128693.0
63049.57775556668,128707.0
63049.587806216245,128711.0
63049.59785686582,128724.0
63049.60790751538,128719.0
63049.617958164956,128710.0
63049.62800881452,128735.0
63049.63805946409,128704.0
63049.64811011366,128713.0
63049.658160763225,128717.0
63049.6682114128,128739.0
63049.67826206236,128680.0
63049.68831271193,128701.0
63049.6983633615,128710.0
63049.70841401107,128709.0
63049.71846466064,128715.0
63049.728515310206,128727.0
63049.73856595977,128716.0
63049.748616609344,128739.0
63049.75866725891,128703.0
63049.768717908475,128714.0
63049.77876855805,128722.0
63049.78881920761,128711.0
63049.798869857186,128729.0
63049.80892050675,128687.0
63049.81897115632,128714.0
63049.82902180589,128709.0
63049.839072455456,128729.0
63049.84912310503,128723.0
63049.859173754594,128720.0
63049.86922440416,128707.0
63049.87927505373,128736.0
63049.8893257033,128723.0
63049.89937635287,128711.0
63049.909427002436,128717.0
63049.919477652,128709.0
63049.929528301574,128708.0
63049.93957895114,128726.0
63049.94962960071,128720.0
63049.95968025028,128729.0
63049.969730899844,128720.0
63049.97978154942,128721.0
63049.98983219898,128734.0
63049.99988284855,128704.0
63050.00993349812,128702.0
63050.019984147686,128715.0
63050.03003479726,128733.0
63050.040085446824,128726.0
63050.05013609639,128746.0
63050.06018674596,128728.0
63050.07023739553,128703.0
63050.0802880451,128739.0
63050.09033869467,128712.0
63050.10038934423,128747.0
63050.110439993805,128753.0
63050.12049064337,128750.0
63050.13054129294,128761.0
63050.14059194251,128781.0
63050.150642592074,128754.0
63050.16069324165,128745.0
63050.17074389121,128721.0
63050.180794540785,128743.0
63050.19084519035,128744.0
63050.20089583992,128737.0
63050.21094648949,128727.0
63050.220997139055,128736.0
63050.23104778862,128749.0
63050.24109843819,128782.0
63050.25114908776,128760.0
63050.26119973733,128788.0
63050.2712503869,128763.0
63050.28130103646,128755.0
63050.291351686035,128754.0
63050.3014023356,128755.0
63050.311452985174,128760.0
63050.32150363474,128791.0
63050.331554284305,128762.0
63050.34160493388,128768.0
63050.35165558344,128764.0
63050.361706233016,128743.0
63050.37175688258,128790.0
63050.38180753215,128779.0
63050.39185818172,128744.0
63050.401908831285,128767.0
63050.41195948086,128786.0
63050.42201013042,128765.0
63050.43206077999,128749.0
63050.44211142956,128765.0
63050.45216207913,128789.0
63050.46221272869,128736.0
63050.472263378266,128797.0
63050.48231402783,128741.0
63050.492364677404,128757.0
63050.50241532697,128721.0
63050.512465976535,128710.0
63050.52251662611,128735.0
63050.53256727567,128759.0
63050.542617925246,128723.0
63050.55266857481,128735.0
63050.56271922438,128731.0
63050.57276987395,128741.0
63050.582820523516,128707.0
63050.59287117309,128758.0
63050.602921822654,128720.0
63050.61297247222,128709.0
63050.62302312179,128749.0
63050.63307377136,128740.0
63050.64312442093,128747.0
63050.653175070496,128695.0
63050.66322572006,128764.0
63050.673276369635,128748.0
63050.6833270192,128749.0
63050.693377668766,128724.0
63050.70342831834,128771.0
63050.713478967904,128768.0
63050.72352961748,128745.0
63050.73358026704,128731.0
63050.74363091661,128754.0
63050.75368156618,128767.0
63050.763732215746,128739.0
63050.77378286532,128740.0
63050.783833514884,128737.0
63050.79388416445,128725.0
63050.80393481402,128737.0
63050.81398546359,128715.0
63050.82403611316,128763.0
63050.83408676273,128748.0
63050.84413741229,128735.0
63050.854188061865,128739.0
63050.86423871143,128730.0
63050.874289361,128730.0
63050.88434001057,128722.0
63050.894390660134,128745.0
63050.90444130971,128773.0
63050.91449195927,128748.0
63050.92454260884,128736.0
63050.93459325841,128758.0
63050.94464390798,128744.0
63050.95469455755,128737.0
63050.964745207115,128736.0
63050.97479585668,128755.0
63050.98484650625,128753.0
63050.99489715582,128774.0
63051.00494780539,128706.0
63051.01499845496,128755.0
63051.02504910452,128753.0
63051.035099754095,128731.0
63051.04515040366,128757.0
63051.055201053234,128765.0
63051.0652517028,128728.0
63051.075302352365,128742.0
63051.08535300194,128768.0
63051.0954036515,128764.0
63051.105454301076,128765.0
63051.11550495064,128777.0
63051.12555560021,128786.0
63051.13560624978,128763.0
63051.145656899345,128743.0
63051.15570754891,128749.0
63051.165758198484,128775.0
63051.17580884805,128775.0
63051.18585949762,128780.0
63051.19591014719,128760.0
63051.20596079675,128803.0
63051.216011446326,128777.0
63051.22606209589,128756.0
63051.236112745464,128756.0
63051.24616339503,128768.0
63051.256214044595,128776.0
63051.26626469417,128821.0
63051.27631534373,128758.0
63051.28636599331,128769.0
63051.29641664287,128766.0
63051.30646729244,128752.0
63051.31651794201,128796.0
63051.326568591576,128769.0
63051.33661924115,128766.0
63051.346669890714,128761.0
63051.35672054028,128789.0
63051.36677118985,128794.0
63051.37682183942,128760.0
63051.38687248898,128785.0
63051.396923138556,128784.0
63051.40697378812,128777.0
63051.417024437695,128792.0
63051.42707508726,128775.0
63051.437125736826,128756.0
63051.4471763864,128737.0
63051.457227035964,128761.0
63051.46727768554,128765.0
63051.4773283351,128756.0
63051.48737898467,128726.0
63051.49742963424,128733.0
63051.507480283806,128753.0
63051.51753093338,128735.0
63051.527581582945,128754.0
63051.53763223251,128738.0
63051.54768288208,128742.0
63051.55773353165,128750.0
63051.56778418122,128716.0
63051.57783483079,128774.0
63051.58788548035,128745.0
63051.597936129925,128703.0
63051.60798677949,128719.0
63051.618037429056,128737.0
63051.62808807863,128756.0
63051.638138728194,128770.0
63051.64818937777,128757.0
63051.65824002733,128713.0
63051.6682906769,128710.0
63051.67834132647,128743.0
63051.68839197604,128761.0
63051.69844262561,128775.0
63051.708493275175,128746.0
63051.71854392474,128726.0
63051.72859457431,128727.0
63051.73864522388,128721.0
63051.74869587345,128750.0
63051.75874652302,128760.0
63051.76879717258,128743.0
63051.778847822156,128734.0
63051.78889847172,128745.0
63051.798949121294,128773.0
63051.80899977086,128763.0
63051.819050420425,128733.0
63051.82910107,128755.0
63051.83915171956,128752.0
63051.84920236913,128741.0
63051.8592530187,128717.0
63051.86930366827,128766.0
63051.87935431784,128750.0
63051.889404967405,128736.0
63051.89945561697,128757.0
63051.909506266544,128765.0
63051.91955691611,128744.0
63051.92960756568,128742.0
63051.93965821525,128743.0
63051.94970886481,128767.0
63051.959759514386,128739.0
63051.96981016395,128751.0
63051.979860813524,128770.0
63051.98991146309,128733.0
63051.999962112655,128741.0
63052.01001276223,128723.0
63052.020063411794,128763.0
63052.03011406137,128736.0
63052.04016471093,128753.0
63052.0502153605,128767.0
63052.06026601007,128759.0
63052.070316659636,128727.0
63052.0803673092,128738.0
63052.090417958774,128752.0
63052.10046860834,128738.0
63052.11051925791,128733.0
63052.12056990748,128753.0
63052.13062055704,128761.0
63052.14067120662,128743.0
63052.15072185618,128728.0
63052.160772505755,128744.0
63052.17082315532,128795.0
63052.180873804886,128764.0
63052.19092445446,128750.0
63052.200975104024,128731.0
63052.2110257536,128730.0
63052.22107640316,128728.0
63052.23112705273,128792.0
63052.2411777023,128763.0
63052.251228351866,128728.0
63052.26127900144,128784.0
63052.271329651005,128747.0
63052.28138030057,128762.0
63052.29143095014,128757.0
63052.30148159971,128778.0
63052.311532249274,128771.0
63052.32158289885,128748.0
63052.33163354841,128784.0
63052.341684197985,128801.0
63052.35173484755,128766.0
63052.361785497116,128753.0
63052.37183614669,128753.0
63052.381886796255,128750.0
63052.39193744583,128736.0
63052.40198809539,128755.0
63052.41203874496,128754.0
63052.42208939453,128737.0
63052.4321400441,128755.0
63052.44219069367,128760.0
63052.452241343235,128741.0
63052.4622919928,128730.0
63052.47234264237,128772.0
63052.48239329194,128720.0
63052.49244394151,128737.0
63052.50249459108,128773.0
63052.51254524064,128756.0
63052.522595890216,128741.0
63052.53264653978,128752.0
63052.54269718935,128747.0
63052.55274783892,128747.0
63052.562798488485,128705.0
63052.57284913806,128739.0
63052.58289978762,128745.0
63052.59295043719,128772.0
63052.60300108676,128720.0
63052.61305173633,128738.0
63052.6231023859,128737.0
63052.633153035466,128723.0
63052.64320368503,128716.0
63052.653254334604,128742.0
63052.66330498417,128766.0
63052.67335563374,128715.0
63052.68340628331,128761.0
63052.69345693287,128743.0
63052.703507582446,128740.0
63052.71355823201,128713.0
63052.723608881584,128753.0
63052.73365953115,128734.0
63052.743710180715,128709.0
63052.75376083029,128726.0
63052.763811479854,128760.0
63052.77386212942,128747.0
63052.78391277899,128719.0
63052.79396342856,128772.0
63052.80401407813,128723.0
63052.814064727696,128730.0
63052.82411537726,128752.0
63052.834166026834,128773.0
63052.8442166764,128747.0
63052.85426732597,128755.0
63052.86431797554,128761.0
63052.874368625104,128758.0
63052.88441927468,128760.0
63052.89446992424,128781.0
63052.904520573815,128762.0
63052.91457122338,128750.0
63052.924621872946,128734.0
63052.93467252252,128756.0
63052.944723172084,128759.0
63052.95477382166,128777.0
63052.96482447122,128747.0
63052.97487512079,128763.0
63052.98492577036,128755.0
63052.99497641993,128701.0
63053.00502706949,128762.0
63053.015077719065,128753.0
63053.02512836863,128763.0
63053.0351790182,128750.0
63053.04522966777,128780.0
63053.055280317334,128748.0
63053.06533096691,128763.0
63053.07538161647,128731.0
63053.085432266045,128785.0
63053.09548291561,128749.0
63053.105533565176,128761.0
63053.11558421475,128763.0
63053.125634864315,128771.0
63053.13568551389,128737.0
63053.14573616345,128768.0
63053.15578681302,128782.0
63053.16583746259,128762.0
63053.17588811216,128748.0
63053.18593876173,128775.0
63053.195989411295,128738.0
63053.20604006086,128737.0
63053.21609071043,128764.0
63053.22614136,128765.0
63053.23619200957,128769.0
63053.24624265914,128730.0
63053.2562933087,128768.0
63053.266343958276,128762.0
63053.27639460784,128718.0
63053.28644525741,128731.0
63053.29649590698,128748.0
63053.306546556545,128729.0
63053.31659720612,128740.0
63053.32664785568,128755.0
63053.33669850525,128757.0
63053.34674915482,128720.0
63053.35679980439,128753.0
63053.36685045396,128722.0
63053.376901103526,128766.0
63053.38695175309,128739.0
63053.397002402664,128734.0
63053.40705305223,128723.0
63053.4171037018,128738.0
63053.42715435137,128702.0
63053.43720500093,128745.0
63053.447255650506,128766.0
63053.45730630007,128728.0
63053.46735694964,128774.0
63053.47740759921,128753.0
63053.487458248776,128762.0
63053.49750889835,128735.0
63053.507559547914,128765.0
63053.51761019748,128748.0
63053.52766084705,128725.0
63053.53771149662,128745.0
63053.54776214619,128755.0
63053.557812795756,128728.0
63053.56786344532,128728.0
63053.577914094894,128739.0
63053.58796474446,128748.0
63053.59801539403,128741.0
63053.6080660436,128747.0
63053.618116693164,128730.0
63053.62816734274,128739.0
63053.6382179923,128747.0
63053.648268641875,128727.0
63053.65831929144,128712.0
63053.668369941006,128735.0
63053.67842059058,128746.0
63053.688471240144,128754.0
63053.69852188972,128731.0
63053.70857253928,128738.0
63053.71862318885,128742.0
63053.72867383842,128738.0
63053.73872448799,128730.0
63053.74877513755,128757.0
63053.758825787125,128762.0
63053.76887643669,128761.0
63053.77892708626,128763.0
63053.78897773583,128732.0
63053.799028385394,128774.0
63053.80907903497,128751.0
63053.81912968453,128776.0
63053.829180334105,128782.0
63053.83923098367,128739.0
63053.84928163324,128760.0
63053.85933228281,128764.0
63053.869382932375,128777.0
63053.87943358195,128732.0
63053.88948423151,128766.0
63053.89953488108,128766.0
63053.90958553065,128746.0
63053.91963618022,128759.0
63053.92968682979,128781.0
63053.939737479355,128776.0
63053.94978812892,128748.0
63053.95983877849,128745.0
63053.96988942806,128757.0
63053.979940077625,128768.0
63053.9899907272,128752.0
63054.00004137676,128785.0
63054.010092026336,128759.0
63054.0201426759,128765.0
63054.03019332547,128762.0
63054.04024397504,128734.0
63054.050294624605,128749.0
63054.06034527418,128739.0
63054.07039592374,128740.0
63054.08044657331,128721.0
63054.09049722288,128731.0
63054.10054787245,128740.0
63054.11059852202,128714.0
63054.120649171586,128698.0
63054.13069982115,128725.0
63054.140750470724,128735.0
63054.15080112029,128698.0
63054.16085176986,128740.0
63054.17090241943,128725.0
63054.18095306899,128754.0
63054.191003718566,128702.0
63054.20105436813,128736.0
63054.2111050177,128720.0
63054.22115566727,128705.0
63054.231206316836,128711.0
63054.24125696641,128753.0
63054.251307615974,128714.0
63054.26135826554,128718.0
63054.27140891511,128740.0
63054.28145956468,128720.0
63054.29151021425,128755.0
63054.301560863816,128714.0
63054.31161151338,128718.0
63054.321662162954,128746.0
63054.33171281252,128714.0
63054.34176346209,128722.0
63054.35181411166,128688.0
63054.361864761224,128706.0
63054.3719154108,128719.0
63054.38196606036,128725.0
63054.392016709935,128723.0
63054.4020673595,128708.0
63054.412118009066,128714.0
63054.42216865864,128729.0
63054.432219308204,128780.0
63054.44226995777,128712.0
63054.45232060734,128699.0
63054.46237125691,128742.0
63054.47242190648,128728.0
63054.48247255605,128727.0
63054.49252320561,128725.0
63054.502573855185,128732.0
63054.51262450475,128716.0
63054.52267515432,128772.0
63054.53272580389,128729.0
63054.542776453454,128739.0
63054.55282710303,128727.0
63054.56287775259,128734.0
63054.572928402165,128747.0
63054.58297905173,128750.0
63054.5930297013,128745.0
63054.60308035087,128746.0
63054.613131000435,128748.0
63054.62318165001,128743.0
63054.63323229957,128737.0
63054.64328294914,128738.0
63054.65333359871,128750.0
63054.66338424828,128742.0
63054.67343489784,128761.0
63054.683485547415,128707.0
63054.69353619698,128764.0
63054.703586846554,128752.0
63054.71363749612,128720.0
63054.723688145685,128726.0
63054.73373879526,128731.0
63054.74378944482,128719.0
63054.753840094396,128750.0
63054.76389074396,128762.0
63054.77394139353,128746.0
63054.7839920431,128730.0
63054.794042692665,128757.0
63054.80409334224,128745.0
63054.8141439918,128760.0
63054.82419464137,128748.0
63054.83424529094,128763.0
63054.84429594051,128769.0
63054.85434659008,128731.0
63054.864397239646,128746.0
63054.87444788921,128754.0
63054.884498538784,128757.0
63054.89454918835,128744.0
63054.904599837915,128780.0
63054.91465048749,128753.0
63054.92470113705,128737.0
63054.934751786626,128745.0
63054.94480243619,128788.0
63054.95485308576,128768.0
63054.96490373533,128751.0
63054.974954384896,128766.0
63054.98500503447,128738.0
63054.995055684034,128711.0
63055.0051063336,128717.0
63055.01515698317,128701.0
63055.02520763274,128732.0
63055.03525828231,128728.0
63055.045308931876,128729.0
63055.05535958144,128760.0
63055.065410231015,128730.0
63055.07546088058,128722.0
63055.08551153015,128733.0
63055.09556217972,128740.0
63055.105612829284,128686.0
63055.11566347886,128718.0
63055.12571412842,128772.0
63055.13576477799,128711.0
63055.14581542756,128683.0
63055.155866077126,128710.0
63055.1659167267,128724.0
63055.175967376264,128697.0
63055.18601802583,128737.0
63055.1960686754,128714.0
63055.20611932497,128721.0
63055.21616997454,128702.0
63055.22622062411,128742.0
63055.23627127367,128679.0
63055.246321923245,128710.0
63055.25637257281,128748.0
63055.26642322238,128701.0
63055.27647387195,128701.0
63055.286524521514,128720.0
63055.29657517109,128701.0
63055.30662582065,128718.0
63055.316676470226,128690.0
63055.32672711979,128708.0
63055.33677776936,128722.0
63055.34682841893,128681.0
63055.356879068495,128697.0
63055.36692971806,128708.0
63055.37698036763,128718.0
63055.3870310172,128694.0
63055.39708166677,128708.0
63055.40713231634,128692.0
63055.4171829659,128685.0
63055.427233615475,128680.0
63055.43728426504,128728.0
63055.447334914614,128714.0
63055.45738556418,128738.0
63055.467436213745,128739.0
63055.47748686332,128685.0
63055.48753751288,128711.0
63055.497588162456,128700.0
63055.50763881202,128735.0
63055.51768946159,128712.0
63055.52774011116,128702.0
63055.537790760725,128679.0
63055.5478414103,128689.0
63055.557892059864,128679.0
63055.56794270943,128712.0
63055.577993359,128733.0
63055.58804400857,128724.0
63055.59809465813,128700.0
63055.608145307706,128712.0
63055.61819595727,128733.0
63055.628246606844,128718.0
63055.63829725641,128717.0
63055.648347905975,128716.0
63055.65839855555,128704.0
63055.66844920511,128690.0
63055.67849985469,128686.0
63055.68855050425,128724.0
63055.69860115382,128696.0
63055.70865180339,128700.0
63055.718702452956,128702.0
63055.72875310253,128732.0
63055.738803752094,128731.0
63055.74885440166,128733.0
63055.75890505123,128755.0
63055.7689557008,128713.0
63055.77900635037,128737.0
63055.789056999936,128735.0
63055.7991076495,128726.0
63055.809158299075,128714.0
63055.81920894864,128725.0
63055.829259598206,128727.0
63055.83931024778,128742.0
63055.849360897344,128702.0
63055.85941154692,128721.0
63055.86946219648,128784.0
63055.87951284605,128697.0
63055.88956349562,128739.0
63055.899614145186,128736.0
63055.90966479476,128724.0
63055.919715444325,128709.0
63055.92976609389,128719.0
63055.93981674346,128709.0
63055.94986739303,128704.0
63055.9599180426,128706.0
63055.96996869217,128724.0
63055.98001934173,128706.0
63055.990069991305,128672.0
63056.00012064087,128691.0
