time,ppg
63011.662451555734,106682.0
63011.672449469115,106674.0
63011.68244738249,106682.0
63011.69244529587,106701.0
63011.70244320925,106686.0
63011.712441122625,106708.0
63011.722439036006,106693.0
63011.73243694939,106696.0
63011.74243486277,106723.0
63011.75243277614,106703.0
63011.76243068952,106712.0
63011.772428602904,106687.0
63011.78242651628,106696.0
63011.79242442966,106695.0
63011.80242234304,106709.0
63011.812420256414,106704.0
63011.822418169795,106697.0
63011.832416083176,106669.0
63011.84241399655,106653.0
63011.85241190993,106682.0
63011.86240982331,106719.0
63011.872407736686,106702.0
63011.88240565007,106694.0
63011.89240356345,106702.0
63011.90240147682,106703.0
63011.9123993902,106679.0
63011.922397303584,106675.0
63011.93239521696,106702.0
63011.94239313034,106678.0
63011.95239104372,106666.0
63011.962388957094,106696.0
63011.972386870475,106653.0
63011.982384783856,106649.0
63011.99238269723,106668.0
63012.00238061061,106652.0
63012.01237852399,106639.0
63012.022376437366,106661.0
63012.03237435075,106672.0
63012.04237226413,106650.0
63012.0523701775,106642.0
63012.06236809088,106661.0
63012.072366004264,106638.0
63012.08236391764,106646.0
63012.09236183102,106650.0
63012.1023597444,106647.0
63012.112357657774,106608.0
63012.122355571155,106637.0
63012.132353484536,106646.0
63012.14235139791,106658.0
63012.15234931129,106630.0
63012.16234722467,106680.0
63012.172345138046,106666.0
63012.18234305143,106662.0
63012.19234096481,106645.0
63012.20233887818,106662.0
63012.21233679156,106667.0
63012.222334704944,106652.0
63012.23233261832,106648.0
63012.2423305317,106655.0
63012.25232844508,106658.0
63012.262326358454,106655.0
63012.272324271835,106655.0
63012.282322185216,106691.0
63012.29232009859,106645.0
63012.30231801197,106637.0
63012.31231592535,106631.0
63012.32231383873,106638.0
63012.33231175211,106660.0
63012.34230966549,106661.0
63012.35230757887,106646.0
63012.36230549224,106636.0
63012.372303405624,106645.0
63012.382301319005,106672.0
63012.39229923238,106660.0
63012.40229714576,106661.0
63012.41229505914,106665.0
63012.422292972515,106665.0
63012.432290885896,106656.0
63012.44228879928,106637.0
63012.45228671265,106682.0
63012.46228462603,106673.0
63012.47228253941,106668.0
63012.48228045279,106663.0
63012.49227836617,106642.0
63012.50227627955,106672.0
63012.51227419292,106651.0
63012.522272106304,106649.0
63012.532270019685,106629.0
63012.54226793306,106692.0
63012.55226584644,106688.0
63012.56226375982,106662.0
63012.572261673195,106681.0
63012.582259586576,106649.0
63012.59225749996,106664.0
63012.60225541333,106692.0
63012.61225332671,106675.0
63012.62225124009,106696.0
63012.63224915347,106687.0
63012.64224706685,106671.0
63012.65224498023,106675.0
63012.6622428936,106670.0
63012.67224080698,106677.0
63012.682238720365,106660.0
63012.69223663374,106658.0
63012.70223454712,106626.0
63012.7122324605,106691.0
63012.722230373874,106672.0
63012.732228287256,106660.0
63012.74222620064,106690.0
63012.75222411401,106683.0
63012.76222202739,106671.0
63012.77221994077,106678.0
63012.78221785415,106657.0
63012.79221576753,106685.0
63012.80221368091,106714.0
63012.81221159428,106664.0
63012.82220950766,106683.0
63012.832207421045,106669.0
63012.84220533442,106681.0
63012.8522032478,106637.0
63012.86220116118,106681.0
63012.872199074554,106650.0
63012.882196987935,106650.0
63012.89219490132,106666.0
63012.9021928147,106635.0
63012.91219072807,106632.0
63012.92218864145,106631.0
63012.93218655483,106646.0
63012.94218446821,106613.0
63012.95218238159,106648.0
63012.96218029497,106694.0
63012.97217820834,106628.0
63012.982176121724,106656.0
63012.992174035106,106635.0
63013.00217194848,106662.0
63013.01216986186,106649.0
63013.02216777524,106616.0
63013.032165688615,106647.0
63013.042163602,106648.0
63013.05216151538,106642.0
63013.06215942875,106653.0
63013.07215734213,106638.0
63013.08215525551,106642.0
63013.09215316889,106618.0
63013.10215108227,106612.0
63013.11214899565,106635.0
63013.12214690902,106650.0
63013.132144822404,106643.0
63013.142142735785,106602.0
63013.15214064916,106646.0
63013.16213856254,106641.0
63013.17213647592,106628.0
63013.182134389295,106642.0
63013.192132302676,106633.0
63013.20213021606,106626.0
63013.21212812943,106669.0
63013.22212604281,106625.0
63013.23212395619,106632.0
63013.24212186957,106640.0
63013.25211978295,106652.0
63013.26211769633,106614.0
63013.2721156097,106646.0
63013.282113523084,106648.0
63013.292111436465,106625.0
63013.30210934984,106656.0
63013.31210726322,106672.0
63013.3221051766,106658.0
63013.332103089975,106664.0
63013.342101003356,106642.0
63013.35209891674,106624.0
63013.36209683011,106676.0
63013.37209474349,106662.0
63013.38209265687,106648.0
63013.39209057025,106678.0
63013.40208848363,106661.0
63013.41208639701,106684.0
63013.42208431038,106656.0
63013.432082223764,106650.0
63013.442080137145,106669.0
63013.45207805052,106684.0
63013.4620759639,106644.0
63013.47207387728,106666.0
63013.48207179066,106665.0
63013.492069704036,106653.0
63013.50206761742,106650.0
63013.5120655308,106675.0
63013.52206344417,106674.0
63013.53206135755,106686.0
63013.542059270934,106688.0
63013.55205718431,106665.0
63013.56205509769,106669.0
63013.57205301107,106678.0
63013.582050924444,106662.0
63013.592048837825,106648.0
63013.602046751206,106667.0
63013.61204466458,106660.0
63013.62204257796,106626.0
63013.63204049134,106666.0
63013.642038404716,106675.0
63013.6520363181,106640.0
63013.66203423148,106660.0
63013.67203214485,106652.0
63013.68203005823,106678.0
63013.692027971614,106676.0
63013.70202588499,106672.0
63013.71202379837,106694.0
63013.72202171175,106681.0
63013.732019625124,106694.0
63013.742017538505,106670.0
63013.752015451886,106648.0
63013.76201336526,106652.0
63013.77201127864,106672.0
63013.78200919202,106629.0
63013.792007105396,106656.0
63013.80200501878,106642.0
63013.81200293216,106625.0
63013.82200084553,106643.0
63013.83199875891,106651.0
63013.841996672294,106603.0
63013.85199458567,106644.0
63013.86199249905,106617.0
63013.87199041243,106647.0
63013.881988325804,106644.0
63013.891986239185,106616.0
63013.901984152566,106644.0
63013.91198206594,106643.0
63013.92197997932,106641.0
63013.9319778927,106648.0
63013.941975806076,106649.0
63013.95197371946,106658.0
63013.96197163284,106630.0
63013.97196954621,106636.0
63013.98196745959,106616.0
63013.991965372974,106622.0
63014.00196328635,106626.0
63014.01196119973,106642.0
63014.02195911311,106611.0
63014.031957026484,106630.0
63014.041954939865,106653.0
63014.051952853246,106645.0
63014.06195076663,106641.0
63014.07194868,106632.0
63014.08194659338,106650.0
63014.09194450676,106637.0
63014.10194242014,106659.0
63014.11194033352,106634.0
63014.1219382469,106647.0
63014.13193616027,106641.0
63014.141934073654,106659.0
63014.151931987035,106667.0
63014.16192990041,106597.0
63014.17192781379,106640.0
63014.18192572717,106609.0
63014.191923640545,106640.0
63014.201921553926,106647.0
63014.21191946731,106648.0
63014.22191738068,106657.0
63014.23191529406,106679.0
63014.24191320744,106666.0
63014.25191112082,106663.0
63014.2619090342,106664.0
63014.27190694758,106686.0
63014.28190486095,106648.0
63014.291902774334,106676.0
63014.301900687715,106656.0
63014.31189860109,106679.0
63014.32189651447,106659.0
63014.33189442785,106678.0
63014.341892341225,106667.0
63014.351890254606,106646.0
63014.36188816799,106695.0
63014.37188608136,106680.0
63014.38188399474,106656.0
63014.39188190812,106701.0
63014.4018798215,106678.0
63014.41187773488,106680.0
63014.42187564826,106631.0
63014.43187356163,106697.0
63014.44187147501,106696.0
63014.451869388395,106693.0
63014.46186730177,106673.0
63014.47186521515,106717.0
63014.48186312853,106699.0
63014.491861041904,106680.0
63014.501858955286,106704.0
63014.51185686867,106686.0
63014.52185478204,106674.0
63014.53185269542,106660.0
63014.5418506088,106686.0
63014.55184852218,106687.0
63014.56184643556,106703.0
63014.57184434894,106665.0
63014.58184226231,106694.0
63014.59184017569,106707.0
63014.601838089075,106652.0
63014.61183600245,106703.0
63014.62183391583,106693.0
63014.63183182921,106684.0
63014.64182974259,106691.0
63014.651827655965,106724.0
63014.66182556935,106696.0
63014.67182348273,106704.0
63014.6818213961,106702.0
63014.69181930948,106644.0
63014.70181722286,106678.0
63014.71181513624,106679.0
63014.72181304962,106662.0
63014.731810963,106653.0
63014.74180887637,106668.0
63014.751806789754,106641.0
63014.761804703136,106670.0
63014.77180261651,106638.0
63014.78180052989,106670.0
63014.79179844327,106661.0
63014.801796356645,106660.0
63014.81179427003,106671.0
63014.82179218341,106674.0
63014.83179009678,106659.0
63014.84178801016,106632.0
63014.85178592354,106677.0
63014.86178383692,106668.0
63014.8717817503,106651.0
63014.88177966368,106673.0
63014.89177757705,106680.0
63014.901775490434,106669.0
63014.911773403815,106668.0
63014.92177131719,106648.0
63014.93176923057,106698.0
63014.94176714395,106666.0
63014.951765057325,106707.0
63014.961762970706,106680.0
63014.97176088409,106694.0
63014.98175879746,106664.0
63014.99175671084,106656.0
63015.00175462422,106688.0
63015.0117525376,106651.0
63015.02175045098,106664.0
63015.03174836436,106676.0
63015.04174627773,106649.0
63015.051744191114,106677.0
63015.061742104495,106660.0
63015.07174001787,106659.0
63015.08173793125,106699.0
63015.09173584463,106641.0
63015.101733758005,106678.0
63015.111731671386,106642.0
63015.12172958477,106676.0
63015.13172749814,106703.0
63015.14172541152,106682.0
63015.1517233249,106673.0
63015.16172123828,106665.0
63015.17171915166,106691.0
63015.18171706504,106647.0
63015.19171497841,106686.0
63015.201712891794,106720.0
63015.211710805175,106681.0
63015.221708718556,106670.0
63015.23170663193,106674.0
63015.24170454531,106660.0
63015.25170245869,106667.0
63015.261700372066,106695.0
63015.27169828545,106690.0
63015.28169619883,106664.0
63015.2916941122,106709.0
63015.30169202558,106666.0
63015.311689938964,106685.0
63015.32168785234,106668.0
63015.33168576572,106669.0
63015.3416836791,106673.0
63015.351681592474,106703.0
63015.361679505855,106685.0
63015.371677419236,106687.0
63015.38167533261,106667.0
63015.39167324599,106685.0
63015.40167115937,106688.0
63015.411669072746,106710.0
63015.42166698613,106691.0
63015.43166489951,106682.0
63015.44166281288,106678.0
63015.45166072626,106674.0
63015.461658639644,106706.0
63015.47165655302,106685.0
63015.4816544664,106680.0
63015.49165237978,106714.0
63015.501650293154,106684.0
63015.511648206535,106690.0
63015.521646119916,106702.0
63015.53164403329,106672.0
63015.54164194667,106702.0
63015.55163986005,106708.0
63015.561637773426,106673.0
63015.57163568681,106677.0
63015.58163360019,106707.0
63015.59163151356,106685.0
63015.60162942694,106689.0
63015.611627340324,106705.0
63015.6216252537,106618.0
63015.63162316708,106658.0
63015.64162108046,106690.0
63015.651618993834,106644.0
63015.661616907215,106646.0
63015.671614820596,106653.0
63015.68161273397,106629.0
63015.69161064735,106603.0
63015.70160856073,106653.0
63015.711606474106,106645.0
63015.72160438749,106640.0
63015.73160230087,106670.0
63015.74160021424,106636.0
63015.75159812762,106673.0
63015.761596041004,106659.0
63015.77159395438,106624.0
63015.78159186776,106661.0
63015.79158978114,106652.0
63015.80158769452,106651.0
63015.811585607895,106648.0
63015.821583521276,106637.0
63015.83158143466,106650.0
63015.84157934803,106644.0
63015.85157726141,106647.0
63015.86157517479,106642.0
63015.87157308817,106677.0
63015.88157100155,106638.0
63015.89156891493,106667.0
63015.9015668283,106678.0
63015.911564741684,106622.0
63015.921562655065,106645.0
63015.93156056844,106674.0
63015.94155848182,106623.0
63015.9515563952,106645.0
63015.961554308575,106656.0
63015.971552221956,106654.0
63015.98155013534,106645.0
63015.99154804871,106666.0
63016.00154596209,106656.0
63016.01154387547,106645.0
63016.02154178885,106633.0
63016.03153970223,106631.0
63016.04153761561,106660.0
63016.05153552898,106645.0
63016.061533442364,106654.0
63016.071531355745,106678.0
63016.08152926912,106662.0
63016.0915271825,106660.0
63016.10152509588,106627.0
63016.111523009255,106685.0
63016.121520922636,106677.0
63016.13151883602,106692.0
63016.14151674939,106691.0
63016.15151466277,106657.0
63016.16151257615,106662.0
63016.17151048953,106653.0
63016.18150840291,106705.0
63016.19150631629,106670.0
63016.20150422966,106670.0
63016.21150214304,106673.0
63016.221500056425,106659.0
63016.2314979698,106694.0
63016.24149588318,106672.0
63016.25149379656,106657.0
63016.261491709934,106651.0
63016.271489623316,106651.0
63016.2814875367,106674.0
63016.29148545007,106700.0
63016.30148336345,106662.0
63016.31148127683,106711.0
63016.32147919021,106669.0
63016.33147710359,106674.0
63016.34147501697,106650.0
63016.35147293034,106679.0
63016.36147084372,106675.0
63016.371468757105,106710.0
63016.381466670486,106676.0
63016.39146458386,106679.0
63016.40146249724,106690.0
63016.41146041062,106690.0
63016.421458323995,106682.0
63016.43145623738,106716.0
63016.44145415076,106690.0
63016.45145206413,106689.0
63016.46144997751,106688.0
63016.47144789089,106690.0
63016.48144580427,106705.0
63016.49144371765,106716.0
63016.50144163103,106683.0
63016.5114395444,106659.0
63016.521437457784,106694.0
63016.531435371166,106691.0
63016.54143328454,106726.0
63016.55143119792,106700.0
63016.5614291113,106676.0
63016.571427024675,106659.0
63016.58142493806,106641.0
63016.59142285144,106627.0
63016.60142076481,106661.0
63016.61141867819,106641.0
63016.62141659157,106634.0
63016.63141450495,106650.0
63016.64141241833,106629.0
63016.65141033171,106648.0
63016.66140824508,106647.0
63016.671406158464,106627.0
63016.681404071845,106647.0
63016.69140198522,106644.0
63016.7013998986,106673.0
63016.71139781198,106629.0
63016.721395725355,106617.0
63016.731393638736,106644.0
63016.74139155212,106614.0
63016.75138946549,106612.0
63016.76138737887,106645.0
63016.77138529225,106652.0
63016.78138320563,106677.0
63016.79138111901,106612.0
63016.80137903239,106644.0
63016.81137694576,106655.0
63016.821374859144,106657.0
63016.831372772525,106648.0
63016.8413706859,106672.0
63016.85136859928,106643.0
63016.86136651266,106630.0
63016.871364426035,106670.0
63016.881362339416,106644.0
63016.8913602528,106651.0
63016.90135816617,106631.0
63016.91135607955,106666.0
63016.92135399293,106640.0
63016.93135190631,106654.0
63016.94134981969,106688.0
63016.95134773307,106656.0
63016.96134564645,106673.0
63016.971343559824,106657.0
63016.981341473205,106663.0
63016.991339386586,106644.0
63017.00133729996,106625.0
63017.01133521334,106650.0
63017.02133312672,106639.0
63017.031331040096,106641.0
63017.04132895348,106651.0
63017.05132686686,106667.0
63017.06132478023,106663.0
63017.07132269361,106710.0
63017.081320606994,106633.0
63017.09131852037,106664.0
63017.10131643375,106681.0
63017.11131434713,106690.0
63017.121312260504,106656.0
63017.131310173885,106667.0
63017.141308087266,106658.0
63017.15130600064,106660.0
63017.16130391402,106625.0
63017.1713018274,106646.0
63017.181299740776,106666.0
63017.19129765416,106652.0
63017.20129556754,106697.0
63017.21129348091,106642.0
63017.22129139429,106662.0
63017.231289307674,106657.0
63017.24128722105,106659.0
63017.25128513443,106714.0
63017.26128304781,106677.0
63017.271280961184,106639.0
63017.281278874565,106701.0
63017.291276787946,106683.0
63017.30127470132,106673.0
63017.3112726147,106685.0
63017.32127052808,106694.0
63017.331268441456,106670.0
63017.34126635484,106702.0
63017.35126426822,106699.0
63017.36126218159,106659.0
63017.37126009497,106675.0
63017.381258008354,106679.0
63017.39125592173,106736.0
63017.40125383511,106654.0
63017.41125174849,106681.0
63017.421249661864,106692.0
63017.431247575245,106693.0
63017.441245488626,106675.0
63017.451243402,106716.0
63017.46124131538,106695.0
63017.47123922876,106702.0
63017.481237142136,106647.0
63017.49123505552,106658.0
63017.5012329689,106666.0
63017.51123088227,106649.0
63017.52122879565,106659.0
63017.531226709034,106644.0
63017.541224622415,106652.0
63017.55122253579,106633.0
63017.56122044917,106647.0
63017.57121836255,106653.0
63017.581216275925,106646.0
63017.591214189306,106627.0
63017.60121210269,106660.0
63017.61121001606,106657.0
63017.62120792944,106637.0
63017.63120584282,106609.0
63017.6412037562,106640.0
63017.65120166958,106665.0
63017.66119958296,106634.0
63017.67119749633,106653.0
63017.681195409714,106666.0
63017.691193323095,106617.0
63017.70119123647,106654.0
63017.71118914985,106641.0
63017.72118706323,106664.0
63017.731184976605,106637.0
63017.741182889986,106621.0
63017.75118080337,106610.0
63017.76117871674,106661.0
63017.77117663012,106623.0
63017.7811745435,106644.0
63017.79117245688,106647.0
63017.80117037026,106626.0
63017.81116828364,106649.0
63017.82116619701,106620.0
63017.831164110394,106653.0
63017.841162023775,106677.0
63017.85115993715,106642.0
63017.86115785053,106649.0
63017.87115576391,106642.0
63017.881153677285,106664.0
63017.891151590666,106644.0
63017.90114950405,106642.0
63017.91114741742,106648.0
63017.9211453308,106627.0
63017.93114324418,106675.0
63017.94114115756,106636.0
63017.95113907094,106648.0
63017.96113698432,106653.0
63017.97113489769,106622.0
63017.98113281107,106664.0
63017.991130724455,106661.0
63018.00112863783,106665.0
63018.01112655121,106691.0
63018.02112446459,106657.0
63018.031122377964,106668.0
63018.041120291346,106659.0
63018.05111820473,106675.0
63018.0611161181,106673.0
63018.07111403148,106657.0
63018.08111194486,106654.0
63018.09110985824,106657.0
63018.10110777162,106663.0
63018.111105685,106675.0
63018.12110359838,106658.0
63018.13110151175,106707.0
63018.141099425135,106690.0
63018.151097338516,106674.0
63018.16109525189,106671.0
63018.17109316527,106672.0
63018.18109107865,106695.0
63018.191088992025,106678.0
63018.20108690541,106661.0
63018.21108481879,106686.0
63018.22108273216,106699.0
63018.23108064554,106689.0
63018.24107855892,106662.0
63018.2510764723,106710.0
63018.26107438568,106672.0
63018.27107229906,106695.0
63018.28107021243,106719.0
63018.291068125814,106650.0
63018.301066039196,106717.0
63018.31106395257,106693.0
63018.32106186595,106667.0
63018.33105977933,106672.0
63018.341057692705,106673.0
63018.35105560609,106694.0
63018.36105351947,106704.0
63018.37105143284,106723.0
63018.38104934622,106722.0
63018.3910472596,106704.0
63018.40104517298,106723.0
63018.41104308636,106696.0
63018.42104099974,106727.0
63018.43103891311,106688.0
63018.441036826494,106661.0
63018.451034739875,106708.0
63018.46103265325,106671.0
63018.47103056663,106695.0
63018.48102848001,106685.0
63018.491026393385,106654.0
63018.501024306766,106649.0
63018.51102222015,106678.0
63018.52102013352,106672.0
63018.5310180469,106669.0
63018.54101596028,106684.0
63018.55101387366,106632.0
63018.56101178704,106661.0
63018.57100970042,106678.0
63018.58100761379,106640.0
63018.591005527174,106696.0
63018.601003440555,106665.0
63018.61100135393,106655.0
63018.62099926731,106670.0
63018.63099718069,106651.0
63018.640995094065,106666.0
63018.650993007446,106641.0
63018.66099092083,106644.0
63018.6709888342,106594.0
63018.68098674758,106662.0
63018.69098466096,106641.0
63018.700982574344,106675.0
63018.71098048772,106655.0
63018.7209784011,106657.0
63018.73097631448,106656.0
63018.740974227854,106676.0
63018.750972141235,106653.0
63018.760970054616,106674.0
63018.77096796799,106666.0
63018.78096588137,106660.0
63018.79096379475,106684.0
63018.800961708126,106678.0
63018.81095962151,106680.0
63018.82095753489,106651.0
63018.83095544826,106684.0
63018.84095336164,106679.0
63018.850951275024,106651.0
63018.8609491884,106694.0
63018.87094710178,106655.0
63018.88094501516,106684.0
63018.890942928534,106658.0
63018.900940841915,106657.0
63018.910938755296,106686.0
63018.92093666867,106673.0
63018.93093458205,106701.0
63018.94093249543,106682.0
63018.950930408806,106674.0
63018.96092832219,106687.0
63018.97092623557,106681.0
63018.98092414894,106712.0
63018.99092206232,106673.0
63019.000919975704,106692.0
63019.01091788908,106661.0
63019.02091580246,106666.0
63019.03091371584,106716.0
63019.040911629214,106688.0
63019.050909542595,106667.0
63019.060907455976,106718.0
63019.07090536935,106651.0
63019.08090328273,106692.0
63019.09090119611,106649.0
63019.100899109486,106676.0
63019.11089702287,106717.0
63019.12089493625,106689.0
63019.13089284962,106697.0
63019.140890763,106677.0
63019.150888676384,106716.0
63019.16088658976,106678.0
63019.17088450314,106711.0
63019.18088241652,106721.0
63019.190880329894,106656.0
63019.200878243275,106706.0
63019.210876156656,106692.0
63019.22087407003,106685.0
63019.23087198341,106709.0
63019.24086989679,106703.0
63019.25086781017,106698.0
63019.26086572355,106667.0
63019.27086363693,106730.0
63019.28086155031,106702.0
63019.29085946368,106715.0
63019.300857377064,106681.0
63019.310855290445,106695.0
63019.32085320382,106716.0
63019.3308511172,106736.0
63019.34084903058,106723.0
63019.350846943955,106713.0
63019.360844857336,106708.0
63019.37084277072,106694.0
63019.38084068409,106702.0
63019.39083859747,106681.0
63019.40083651085,106689.0
63019.41083442423,106698.0
63019.42083233761,106665.0
63019.43083025099,106666.0
63019.44082816436,106703.0
63019.450826077744,106689.0
63019.460823991125,106662.0
63019.4708219045,106689.0
63019.48081981788,106680.0
63019.49081773126,106678.0
63019.500815644635,106689.0
63019.510813558016,106660.0
63019.5208114714,106687.0
63019.53080938477,106672.0
63019.54080729815,106645.0
63019.55080521153,106644.0
63019.56080312491,106690.0
63019.57080103829,106666.0
63019.58079895167,106639.0
63019.59079686504,106679.0
63019.600794778424,106658.0
63019.610792691805,106666.0
63019.62079060518,106692.0
63019.63078851856,106679.0
63019.64078643194,106681.0
63019.650784345315,106679.0
63019.660782258696,106661.0
63019.67078017208,106637.0
63019.68077808545,106711.0
63019.69077599883,106678.0
63019.70077391221,106678.0
63019.71077182559,106662.0
63019.72076973897,106685.0
63019.73076765235,106674.0
63019.74076556572,106691.0
63019.7507634791,106644.0
63019.760761392485,106670.0
63019.77075930586,106671.0
63019.78075721924,106671.0
63019.79075513262,106671.0
63019.800753045994,106664.0
63019.810750959376,106676.0
63019.82074887276,106662.0
63019.83074678613,106671.0
63019.84074469951,106658.0
63019.85074261289,106693.0
63019.860740526274,106667.0
63019.87073843965,106666.0
63019.88073635303,106668.0
63019.89073426641,106662.0
63019.90073217978,106692.0
63019.910730093165,106694.0
63019.920728006546,106670.0
63019.93072591992,106689.0
63019.9407238333,106688.0
63019.95072174668,106693.0
63019.960719660055,106679.0
63019.97071757344,106675.0
63019.98071548682,106689.0
63019.99071340019,106685.0
63020.00071131357,106683.0
63020.01070922695,106662.0
63020.02070714033,106705.0
63020.03070505371,106717.0
63020.04070296709,106698.0
63020.05070088046,106697.0
63020.060698793844,106706.0
63020.070696707226,106667.0
63020.0806946206,106660.0
63020.09069253398,106722.0
63020.10069044736,106710.0
63020.110688360735,106715.0
63020.12068627412,106706.0
63020.1306841875,106664.0
63020.14068210087,106705.0
63020.15068001425,106658.0
63020.16067792763,106686.0
63020.17067584101,106701.0
63020.18067375439,106702.0
63020.19067166777,106713.0
63020.20066958114,106724.0
63020.210667494524,106710.0
63020.220665407905,106709.0
63020.23066332128,106696.0
63020.24066123466,106746.0
63020.25065914804,106721.0
63020.260657061415,106722.0
63020.270654974796,106725.0
63020.28065288818,106731.0
63020.29065080155,106710.0
63020.30064871493,106717.0
63020.31064662831,106708.0
63020.32064454169,106699.0
63020.33064245507,106692.0
63020.34064036845,106703.0
63020.35063828182,106671.0
63020.360636195204,106710.0
63020.370634108585,106684.0
63020.38063202196,106680.0
63020.39062993534,106653.0
63020.40062784872,106638.0
63020.4106257621,106642.0
63020.420623675476,106665.0
63020.43062158886,106696.0
63020.44061950224,106663.0
63020.45061741561,106652.0
63020.46061532899,106677.0
63020.470613242374,106656.0
63020.48061115575,106680.0
63020.49060906913,106656.0
63020.50060698251,106651.0
63020.510604895884,106686.0
63020.520602809265,106668.0
63020.530600722646,106645.0
63020.54059863602,106667.0
63020.5505965494,106672.0
63020.56059446278,106634.0
63020.570592376156,106694.0
63020.58059028954,106699.0
63020.59058820292,106671.0
63020.60058611629,106670.0
63020.61058402967,106681.0
63020.620581943054,106678.0
63020.63057985643,106668.0
63020.64057776981,106637.0
63020.65057568319,106687.0
63020.660573596564,106590.0
63020.670571509945,106664.0
63020.680569423326,106660.0
63020.6905673367,106671.0
63020.70056525008,106654.0
63020.71056316346,106668.0
63020.720561076836,106659.0
63020.73055899022,106651.0
63020.7405569036,106677.0
63020.75055481697,106674.0
63020.76055273035,106644.0
63020.770550643734,106686.0
63020.78054855711,106644.0
63020.79054647049,106703.0
63020.80054438387,106670.0
63020.810542297244,106668.0
63020.820540210625,106636.0
63020.830538124006,106684.0
63020.84053603738,106667.0
63020.85053395076,106669.0
63020.86053186414,106664.0
63020.870529777516,106679.0
63020.8805276909,106663.0
63020.89052560428,106697.0
63020.90052351765,106665.0
63020.91052143103,106688.0
63020.920519344414,106715.0
63020.93051725779,106690.0
63020.94051517117,106701.0
63020.95051308455,106687.0
63020.960510997924,106653.0
63020.970508911305,106661.0
63020.980506824686,106660.0
63020.99050473807,106689.0
63021.00050265144,106693.0
63021.01050056482,106654.0
63021.0204984782,106693.0
63021.03049639158,106700.0
63021.04049430496,106692.0
63021.05049221834,106686.0
63021.06049013171,106671.0
63021.070488045094,106690.0
63021.080485958475,106675.0
63021.09048387185,106703.0
63021.10048178523,106689.0
63021.11047969861,106694.0
63021.120477611985,106649.0
63021.130475525366,106701.0
63021.14047343875,106682.0
63021.15047135212,106716.0
63021.1604692655,106696.0
63021.17046717888,106691.0
63021.18046509226,106744.0
63021.19046300564,106677.0
63021.20046091902,106695.0
63021.21045883239,106692.0
63021.220456745774,106706.0
63021.230454659155,106687.0
63021.24045257253,106715.0
63021.25045048591,106713.0
63021.26044839929,106711.0
63021.270446312665,106712.0
63021.280444226046,106692.0
63021.29044213943,106680.0
63021.3004400528,106713.0
63021.31043796618,106649.0
63021.32043587956,106677.0
63021.33043379294,106678.0
63021.34043170632,106683.0
63021.3504296197,106690.0
63021.36042753307,106664.0
63021.370425446454,106687.0
63021.380423359835,106669.0
63021.39042127321,106635.0
63021.40041918659,106658.0
63021.41041709997,106677.0
63021.420415013345,106640.0
63021.430412926726,106659.0
63021.44041084011,106655.0
63021.45040875348,106649.0
63021.46040666686,106679.0
63021.47040458024,106635.0
63021.48040249362,106664.0
63021.490400407,106645.0
63021.50039832038,106691.0
63021.51039623375,106655.0
63021.52039414713,106657.0
63021.530392060515,106660.0
63021.54038997389,106655.0
63021.55038788727,106690.0
63021.56038580065,106652.0
63021.57038371403,106660.0
63021.580381627406,106691.0
63021.59037954079,106648.0
63021.60037745417,106652.0
63021.61037536754,106651.0
63021.62037328092,106665.0
63021.630371194304,106641.0
63021.64036910768,106667.0
63021.65036702106,106680.0
63021.66036493444,106620.0
63021.67036284781,106675.0
63021.680360761195,106659.0
63021.690358674576,106633.0
63021.70035658795,106679.0
63021.71035450133,106640.0
63021.72035241471,106632.0
63021.730350328085,106650.0
63021.74034824147,106629.0
63021.75034615485,106659.0
63021.76034406822,106662.0
63021.7703419816,106667.0
63021.78033989498,106643.0
63021.79033780836,106695.0
63021.80033572174,106657.0
63021.81033363512,106679.0
63021.82033154849,106681.0
63021.830329461874,106652.0
63021.840327375256,106693.0
63021.85032528863,106702.0
63021.86032320201,106634.0
63021.87032111539,106660.0
63021.880319028765,106659.0
63021.89031694215,106682.0
63021.90031485553,106649.0
63021.9103127689,106710.0
63021.92031068228,106674.0
63021.93030859566,106683.0
63021.94030650904,106680.0
63021.95030442242,106674.0
63021.9603023358,106692.0
63021.97030024917,106692.0
63021.980298162554,106691.0
63021.990296075935,106687.0
63022.00029398931,106684.0
63022.01029190269,106685.0
63022.02028981607,106681.0
63022.030287729445,106686.0
63022.040285642826,106688.0
63022.05028355621,106700.0
63022.06028146958,106672.0
63022.07027938296,106669.0
63022.08027729634,106716.0
63022.09027520972,106701.0
63022.1002731231,106689.0
63022.11027103648,106722.0
63022.12026894985,106692.0
63022.130266863234,106698.0
63022.140264776615,106717.0
63022.15026269,106673.0
63022.16026060337,106702.0
63022.17025851675,106710.0
63022.18025643013,106679.0
63022.190254343506,106708.0
63022.20025225689,106722.0
63022.21025017027,106707.0
63022.22024808364,106678.0
63022.23024599702,106728.0
63022.240243910404,106695.0
63022.25024182378,106701.0
63022.26023973716,106719.0
63022.27023765054,106700.0
63022.280235563914,106703.0
63022.290233477295,106680.0
63022.300231390676,106660.0
63022.31022930405,106659.0
63022.32022721743,106668.0
63022.33022513081,106668.0
63022.340223044186,106667.0
63022.35022095757,106637.0
63022.36021887095,106685.0
63022.37021678432,106649.0
63022.3802146977,106624.0
63022.390212611084,106630.0
63022.40021052446,106667.0
63022.41020843784,106651.0
63022.42020635122,106653.0
63022.430204264594,106676.0
63022.440202177975,106646.0
63022.450200091356,106657.0
63022.46019800473,106661.0
63022.47019591811,106620.0
63022.48019383149,106612.0
63022.490191744866,106674.0
63022.50018965825,106651.0
63022.51018757163,106658.0
63022.520185485,106655.0
63022.53018339838,106643.0
63022.540181311764,106662.0
63022.55017922514,106682.0
63022.56017713852,106660.0
63022.5701750519,106680.0
63022.580172965274,106651.0
63022.590170878655,106654.0
63022.600168792036,106654.0
63022.61016670541,106666.0
63022.62016461879,106655.0
63022.63016253217,106655.0
63022.640160445546,106649.0
63022.65015835893,106620.0
63022.66015627231,106658.0
63022.67015418568,106664.0
63022.68015209906,106647.0
63022.690150012444,106663.0
63022.70014792582,106666.0
63022.7101458392,106638.0
63022.72014375258,106673.0
63022.73014166596,106664.0
63022.740139579335,106668.0
63022.750137492716,106688.0
63022.7601354061,106659.0
63022.77013331947,106668.0
63022.78013123285,106681.0
63022.79012914623,106668.0
63022.80012705961,106630.0
63022.81012497299,106700.0
63022.82012288637,106684.0
63022.83012079974,106669.0
63022.840118713124,106693.0
63022.850116626505,106672.0
63022.86011453988,106679.0
63022.87011245326,106670.0
63022.88011036664,106665.0
63022.890108280015,106716.0
63022.900106193396,106685.0
63022.91010410678,106708.0
63022.92010202015,106689.0
63022.93009993353,106708.0
63022.94009784691,106684.0
63022.95009576029,106688.0
63022.96009367367,106685.0
63022.97009158705,106654.0
63022.98008950042,106684.0
63022.990087413804,106665.0
63023.000085327185,106668.0
63023.01008324056,106690.0
63023.02008115394,106686.0
63023.03007906732,106679.0
63023.040076980695,106729.0
63023.050074894076,106657.0
63023.06007280746,106700.0
63023.07007072083,106700.0
63023.08006863421,106679.0
63023.09006654759,106709.0
63023.10006446097,106707.0
63023.11006237435,106706.0
63023.12006028773,106682.0
63023.1300582011,106721.0
63023.140056114484,106665.0
63023.150054027865,106712.0
63023.16005194124,106725.0
63023.17004985462,106708.0
63023.180047768,106747.0
63023.190045681375,106702.0
63023.200043594756,106710.0
63023.21004150814,106680.0
63023.22003942151,106701.0
63023.23003733489,106714.0
63023.24003524827,106664.0
63023.25003316165,106707.0
63023.26003107503,106723.0
63023.27002898841,106696.0
63023.28002690178,106662.0
63023.29002481516,106660.0
63023.300022728545,106657.0
63023.310020641926,106692.0
63023.3200185553,106654.0
63023.33001646868,106667.0
63023.34001438206,106667.0
63023.350012295436,106663.0
63023.36001020882,106691.0
63023.3700081222,106672.0
63023.38000603557,106706.0
63023.39000394895,106680.0
63023.400001862334,106705.0
63023.40999977571,106638.0
63023.41999768909,106671.0
63023.42999560247,106659.0
63023.43999351584,106660.0
63023.449991429225,106691.0
63023.459989342606,106655.0
63023.46998725598,106665.0
63023.47998516936,106642.0
63023.48998308274,106653.0
63023.499980996115,106650.0
63023.5099789095,106674.0
63023.51997682288,106674.0
63023.52997473625,106664.0
63023.53997264963,106691.0
63023.54997056301,106671.0
63023.55996847639,106681.0
63023.56996638977,106709.0
63023.57996430315,106688.0
63023.58996221652,106668.0
63023.599960129905,106686.0
63023.609958043286,106670.0
63023.61995595666,106659.0
63023.62995387004,106673.0
63023.63995178342,106657.0
63023.649949696795,106675.0
63023.65994761018,106673.0
63023.66994552356,106678.0
63023.67994343693,106695.0
63023.68994135031,106674.0
63023.69993926369,106683.0
63023.70993717707,106700.0
63023.71993509045,106696.0
63023.72993300383,106705.0
63023.7399309172,106728.0
63023.749928830584,106681.0
63023.759926743965,106693.0
63023.76992465734,106715.0
63023.77992257072,106706.0
63023.7899204841,106699.0
63023.799918397475,106689.0
63023.809916310856,106715.0
63023.81991422424,106697.0
63023.82991213761,106723.0
63023.83991005099,106679.0
63023.84990796437,106719.0
63023.85990587775,106700.0
63023.86990379113,106698.0
63023.87990170451,106715.0
63023.88989961789,106713.0
63023.899897531264,106695.0
63023.909895444645,106677.0
63023.91989335803,106714.0
63023.9298912714,106723.0
63023.93988918478,106720.0
63023.94988709816,106701.0
63023.959885011536,106730.0
63023.96988292492,106729.0
63023.9798808383,106733.0
63023.98987875167,106699.0
63023.99987666505,106720.0
63024.009874578434,106716.0
63024.01987249181,106705.0
63024.02987040519,106684.0
63024.03986831857,106714.0
63024.049866231944,106727.0
63024.059864145325,106708.0
63024.069862058706,106697.0
63024.07985997208,106722.0
63024.08985788546,106734.0
63024.09985579884,106746.0
63024.109853712216,106675.0
63024.1198516256,106731.0
63024.12984953898,106695.0
63024.13984745235,106738.0
63024.14984536573,106737.0
63024.159843279114,106726.0
63024.16984119249,106723.0
63024.17983910587,106756.0
63024.18983701925,106733.0
63024.199834932624,106724.0
63024.209832846005,106699.0
63024.219830759386,106739.0
63024.22982867276,106712.0
63024.23982658614,106730.0
63024.24982449952,106713.0
63024.259822412896,106682.0
63024.26982032628,106691.0
63024.27981823966,106693.0
63024.28981615303,106693.0
63024.29981406641,106684.0
63024.309811979794,106717.0
63024.31980989317,106696.0
63024.32980780655,106682.0
63024.33980571993,106712.0
63024.349803633304,106707.0
63024.359801546685,106704.0
63024.369799460066,106682.0
63024.37979737344,106680.0
63024.38979528682,106656.0
63024.3997932002,106686.0
63024.409791113576,106678.0
63024.41978902696,106708.0
63024.42978694034,106698.0
63024.43978485371,106690.0
63024.44978276709,106678.0
63024.459780680474,106710.0
63024.469778593855,106680.0
63024.47977650723,106691.0
63024.48977442061,106689.0
63024.49977233399,106722.0
63024.509770247365,106716.0
63024.519768160746,106672.0
63024.52976607413,106680.0
63024.5397639875,106672.0
63024.54976190088,106666.0
63024.55975981426,106703.0
63024.56975772764,106695.0
63024.57975564102,106663.0
63024.5897535544,106692.0
63024.59975146777,106713.0
63024.609749381154,106701.0
63024.619747294535,106711.0
63024.62974520791,106687.0
63024.63974312129,106651.0
63024.64974103467,106701.0
63024.659738948045,106718.0
63024.669736861426,106685.0
63024.67973477481,106718.0
63024.68973268818,106700.0
63024.69973060156,106715.0
63024.70972851494,106717.0
63024.71972642832,106670.0
63024.7297243417,106713.0
63024.73972225508,106722.0
63024.74972016845,106694.0
63024.759718081834,106703.0
63024.769715995215,106685.0
63024.77971390859,106706.0
63024.78971182197,106712.0
63024.79970973535,106691.0
63024.809707648725,106711.0
63024.819705562106,106700.0
63024.82970347549,106733.0
63024.83970138886,106702.0
63024.84969930224,106715.0
63024.85969721562,106708.0
63024.869695129,106711.0
63024.87969304238,106744.0
63024.88969095576,106721.0
63024.89968886913,106694.0
63024.909686782514,106729.0
63024.919684695895,106719.0
63024.92968260927,106720.0
63024.93968052265,106726.0
63024.94967843603,106741.0
63024.959676349405,106729.0
63024.969674262786,106736.0
63024.97967217617,106683.0
63024.98967008954,106692.0
63024.99966800292,106747.0
63025.0096659163,106727.0
63025.01966382968,106736.0
63025.02966174306,106762.0
63025.03965965644,106696.0
63025.04965756982,106731.0
63025.05965548319,106712.0
63025.069653396575,106710.0
63025.079651309956,106739.0
63025.08964922333,106723.0
63025.09964713671,106709.0
63025.10964505009,106713.0
63025.119642963466,106713.0
63025.12964087685,106679.0
63025.13963879023,106711.0
63025.1496367036,106701.0
63025.15963461698,106679.0
63025.169632530364,106700.0
63025.17963044374,106687.0
63025.18962835712,106656.0
63025.1996262705,106704.0
63025.20962418387,106657.0
63025.219622097255,106690.0
63025.229620010636,106673.0
63025.23961792401,106679.0
63025.24961583739,106694.0
63025.25961375077,106697.0
63025.269611664145,106670.0
63025.27960957753,106688.0
63025.28960749091,106686.0
63025.29960540428,106678.0
63025.30960331766,106685.0
63025.31960123104,106689.0
63025.32959914442,106678.0
63025.3395970578,106693.0
63025.34959497118,106728.0
63025.35959288455,106688.0
63025.369590797935,106713.0
63025.379588711316,106689.0
63025.38958662469,106684.0
63025.39958453807,106663.0
63025.40958245145,106682.0
63025.419580364825,106685.0
63025.42957827821,106710.0
63025.43957619159,106684.0
63025.44957410496,106678.0
63025.45957201834,106696.0
63025.46956993172,106715.0
63025.4795678451,106686.0
63025.48956575848,106718.0
63025.49956367186,106693.0
63025.50956158523,106655.0
63025.519559498614,106708.0
63025.529557411995,106696.0
63025.53955532537,106696.0
63025.54955323875,106701.0
63025.55955115213,106693.0
63025.569549065505,106682.0
63025.579546978886,106701.0
63025.58954489227,106699.0
63025.59954280564,106725.0
63025.60954071902,106715.0
63025.6195386324,106711.0
63025.629536545785,106698.0
63025.63953445916,106727.0
63025.64953237254,106694.0
63025.65953028592,106702.0
63025.669528199294,106718.0
63025.679526112675,106719.0
63025.68952402606,106714.0
63025.69952193943,106698.0
63025.70951985281,106675.0
63025.71951776619,106730.0
63025.729515679566,106745.0
63025.73951359295,106711.0
63025.74951150633,106700.0
63025.7595094197,106739.0
63025.76950733308,106706.0
63025.779505246464,106721.0
63025.78950315984,106702.0
63025.79950107322,106705.0
63025.8094989866,106721.0
63025.819496899974,106697.0
63025.829494813355,106722.0
63025.839492726736,106721.0
63025.84949064011,106713.0
63025.85948855349,106722.0
63025.86948646687,106709.0
63025.879484380246,106722.0
63025.88948229363,106700.0
63025.89948020701,106696.0
63025.90947812038,106723.0
63025.91947603376,106713.0
63025.929473947144,106754.0
63025.93947186052,106711.0
63025.9494697739,106724.0
63025.95946768728,106721.0
63025.969465600654,106696.0
63025.979463514035,106721.0
63025.989461427416,106704.0
63025.99945934079,106745.0
63026.00945725417,106707.0
63026.01945516755,106687.0
63026.029453080926,106689.0
63026.03945099431,106680.0
63026.04944890769,106691.0
63026.05944682106,106670.0
63026.06944473444,106660.0
63026.079442647824,106701.0
63026.0894405612,106656.0
63026.09943847458,106650.0
63026.10943638796,106674.0
63026.119434301334,106649.0
63026.129432214715,106689.0
63026.139430128096,106646.0
63026.14942804147,106677.0
63026.15942595485,106637.0
63026.16942386823,106700.0
63026.179421781606,106693.0
63026.18941969499,106677.0
63026.19941760837,106682.0
63026.20941552175,106685.0
63026.21941343512,106677.0
63026.229411348504,106692.0
63026.239409261885,106643.0
63026.24940717526,106683.0
63026.25940508864,106677.0
63026.26940300202,106679.0
63026.279400915395,106679.0
63026.289398828776,106670.0
63026.29939674216,106650.0
63026.30939465553,106663.0
63026.31939256891,106658.0
63026.32939048229,106657.0
63026.33938839567,106689.0
63026.34938630905,106681.0
63026.35938422243,106687.0
63026.3693821358,106646.0
63026.379380049184,106655.0
63026.389377962565,106678.0
63026.39937587594,106655.0
63026.40937378932,106677.0
63026.4193717027,106690.0
63026.429369616075,106689.0
63026.439367529456,106664.0
63026.44936544284,106711.0
63026.45936335621,106668.0
63026.46936126959,106664.0
63026.47935918297,106679.0
63026.48935709635,106682.0
63026.49935500973,106653.0
63026.50935292311,106695.0
63026.51935083648,106680.0
63026.529348749864,106693.0
63026.539346663245,106713.0
63026.54934457662,106668.0
63026.55934249,106692.0
63026.56934040338,106673.0
63026.579338316755,106698.0
63026.589336230136,106691.0
63026.59933414352,106702.0
63026.60933205689,106666.0
63026.61932997027,106691.0
63026.62932788365,106654.0
63026.63932579703,106689.0
63026.64932371041,106691.0
63026.65932162379,106710.0
63026.66931953716,106663.0
63026.679317450544,106697.0
63026.689315363925,106707.0
63026.6993132773,106682.0
63026.70931119068,106719.0
63026.71930910406,106698.0
63026.729307017435,106685.0
63026.739304930816,106710.0
63026.7493028442,106693.0
63026.75930075757,106692.0
63026.76929867095,106702.0
63026.77929658433,106710.0
63026.789294497714,106689.0
63026.79929241109,106704.0
63026.80929032447,106689.0
63026.81928823785,106688.0
63026.829286151224,106698.0
63026.839284064605,106703.0
63026.849281977986,106700.0
63026.85927989136,106695.0
63026.86927780474,106718.0
63026.87927571812,106717.0
63026.889273631496,106727.0
63026.89927154488,106727.0
63026.90926945826,106699.0
63026.91926737163,106695.0
63026.92926528501,106697.0
63026.939263198394,106700.0
63026.94926111177,106658.0
63026.95925902515,106672.0
63026.96925693853,106668.0
63026.9792548519,106656.0
63026.989252765285,106637.0
63026.999250678666,106666.0
63027.00924859204,106679.0
63027.01924650542,106704.0
63027.0292444188,106674.0
63027.039242332175,106645.0
63027.04924024556,106645.0
63027.05923815894,106687.0
63027.06923607231,106669.0
63027.07923398569,106667.0
63027.089231899074,106649.0
63027.09922981245,106669.0
63027.10922772583,106669.0
63027.11922563921,106627.0
63027.12922355258,106675.0
63027.139221465965,106632.0
63027.149219379346,106614.0
63027.15921729272,106608.0
63027.1692152061,106650.0
63027.17921311948,106629.0
63027.189211032855,106669.0
63027.19920894624,106622.0
63027.20920685962,106660.0
63027.21920477299,106644.0
63027.22920268637,106702.0
63027.23920059975,106636.0
63027.24919851313,106651.0
63027.25919642651,106678.0
63027.26919433989,106641.0
63027.27919225326,106648.0
63027.289190166644,106643.0
63027.299188080025,106646.0
63027.3091859934,106669.0
63027.31918390678,106656.0
63027.32918182016,106654.0
63027.339179733535,106621.0
63027.349177646916,106636.0
63027.3591755603,106638.0
63027.36917347368,106667.0
63027.37917138705,106662.0
63027.38916930043,106635.0
63027.399167213815,106693.0
63027.40916512719,106671.0
63027.41916304057,106693.0
63027.42916095395,106648.0
63027.439158867324,106681.0
63027.449156780705,106677.0
63027.45915469409,106703.0
63027.46915260746,106647.0
63027.47915052084,106686.0
63027.48914843422,106669.0
63027.499146347596,106676.0
63027.50914426098,106689.0
63027.51914217436,106670.0
63027.52914008773,106671.0
63027.53913800111,106662.0
63027.549135914494,106662.0
63027.55913382787,106675.0
63027.56913174125,106669.0
63027.57912965463,106671.0
63027.589127568004,106672.0
63027.599125481385,106705.0
63027.609123394766,106687.0
63027.61912130814,106671.0
63027.62911922152,106691.0
63027.6391171349,106722.0
63027.649115048276,106686.0
63027.65911296166,106712.0
63027.66911087504,106716.0
63027.67910878841,106697.0
63027.68910670179,106669.0
63027.699104615174,106658.0
63027.70910252855,106685.0
63027.71910044193,106676.0
63027.72909835531,106689.0
63027.739096268684,106672.0
63027.749094182065,106724.0
63027.759092095446,106713.0
63027.76909000882,106703.0
63027.7790879222,106680.0
63027.78908583558,106665.0
63027.799083748956,106666.0
63027.80908166234,106677.0
63027.81907957572,106719.0
63027.82907748909,106692.0
63027.83907540247,106691.0
63027.849073315854,106710.0
63027.85907122923,106689.0
63027.86906914261,106711.0
63027.87906705599,106683.0
63027.889064969364,106653.0
63027.899062882745,106682.0
63027.909060796126,106633.0
63027.9190587095,106690.0
63027.92905662288,106637.0
63027.93905453626,106666.0
63027.94905244964,106625.0
63027.95905036302,106650.0
63027.9690482764,106629.0
63027.97904618978,106656.0
63027.98904410315,106659.0
63027.999042016534,106679.0
63028.009039929915,106655.0
63028.01903784329,106652.0
63028.02903575667,106685.0
63028.03903367005,106667.0
63028.049031583425,106666.0
63028.059029496806,106658.0
63028.06902741019,106662.0
63028.07902532356,106639.0
63028.08902323694,106664.0
63028.09902115032,106651.0
63028.1090190637,106634.0
63028.11901697708,106690.0
63028.12901489046,106627.0
63028.13901280383,106657.0
63028.149010717214,106669.0
63028.159008630595,106631.0
63028.16900654397,106658.0
63028.17900445735,106654.0
63028.18900237073,106665.0
63028.199000284105,106648.0
63028.208998197486,106672.0
63028.21899611087,106638.0
63028.22899402424,106649.0
63028.23899193762,106671.0
63028.248989851,106652.0
63028.25898776438,106663.0
63028.26898567776,106646.0
63028.27898359114,106645.0
63028.28898150451,106690.0
63028.298979417894,106664.0
63028.308977331275,106652.0
63028.31897524465,106659.0
63028.32897315803,106645.0
63028.33897107141,106669.0
63028.348968984785,106680.0
63028.358966898166,106670.0
63028.36896481155,106675.0
63028.37896272492,106682.0
63028.3889606383,106703.0
63028.39895855168,106672.0
63028.40895646506,106706.0
63028.41895437844,106681.0
63028.42895229182,106656.0
63028.43895020519,106697.0
63028.448948118574,106700.0
63028.458946031955,106691.0
63028.46894394533,106679.0
63028.47894185871,106622.0
63028.48893977209,106654.0
63028.498937685465,106696.0
63028.508935598846,106697.0
63028.51893351223,106693.0
63028.52893142561,106711.0
63028.53892933898,106678.0
63028.54892725236,106695.0
63028.558925165744,106706.0
63028.56892307912,106694.0
63028.5789209925,106717.0
63028.58891890588,106697.0
63028.598916819254,106717.0
63028.608914732635,106691.0
63028.618912646016,106655.0
63028.62891055939,106685.0
63028.63890847277,106683.0
63028.64890638615,106677.0
63028.658904299526,106694.0
63028.66890221291,106709.0
63028.67890012629,106700.0
63028.68889803966,106696.0
63028.69889595304,106721.0
63028.708893866424,106718.0
63028.7188917798,106683.0
63028.72888969318,106727.0
63028.73888760656,106682.0
63028.74888551993,106717.0
63028.758883433315,106706.0
63028.768881346696,106688.0
63028.77887926007,106713.0
63028.78887717345,106717.0
63028.79887508683,106731.0
63028.808873000205,106691.0
63028.81887091359,106737.0
63028.82886882697,106706.0
63028.83886674034,106673.0
63028.84886465372,106700.0
63028.858862567104,106690.0
63028.86886048048,106689.0
63028.87885839386,106710.0
63028.88885630724,106647.0
63028.89885422061,106645.0
63028.908852133995,106691.0
63028.918850047376,106703.0
63028.92884796075,106665.0
63028.93884587413,106662.0
63028.94884378751,106669.0
63028.958841700885,106686.0
63028.96883961427,106674.0
63028.97883752765,106640.0
63028.98883544102,106670.0
63028.9988333544,106652.0
63029.00883126778,106665.0
63029.01882918116,106685.0
63029.02882709454,106661.0
63029.03882500792,106656.0
63029.04882292129,106660.0
63029.058820834674,106652.0
63029.068818748055,106673.0
63029.07881666143,106632.0
63029.08881457481,106710.0
63029.09881248819,106671.0
63029.10881040157,106678.0
63029.11880831495,106681.0
63029.12880622833,106655.0
63029.13880414171,106680.0
63029.14880205508,106690.0
63029.15879996846,106661.0
63029.168797881845,106694.0
63029.17879579522,106653.0
63029.1887937086,106654.0
63029.19879162198,106677.0
63029.208789535354,106691.0
63029.218787448735,106650.0
63029.22878536212,106693.0
63029.23878327549,106681.0
63029.24878118887,106659.0
63029.25877910225,106676.0
63029.268777015626,106673.0
63029.27877492901,106681.0
63029.28877284239,106685.0
63029.29877075576,106652.0
63029.30876866914,106672.0
63029.318766582524,106678.0
63029.3287644959,106713.0
63029.33876240928,106692.0
63029.34876032266,106679.0
63029.358758236034,106687.0
63029.368756149415,106680.0
63029.378754062796,106676.0
63029.38875197617,106666.0
63029.39874988955,106689.0
63029.40874780293,106710.0
63029.418745716306,106676.0
63029.42874362969,106686.0
63029.43874154307,106697.0
63029.44873945644,106691.0
63029.45873736982,106712.0
63029.468735283204,106692.0
63029.47873319658,106690.0
63029.48873110996,106721.0
63029.49872902334,106721.0
63029.508726936714,106704.0
63029.518724850095,106694.0
63029.528722763476,106700.0
63029.53872067685,106682.0
63029.54871859023,106723.0
63029.55871650361,106701.0
63029.568714416986,106684.0
63029.57871233037,106686.0
63029.58871024375,106692.0
63029.59870815712,106702.0
63029.6087060705,106712.0
63029.618703983884,106714.0
63029.62870189726,106744.0
63029.63869981064,106716.0
63029.64869772402,106745.0
63029.658695637394,106713.0
63029.668693550775,106731.0
63029.678691464156,106694.0
63029.68868937754,106730.0
63029.69868729091,106745.0
63029.70868520429,106693.0
63029.71868311767,106714.0
63029.72868103105,106694.0
63029.73867894443,106696.0
63029.74867685781,106727.0
63029.75867477118,106702.0
63029.768672684564,106698.0
63029.778670597945,106718.0
63029.78866851132,106689.0
63029.7986664247,106654.0
63029.80866433808,106708.0
63029.818662251455,106651.0
63029.828660164836,106640.0
63029.83865807822,106693.0
63029.84865599159,106670.0
63029.85865390497,106669.0
63029.86865181835,106670.0
63029.87864973173,106667.0
63029.88864764511,106674.0
63029.89864555849,106653.0
63029.90864347186,106673.0
63029.918641385244,106662.0
63029.928639298625,106670.0
63029.938637212,106659.0
63029.94863512538,106654.0
63029.95863303876,106656.0
63029.968630952135,106670.0
63029.978628865516,106665.0
63029.9886267789,106663.0
63029.99862469227,106672.0
63030.00862260565,106677.0
63030.01862051903,106679.0
63030.02861843241,106664.0
63030.03861634579,106687.0
63030.04861425917,106666.0
63030.05861217254,106703.0
63030.068610085924,106682.0
63030.078607999305,106656.0
63030.08860591268,106672.0
63030.09860382606,106653.0
63030.10860173944,106686.0
63030.118599652815,106693.0
63030.128597566196,106677.0
63030.13859547958,106642.0
63030.14859339295,106660.0
63030.15859130633,106692.0
63030.16858921971,106678.0
63030.17858713309,106659.0
63030.18858504647,106696.0
63030.19858295985,106652.0
63030.20858087322,106663.0
63030.218578786604,106667.0
63030.228576699985,106645.0
63030.238574613366,106708.0
63030.24857252674,106683.0
63030.25857044012,106702.0
63030.2685683535,106689.0
63030.278566266876,106682.0
63030.28856418026,106689.0
63030.29856209364,106660.0
63030.30856000701,106671.0
63030.31855792039,106665.0
63030.328555833774,106689.0
63030.33855374715,106702.0
63030.34855166053,106712.0
63030.35854957391,106661.0
63030.368547487284,106696.0
63030.378545400665,106678.0
63030.388543314046,106712.0
63030.39854122742,106699.0
63030.4085391408,106703.0
63030.41853705418,106695.0
63030.428534967556,106704.0
63030.43853288094,106709.0
63030.44853079432,106681.0
63030.45852870769,106701.0
63030.46852662107,106657.0
63030.478524534454,106666.0
63030.48852244783,106702.0
63030.49852036121,106707.0
63030.50851827459,106699.0
63030.51851618796,106707.0
63030.528514101345,106680.0
63030.538512014726,106707.0
63030.5485099281,106685.0
63030.55850784148,106739.0
63030.56850575486,106711.0
63030.578503668235,106713.0
63030.58850158162,106678.0
63030.598499495,106692.0
63030.60849740837,106695.0
63030.61849532175,106722.0
63030.628493235134,106720.0
63030.63849114851,106737.0
63030.64848906189,106682.0
63030.65848697527,106716.0
63030.66848488864,106707.0
63030.678482802025,106723.0
63030.688480715406,106668.0
63030.69847862878,106689.0
63030.70847654216,106690.0
63030.71847445554,106643.0
63030.728472368915,106694.0
63030.7384702823,106671.0
63030.74846819568,106646.0
63030.75846610905,106671.0
63030.76846402243,106686.0
63030.77846193581,106674.0
63030.78845984919,106656.0
63030.79845776257,106640.0
63030.80845567595,106670.0
63030.81845358932,106668.0
63030.828451502704,106648.0
63030.838449416085,106660.0
63030.84844732947,106660.0
63030.85844524284,106660.0
63030.86844315622,106616.0
63030.8784410696,106647.0
63030.88843898298,106676.0
63030.89843689636,106656.0
63030.90843480974,106690.0
63030.91843272311,106652.0
63030.92843063649,106680.0
63030.938428549875,106662.0
63030.94842646325,106631.0
63030.95842437663,106624.0
63030.96842229001,106684.0
63030.978420203384,106668.0
63030.988418116765,106658.0
63030.99841603015,106640.0
63031.00841394352,106666.0
63031.0184118569,106661.0
63031.02840977028,106676.0
63031.038407683656,106654.0
63031.04840559704,106675.0
63031.05840351042,106667.0
63031.06840142379,106645.0
63031.07839933717,106696.0
63031.088397250554,106700.0
63031.09839516393,106676.0
63031.10839307731,106655.0
63031.11839099069,106650.0
63031.128388904064,106648.0
63031.138386817445,106693.0
63031.14838473083,106667.0
63031.1583826442,106675.0
63031.16838055758,106688.0
63031.17837847096,106670.0
63031.188376384336,106682.0
63031.19837429772,106691.0
63031.2083722111,106684.0
63031.21837012447,106705.0
63031.22836803785,106675.0
63031.238365951234,106680.0
63031.24836386461,106701.0
63031.25836177799,106665.0
63031.26835969137,106675.0
63031.278357604744,106680.0
63031.288355518125,106668.0
63031.298353431506,106656.0
63031.30835134488,106685.0
63031.31834925826,106678.0
63031.32834717164,106689.0
63031.338345085016,106693.0
63031.3483429984,106690.0
63031.35834091178,106684.0
63031.36833882515,106699.0
63031.37833673853,106675.0
63031.388334651914,106688.0
63031.398332565295,106685.0
63031.40833047867,106689.0
63031.41832839205,106688.0
63031.42832630543,106687.0
63031.438324218805,106709.0
63031.448322132186,106682.0
63031.45832004557,106717.0
63031.46831795894,106709.0
63031.47831587232,106675.0
63031.4883137857,106739.0
63031.49831169908,106696.0
63031.50830961246,106715.0
63031.51830752584,106716.0
63031.52830543921,106696.0
63031.538303352594,106751.0
63031.548301265975,106706.0
63031.55829917935,106700.0
63031.56829709273,106753.0
63031.57829500611,106706.0
63031.588292919485,106718.0
63031.598290832866,106712.0
63031.60828874625,106715.0
63031.61828665962,106709.0
63031.628284573,106701.0
63031.63828248638,106696.0
63031.64828039976,106672.0
63031.65827831314,106699.0
63031.66827622652,106666.0
63031.67827413989,106653.0
63031.688272053274,106701.0
63031.698269966655,106645.0
63031.70826788003,106664.0
63031.71826579341,106646.0
63031.72826370679,106647.0
63031.738261620165,106685.0
63031.748259533546,106663.0
63031.75825744693,106642.0
63031.7682553603,106663.0
63031.77825327368,106675.0
63031.78825118706,106652.0
63031.79824910044,106659.0
63031.80824701382,106679.0
63031.8182449272,106640.0
63031.82824284057,106651.0
63031.838240753954,106668.0
63031.848238667335,106648.0
63031.85823658071,106683.0
63031.86823449409,106653.0
63031.87823240747,106675.0
63031.888230320845,106656.0
63031.898228234226,106667.0
63031.90822614761,106691.0
63031.91822406098,106676.0
63031.92822197436,106620.0
63031.93821988774,106664.0
63031.94821780112,106683.0
63031.9582157145,106665.0
63031.96821362788,106687.0
63031.97821154125,106690.0
63031.988209454634,106670.0
63031.998207368015,106672.0
63032.008205281396,106666.0
63032.01820319477,106643.0
63032.02820110815,106690.0
63032.03819902153,106677.0
63032.048196934906,106665.0
63032.05819484829,106650.0
63032.06819276167,106727.0
63032.07819067504,106671.0
63032.08818858842,106666.0
63032.098186501804,106700.0
63032.10818441518,106673.0
63032.11818232856,106680.0
63032.12818024194,106704.0
63032.138178155314,106667.0
63032.148176068695,106719.0
63032.158173982076,106678.0
63032.16817189545,106717.0
63032.17816980883,106700.0
63032.18816772221,106705.0
63032.198165635586,106672.0
63032.20816354897,106670.0
63032.21816146235,106666.0
63032.22815937572,106680.0
63032.2381572891,106706.0
63032.248155202484,106677.0
63032.25815311586,106690.0
63032.26815102924,106734.0
63032.27814894262,106708.0
63032.28814685599,106679.0
63032.298144769375,106694.0
63032.308142682756,106678.0
63032.31814059613,106711.0
63032.32813850951,106736.0
63032.33813642289,106687.0
63032.348134336266,106698.0
63032.35813224965,106715.0
63032.36813016303,106730.0
63032.3781280764,106693.0
63032.38812598978,106743.0
63032.398123903164,106717.0
63032.40812181654,106709.0
63032.41811972992,106741.0
63032.4281176433,106719.0
63032.43811555667,106715.0
63032.448113470055,106730.0
63032.458111383436,106663.0
63032.46810929681,106685.0
63032.47810721019,106734.0
63032.48810512357,106715.0
63032.498103036945,106746.0
63032.50810095033,106744.0
63032.51809886371,106718.0
63032.52809677708,106730.0
63032.53809469046,106746.0
63032.54809260384,106724.0
63032.558090517225,106753.0
63032.5680884306,106715.0
63032.57808634398,106701.0
63032.58808425736,106700.0
63032.598082170734,106675.0
63032.608080084115,106699.0
63032.6180779975,106674.0
63032.62807591087,106670.0
63032.63807382425,106709.0
63032.64807173763,106689.0
63032.65806965101,106699.0
63032.66806756439,106678.0
63032.67806547777,106711.0
63032.68806339114,106688.0
63032.69806130452,106648.0
63032.708059217905,106712.0
63032.71805713128,106675.0
63032.72805504466,106704.0
63032.73805295804,106697.0
63032.748050871414,106679.0
63032.758048784795,106684.0
63032.76804669818,106698.0
63032.77804461155,106710.0
63032.78804252493,106676.0
63032.79804043831,106721.0
63032.808038351686,106700.0
63032.81803626507,106705.0
63032.82803417845,106686.0
63032.83803209182,106675.0
63032.8480300052,106695.0
63032.858027918584,106685.0
63032.86802583196,106653.0
63032.87802374534,106663.0
63032.88802165872,106686.0
63032.898019572094,106727.0
63032.908017485475,106696.0
63032.91801539886,106716.0
63032.92801331223,106688.0
63032.93801122561,106723.0
63032.94800913899,106693.0
63032.958007052366,106698.0
63032.96800496575,106694.0
63032.97800287913,106715.0
63032.9880007925,106693.0
63032.99799870588,106709.0
63033.007996619264,106693.0
63033.01799453264,106708.0
63033.02799244602,106700.0
63033.0379903594,106688.0
63033.047988272774,106717.0
63033.057986186155,106712.0
63033.067984099536,106697.0
63033.07798201291,106700.0
63033.08797992629,106713.0
63033.09797783967,106726.0
63033.107975753046,106712.0
63033.11797366643,106702.0
63033.12797157981,106702.0
63033.13796949319,106712.0
63033.14796740656,106732.0
63033.157965319944,106726.0
63033.167963233325,106712.0
63033.1779611467,106732.0
63033.18795906008,106732.0
63033.19795697346,106707.0
63033.207954886835,106755.0
63033.217952800216,106734.0
63033.2279507136,106706.0
63033.23794862697,106752.0
63033.24794654035,106759.0
63033.25794445373,106731.0
63033.26794236711,106716.0
63033.27794028049,106684.0
63033.28793819387,106728.0
63033.29793610724,106736.0
63033.307934020624,106719.0
63033.317931934005,106739.0
63033.32792984738,106734.0
63033.33792776076,106741.0
63033.34792567414,106758.0
63033.357923587515,106762.0
63033.367921500896,106716.0
63033.37791941428,106750.0
63033.38791732765,106790.0
63033.39791524103,106720.0
63033.40791315441,106736.0
63033.41791106779,106742.0
63033.42790898117,106729.0
63033.43790689455,106768.0
63033.44790480792,106738.0
63033.457902721304,106756.0
63033.467900634685,106764.0
63033.47789854806,106761.0
63033.48789646144,106709.0
63033.49789437482,106737.0
63033.507892288195,106720.0
63033.517890201576,106716.0
63033.52788811496,106756.0
63033.53788602833,106705.0
63033.54788394171,106682.0
63033.55788185509,106705.0
63033.56787976847,106718.0
63033.57787768185,106705.0
63033.58787559523,106692.0
63033.5978735086,106701.0
63033.607871421984,106702.0
63033.617869335365,106711.0
63033.62786724874,106724.0
63033.63786516212,106731.0
63033.6478630755,106719.0
63033.657860988875,106691.0
63033.667858902256,106720.0
63033.67785681564,106704.0
63033.68785472901,106687.0
63033.69785264239,106713.0
63033.70785055577,106688.0
63033.717848469154,106697.0
63033.72784638253,106698.0
63033.73784429591,106712.0
63033.74784220929,106675.0
63033.757840122664,106695.0
63033.767838036045,106719.0
63033.777835949426,106681.0
63033.7878338628,106741.0
63033.79783177618,106727.0
63033.80782968956,106675.0
63033.817827602936,106729.0
63033.82782551632,106711.0
63033.8378234297,106728.0
63033.84782134307,106733.0
63033.85781925645,106730.0
63033.867817169834,106707.0
63033.87781508321,106728.0
63033.88781299659,106742.0
63033.89781090997,106707.0
63033.907808823344,106720.0
63033.917806736725,106687.0
63033.927804650106,106680.0
63033.93780256348,106704.0
63033.94780047686,106716.0
63033.95779839024,106711.0
63033.967796303616,106703.0
63033.977794217,106706.0
63033.98779213038,106727.0
63033.99779004375,106717.0
63034.00778795713,106737.0
63034.017785870514,106706.0
63034.02778378389,106727.0
63034.03778169727,106744.0
63034.04777961065,106710.0
63034.05777752402,106734.0
63034.067775437405,106720.0
63034.077773350786,106701.0
63034.08777126416,106745.0
63034.09776917754,106704.0
63034.10776709092,106726.0
63034.117765004296,106697.0
63034.12776291768,106709.0
63034.13776083106,106705.0
63034.14775874443,106738.0
63034.15775665781,106729.0
63034.167754571194,106739.0
63034.17775248457,106769.0
63034.18775039795,106724.0
63034.19774831133,106735.0
63034.2077462247,106768.0
63034.217744138085,106726.0
63034.227742051466,106729.0
63034.23773996484,106763.0
63034.24773787822,106746.0
63034.2577357916,106694.0
63034.267733704975,106749.0
63034.27773161836,106716.0
63034.28772953174,106716.0
63034.29772744512,106720.0
63034.30772535849,106753.0
63034.31772327187,106781.0
63034.327721185255,106752.0
63034.33771909863,106747.0
63034.34771701201,106734.0
63034.35771492539,106748.0
63034.367712838764,106754.0
63034.377710752146,106745.0
63034.38770866553,106739.0
63034.3977065789,106730.0
63034.40770449228,106759.0
63034.41770240566,106725.0
63034.42770031904,106739.0
63034.43769823242,106721.0
63034.4476961458,106682.0
63034.45769405917,106685.0
63034.46769197255,106688.0
63034.477689885935,106711.0
63034.48768779931,106697.0
63034.49768571269,106712.0
63034.50768362607,106704.0
63034.517681539444,106709.0
63034.527679452825,106721.0
63034.53767736621,106686.0
63034.54767527958,106726.0
63034.55767319296,106710.0
63034.56767110634,106732.0
63034.577669019716,106733.0
63034.5876669331,106693.0
63034.59766484648,106695.0
63034.60766275985,106718.0
63034.61766067323,106684.0
63034.627658586614,106675.0
63034.63765649999,106709.0
63034.64765441337,106701.0
63034.65765232675,106707.0
63034.667650240124,106736.0
63034.677648153505,106698.0
63034.68764606689,106685.0
63034.69764398026,106728.0
63034.70764189364,106682.0
63034.71763980702,106722.0
63034.727637720396,106713.0
63034.73763563378,106689.0
63034.74763354716,106725.0
63034.75763146053,106718.0
63034.76762937391,106729.0
63034.777627287294,106733.0
63034.78762520067,106698.0
63034.79762311405,106716.0
63034.80762102743,106700.0
63034.817618940804,106731.0
63034.827616854185,106703.0
63034.837614767566,106718.0
63034.84761268094,106690.0
63034.85761059432,106696.0
63034.8676085077,106700.0
63034.87760642108,106714.0
63034.88760433446,106722.0
63034.89760224784,106735.0
63034.90760016122,106719.0
63034.91759807459,106724.0
63034.927595987974,106726.0
63034.937593901355,106734.0
63034.94759181473,106718.0
63034.95758972811,106726.0
63034.96758764149,106713.0
63034.977585554865,106705.0
63034.987583468246,106755.0
63034.99758138163,106718.0
63035.007579295,106701.0
63035.01757720838,106746.0
63035.02757512176,106706.0
63035.03757303514,106731.0
63035.04757094852,106707.0
63035.0575688619,106704.0
63035.06756677527,106759.0
63035.077564688654,106731.0
63035.087562602035,106709.0
63035.09756051541,106741.0
63035.10755842879,106718.0
63035.11755634217,106712.0
63035.127554255545,106710.0
63035.137552168926,106752.0
63035.14755008231,106737.0
63035.15754799568,106762.0
63035.16754590906,106740.0
63035.17754382244,106731.0
63035.18754173582,106768.0
63035.1975396492,106717.0
63035.20753756258,106747.0
63035.21753547595,106720.0
63035.227533389334,106765.0
63035.237531302715,106734.0
63035.24752921609,106763.0
63035.25752712947,106722.0
63035.26752504285,106746.0
63035.277522956225,106759.0
63035.287520869606,106723.0
63035.29751878299,106700.0
63035.30751669636,106732.0
63035.31751460974,106702.0
63035.32751252312,106705.0
63035.3375104365,106712.0
63035.34750834988,106691.0
63035.35750626326,106706.0
63035.36750417663,106696.0
63035.377502090014,106671.0
63035.387500003395,106655.0
63035.39749791677,106711.0
63035.40749583015,106686.0
63035.41749374353,106678.0
63035.427491656905,106695.0
63035.437489570286,106665.0
63035.44748748367,106676.0
63035.45748539705,106704.0
63035.46748331042,106662.0
63035.4774812238,106664.0
63035.487479137184,106686.0
63035.49747705056,106680.0
63035.50747496394,106678.0
63035.51747287732,106723.0
63035.527470790694,106680.0
63035.537468704075,106652.0
63035.547466617456,106712.0
63035.55746453083,106648.0
63035.56746244421,106698.0
63035.57746035759,106742.0
63035.587458270966,106673.0
63035.59745618435,106715.0
63035.60745409773,106688.0
63035.6174520111,106652.0
63035.62744992448,106690.0
63035.637447837864,106694.0
63035.64744575124,106659.0
63035.65744366462,106702.0
63035.667441578,106689.0
63035.677439491374,106693.0
63035.687437404755,106685.0
63035.697435318136,106706.0
63035.70743323151,106653.0
63035.71743114489,106706.0
63035.72742905827,106688.0
63035.737426971646,106679.0
63035.74742488503,106701.0
63035.75742279841,106690.0
63035.76742071178,106688.0
63035.77741862516,106709.0
63035.787416538544,106680.0
63035.79741445192,106678.0
63035.8074123653,106738.0
63035.81741027868,106694.0
63035.82740819205,106690.0
63035.837406105435,106728.0
63035.847404018816,106676.0
63035.85740193219,106715.0
63035.86739984557,106714.0
63035.87739775895,106677.0
63035.887395672326,106698.0
63035.89739358571,106707.0
63035.90739149909,106702.0
63035.91738941246,106690.0
63035.92738732584,106721.0
63035.937385239224,106697.0
63035.9473831526,106693.0
63035.95738106598,106696.0
63035.96737897936,106692.0
63035.97737689273,106717.0
63035.987374806115,106688.0
63035.997372719496,106698.0
63036.00737063287,106732.0
63036.01736854625,106713.0
63036.02736645963,106679.0
63036.03736437301,106712.0
63036.04736228639,106663.0
63036.05736019977,106713.0
63036.06735811315,106732.0
63036.07735602652,106714.0
63036.0873539399,106722.0
63036.097351853285,106728.0
63036.10734976666,106743.0
63036.11734768004,106710.0
63036.12734559342,106736.0
63036.137343506794,106710.0
63036.147341420176,106708.0
63036.15733933356,106731.0
63036.16733724693,106742.0
63036.17733516031,106704.0
63036.18733307369,106693.0
63036.19733098707,106680.0
63036.20732890045,106669.0
63036.21732681383,106702.0
63036.2273247272,106708.0
63036.23732264058,106693.0
63036.247320553965,106709.0
63036.25731846734,106680.0
63036.26731638072,106688.0
63036.2773142941,106646.0
63036.287312207474,106674.0
63036.297310120855,106667.0
63036.30730803424,106707.0
63036.31730594761,106640.0
63036.32730386099,106679.0
63036.33730177437,106668.0
63036.347299687746,106654.0
63036.35729760113,106650.0
63036.36729551451,106644.0
63036.37729342788,106663.0
63036.38729134126,106687.0
63036.397289254644,106683.0
63036.40728716802,106673.0
63036.4172850814,106674.0
63036.42728299478,106668.0
63036.437280908154,106650.0
63036.447278821535,106635.0
63036.45727673492,106658.0
63036.46727464829,106687.0
63036.47727256167,106689.0
63036.48727047505,106647.0
63036.497268388426,106664.0
63036.50726630181,106687.0
63036.51726421519,106644.0
63036.52726212856,106649.0
63036.53726004194,106704.0
63036.547257955324,106680.0
63036.5572558687,106682.0
63036.56725378208,106657.0
63036.57725169546,106657.0
63036.587249608834,106671.0
63036.597247522215,106658.0
63036.607245435596,106673.0
63036.61724334898,106660.0
63036.62724126235,106682.0
63036.63723917573,106681.0
63036.64723708911,106702.0
63036.65723500249,106670.0
63036.66723291587,106696.0
63036.67723082925,106696.0
63036.68722874262,106702.0
63036.697226656004,106713.0
63036.707224569385,106710.0
63036.71722248276,106667.0
63036.72722039614,106706.0
63036.73721830952,106726.0
63036.747216222895,106692.0
63036.757214136276,106702.0
63036.76721204966,106706.0
63036.77720996303,106664.0
63036.78720787641,106706.0
63036.79720578979,106725.0
63036.80720370317,106728.0
63036.81720161655,106710.0
63036.82719952993,106702.0
63036.8371974433,106692.0
63036.847195356684,106704.0
63036.857193270065,106690.0
63036.86719118344,106707.0
63036.87718909682,106687.0
63036.8871870102,106743.0
63036.897184923575,106688.0
63036.907182836956,106702.0
63036.91718075034,106746.0
63036.92717866371,106711.0
63036.93717657709,106701.0
63036.94717449047,106716.0
63036.95717240385,106703.0
63036.96717031723,106706.0
63036.97716823061,106709.0
63036.98716614398,106705.0
63036.997164057364,106723.0
63037.007161970745,106690.0
63037.01715988412,106733.0
63037.0271577975,106724.0
63037.03715571088,106747.0
63037.047153624255,106701.0
63037.057151537636,106747.0
63037.06714945102,106729.0
63037.07714736439,106734.0
63037.08714527777,106721.0
63037.09714319115,106743.0
63037.10714110453,106732.0
63037.11713901791,106699.0
63037.12713693129,106712.0
63037.13713484466,106680.0
63037.147132758044,106735.0
63037.157130671425,106706.0
63037.1671285848,106686.0
63037.17712649818,106697.0
63037.18712441156,106662.0
63037.19712232494,106683.0
63037.207120238316,106672.0
63037.2171181517,106669.0
63037.22711606508,106694.0
63037.23711397845,106701.0
63037.24711189183,106662.0
63037.257109805214,106667.0
63037.26710771859,106661.0
63037.27710563197,106696.0
63037.28710354535,106678.0
63037.297101458724,106720.0
63037.307099372105,106708.0
63037.317097285486,106683.0
63037.32709519886,106682.0
63037.33709311224,106674.0
63037.34709102562,106685.0
63037.357088938996,106685.0
63037.36708685238,106689.0
63037.37708476576,106660.0
63037.38708267913,106701.0
63037.39708059251,106689.0
63037.407078505894,106690.0
63037.41707641927,106670.0
63037.42707433265,106690.0
63037.43707224603,106696.0
63037.447070159404,106710.0
63037.457068072785,106668.0
63037.467065986166,106705.0
63037.47706389954,106702.0
63037.48706181292,106681.0
63037.4970597263,106704.0
63037.507057639676,106709.0
63037.51705555306,106686.0
63037.52705346644,106688.0
63037.53705137981,106671.0
63037.54704929319,106660.0
63037.557047206574,106695.0
63037.56704511995,106701.0
63037.57704303333,106695.0
63037.58704094671,106722.0
63037.59703886008,106713.0
63037.607036773465,106687.0
63037.617034686846,106704.0
63037.62703260022,106705.0
63037.6370305136,106729.0
63037.64702842698,106729.0
63037.657026340356,106714.0
63037.66702425374,106730.0
63037.67702216712,106726.0
63037.68702008049,106730.0
63037.69701799387,106709.0
63037.707015907254,106712.0
63037.71701382063,106717.0
63037.72701173401,106679.0
63037.73700964739,106718.0
63037.74700756076,106694.0
63037.757005474145,106719.0
63037.767003387526,106697.0
63037.77700130091,106703.0
63037.78699921428,106724.0
63037.79699712766,106719.0
63037.80699504104,106728.0
63037.81699295442,106775.0
63037.8269908678,106748.0
63037.83698878118,106709.0
63037.84698669455,106737.0
63037.85698460793,106724.0
63037.866982521315,106735.0
63037.87698043469,106761.0
63037.88697834807,106742.0
63037.89697626145,106724.0
63037.906974174824,106699.0
63037.916972088206,106715.0
63037.92697000159,106737.0
63037.93696791496,106723.0
63037.94696582834,106732.0
63037.95696374172,106748.0
63037.9669616551,106748.0
63037.97695956848,106717.0
63037.98695748186,106775.0
63037.99695539523,106742.0
63038.00695330861,106749.0
63038.016951221995,106770.0
63038.02694913537,106757.0
63038.03694704875,106746.0
63038.04694496213,106747.0
63038.056942875504,106729.0
63038.066940788885,106718.0
63038.07693870227,106760.0
63038.08693661564,106740.0
63038.09693452902,106727.0
63038.1069324424,106753.0
63038.116930355776,106711.0
63038.12692826916,106717.0
63038.13692618254,106738.0
63038.14692409591,106696.0
63038.15692200929,106730.0
63038.166919922674,106720.0
63038.17691783605,106689.0
63038.18691574943,106721.0
63038.19691366281,106736.0
63038.206911576184,106710.0
63038.216909489565,106727.0
63038.22690740295,106700.0
63038.23690531632,106712.0
63038.2469032297,106725.0
63038.25690114308,106729.0
63038.266899056456,106714.0
63038.27689696984,106706.0
63038.28689488322,106710.0
63038.29689279659,106707.0
63038.30689070997,106717.0
63038.316888623354,106711.0
63038.32688653673,106724.0
63038.33688445011,106737.0
63038.34688236349,106710.0
63038.35688027687,106725.0
63038.366878190245,106722.0
63038.376876103626,106704.0
63038.38687401701,106704.0
63038.39687193038,106717.0
63038.40686984376,106715.0
63038.41686775714,106699.0
63038.42686567052,106710.0
63038.4368635839,106702.0
63038.44686149728,106711.0
63038.45685941065,106700.0
63038.466857324034,106688.0
63038.476855237415,106713.0
63038.48685315079,106696.0
63038.49685106417,106734.0
63038.50684897755,106748.0
63038.516846890925,106720.0
63038.526844804306,106736.0
63038.53684271769,106721.0
63038.54684063106,106733.0
63038.55683854444,106720.0
63038.56683645782,106728.0
63038.5768343712,106725.0
63038.58683228458,106713.0
63038.59683019796,106739.0
63038.60682811133,106736.0
63038.616826024714,106740.0
63038.626823938095,106739.0
63038.63682185147,106728.0
63038.64681976485,106747.0
63038.65681767823,106739.0
63038.666815591605,106748.0
63038.676813504986,106766.0
63038.68681141837,106724.0
63038.69680933174,106723.0
63038.70680724512,106742.0
63038.7168051585,106719.0
63038.72680307188,106749.0
63038.73680098526,106748.0
63038.74679889864,106723.0
63038.75679681201,106709.0
63038.766794725394,106757.0
63038.776792638775,106746.0
63038.78679055215,106728.0
63038.79678846553,106734.0
63038.80678637891,106719.0
63038.816784292285,106744.0
63038.826782205666,106769.0
63038.83678011905,106770.0
63038.84677803242,106769.0
63038.8567759458,106752.0
63038.86677385918,106739.0
63038.87677177256,106754.0
63038.88676968594,106761.0
63038.89676759932,106762.0
63038.90676551269,106719.0
63038.916763426074,106754.0
63038.926761339455,106724.0
63038.936759252836,106745.0
63038.94675716621,106734.0
63038.95675507959,106716.0
63038.96675299297,106733.0
63038.976750906346,106737.0
63038.98674881973,106694.0
63038.99674673311,106711.0
63039.00674464648,106712.0
63039.01674255986,106699.0
63039.026740473244,106713.0
63039.03673838662,106684.0
63039.0467363,106712.0
63039.05673421338,106709.0
63039.066732126754,106721.0
63039.076730040135,106671.0
63039.086727953516,106736.0
63039.09672586689,106702.0
63039.10672378027,106707.0
63039.11672169365,106736.0
63039.126719607026,106715.0
63039.13671752041,106720.0
63039.14671543379,106699.0
63039.15671334716,106694.0
63039.16671126054,106707.0
63039.176709173924,106696.0
63039.1867070873,106722.0
63039.19670500068,106717.0
63039.20670291406,106724.0
63039.216700827434,106733.0
63039.226698740815,106736.0
63039.236696654196,106714.0
63039.24669456757,106733.0
63039.25669248095,106728.0
63039.26669039433,106717.0
63039.276688307706,106681.0
63039.28668622109,106735.0
63039.29668413447,106694.0
63039.30668204784,106717.0
63039.31667996122,106706.0
63039.326677874604,106707.0
63039.33667578798,106727.0
63039.34667370136,106717.0
63039.35667161474,106735.0
63039.36666952811,106720.0
63039.376667441495,106732.0
63039.386665354876,106715.0
63039.39666326825,106723.0
63039.40666118163,106747.0
63039.41665909501,106696.0
63039.426657008386,106723.0
63039.43665492177,106713.0
63039.44665283515,106722.0
63039.45665074852,106742.0
63039.4666486619,106735.0
63039.476646575284,106714.0
63039.48664448866,106727.0
63039.49664240204,106679.0
63039.50664031542,106720.0
63039.5166382288,106701.0
63039.526636142175,106700.0
63039.536634055556,106736.0
63039.54663196894,106728.0
63039.55662988231,106718.0
63039.56662779569,106725.0
63039.57662570907,106749.0
63039.58662362245,106735.0
63039.59662153583,106717.0
63039.60661944921,106733.0
63039.61661736258,106716.0
63039.62661527596,106748.0
63039.636613189345,106750.0
63039.64661110272,106734.0
63039.6566090161,106763.0
63039.66660692948,106748.0
63039.676604842854,106726.0
63039.686602756236,106708.0
63039.69660066962,106740.0
63039.70659858299,106744.0
63039.71659649637,106730.0
63039.72659440975,106717.0
63039.73659232313,106733.0
63039.74659023651,106734.0
63039.75658814989,106722.0
63039.76658606326,106723.0
63039.77658397664,106758.0
63039.786581890025,106753.0
63039.7965798034,106746.0
63039.80657771678,106766.0
63039.81657563016,106740.0
63039.826573543534,106748.0
63039.836571456915,106717.0
63039.8465693703,106731.0
63039.85656728367,106739.0
63039.86656519705,106733.0
63039.87656311043,106712.0
63039.886561023806,106724.0
63039.89655893719,106700.0
63039.90655685057,106674.0
63039.91655476394,106690.0
63039.92655267732,106687.0
63039.936550590704,106736.0
63039.94654850408,106733.0
63039.95654641746,106692.0
63039.96654433084,106660.0
63039.976542244214,106704.0
63039.986540157595,106670.0
63039.99653807098,106689.0
63040.00653598435,106679.0
63040.01653389773,106676.0
63040.02653181111,106662.0
63040.036529724486,106677.0
63040.04652763787,106712.0
63040.05652555125,106695.0
63040.06652346462,106692.0
63040.076521378,106694.0
63040.086519291384,106659.0
63040.096517204765,106728.0
63040.10651511814,106731.0
63040.11651303152,106708.0
63040.1265109449,106700.0
63040.136508858275,106680.0
63040.146506771656,106677.0
63040.15650468504,106666.0
63040.16650259841,106672.0
63040.17650051179,106671.0
63040.18649842517,106690.0
63040.19649633855,106692.0
63040.20649425193,106656.0
63040.21649216531,106714.0
63040.22649007868,106709.0
63040.236487992064,106691.0
63040.246485905445,106695.0
63040.25648381882,106706.0
63040.2664817322,106684.0
63040.27647964558,106706.0
63040.286477558955,106719.0
63040.296475472336,106720.0
63040.30647338572,106726.0
63040.31647129909,106702.0
63040.32646921247,106711.0
63040.33646712585,106707.0
63040.34646503923,106691.0
63040.35646295261,106707.0
63040.36646086599,106707.0
63040.37645877936,106698.0
63040.386456692744,106708.0
63040.396454606125,106716.0
63040.4064525195,106722.0
63040.41645043288,106704.0
63040.42644834626,106696.0
63040.436446259635,106699.0
63040.446444173016,106718.0
63040.4564420864,106732.0
63040.46643999977,106697.0
63040.47643791315,106712.0
63040.48643582653,106703.0
63040.49643373991,106708.0
63040.50643165329,106730.0
63040.51642956667,106698.0
63040.52642748004,106708.0
63040.536425393424,106687.0
63040.546423306805,106711.0
63040.55642122018,106737.0
63040.56641913356,106723.0
63040.57641704694,106696.0
63040.586414960315,106721.0
63040.596412873696,106721.0
63040.60641078708,106718.0
63040.61640870045,106687.0
63040.62640661383,106736.0
63040.63640452721,106714.0
63040.64640244059,106735.0
63040.65640035397,106727.0
63040.66639826735,106722.0
63040.67639618073,106751.0
63040.686394094104,106711.0
63040.696392007485,106726.0
63040.706389920866,106739.0
63040.71638783424,106735.0
63040.72638574762,106727.0
63040.736383661,106716.0
63040.746381574376,106699.0
63040.75637948776,106659.0
63040.76637740114,106694.0
63040.77637531451,106689.0
63040.78637322789,106648.0
63040.796371141274,106711.0
63040.80636905465,106692.0
63040.81636696803,106694.0
63040.82636488141,106664.0
63040.836362794784,106649.0
63040.846360708165,106672.0
63040.856358621546,106698.0
63040.86635653492,106677.0
63040.8763544483,106693.0
63040.88635236168,106670.0
63040.896350275056,106654.0
63040.90634818844,106693.0
63040.91634610182,106653.0
63040.92634401519,106671.0
63040.93634192857,106670.0
63040.946339841954,106647.0
63040.95633775533,106656.0
63040.96633566871,106660.0
63040.97633358209,106696.0
63040.986331495464,106686.0
63040.996329408845,106682.0
63041.006327322226,106678.0
63041.0163252356,106668.0
63041.02632314898,106697.0
63041.03632106236,106703.0
63041.046318975736,106693.0
63041.05631688912,106712.0
63041.0663148025,106704.0
63041.07631271587,106703.0
63041.08631062925,106656.0
63041.096308542634,106644.0
63041.10630645601,106681.0
63041.11630436939,106660.0
63041.12630228277,106679.0
63041.13630019614,106678.0
63041.146298109525,106665.0
63041.156296022906,106672.0
63041.16629393628,106680.0
63041.17629184966,106667.0
63041.18628976304,106671.0
63041.196287676416,106706.0
63041.2062855898,106675.0
63041.21628350318,106701.0
63041.22628141656,106697.0
63041.23627932993,106680.0
63041.246277243314,106719.0
63041.256275156695,106684.0
63041.26627307007,106690.0
63041.27627098345,106715.0
63041.28626889683,106669.0
63041.296266810205,106699.0
63041.306264723586,106659.0
63041.31626263697,106680.0
63041.32626055034,106708.0
63041.33625846372,106700.0
63041.3462563771,106643.0
63041.35625429048,106709.0
63041.36625220386,106717.0
63041.37625011724,106706.0
63041.38624803061,106687.0
63041.39624594399,106729.0
63041.406243857375,106650.0
63041.41624177075,106707.0
63041.42623968413,106730.0
63041.43623759751,106675.0
63041.446235510884,106721.0
63041.456233424266,106710.0
63041.46623133765,106723.0
63041.47622925102,106687.0
63041.4862271644,106673.0
63041.49622507778,106697.0
63041.50622299116,106711.0
63041.51622090454,106732.0
63041.52621881792,106706.0
63041.53621673129,106712.0
63041.54621464467,106737.0
63041.556212558055,106709.0
63041.56621047143,106690.0
63041.57620838481,106703.0
63041.58620629819,106696.0
63041.596204211564,106729.0
63041.606202124945,106709.0
63041.61620003833,106705.0
63041.6261979517,106722.0
63041.63619586508,106726.0
63041.64619377846,106687.0
63041.656191691836,106729.0
63041.66618960522,106746.0
63041.6761875186,106733.0
63041.68618543197,106700.0
63041.69618334535,106710.0
63041.706181258734,106709.0
63041.71617917211,106703.0
63041.72617708549,106674.0
63041.73617499887,106688.0
63041.746172912244,106680.0
63041.756170825625,106629.0
63041.76616873901,106690.0
63041.77616665238,106674.0
63041.78616456576,106657.0
63041.79616247914,106699.0
63041.806160392516,106652.0
63041.8161583059,106669.0
63041.82615621928,106663.0
63041.83615413266,106649.0
63041.84615204603,106673.0
63041.856149959414,106664.0
63041.866147872795,106654.0
63041.87614578617,106690.0
63041.88614369955,106664.0
63041.89614161293,106667.0
63041.906139526305,106672.0
63041.916137439686,106688.0
63041.92613535307,106642.0
63041.93613326644,106686.0
63041.94613117982,106675.0
63041.9561290932,106656.0
63041.96612700658,106707.0
63041.97612491996,106655.0
63041.98612283334,106679.0
63041.99612074671,106689.0
63042.006118660094,106652.0
63042.016116573475,106692.0
63042.02611448685,106666.0
63042.03611240023,106649.0
63042.04611031361,106669.0
63042.056108226985,106681.0
63042.066106140366,106674.0
63042.07610405375,106628.0
63042.08610196712,106663.0
63042.0960998805,106660.0
63042.10609779388,106688.0
63042.11609570726,106705.0
63042.12609362064,106667.0
63042.13609153402,106713.0
63042.14608944739,106658.0
63042.156087360774,106647.0
63042.166085274155,106658.0
63042.17608318753,106678.0
63042.18608110091,106696.0
63042.19607901429,106711.0
63042.206076927665,106683.0
63042.216074841046,106689.0
63042.22607275443,106694.0
63042.2360706678,106705.0
63042.24606858118,106687.0
63042.25606649456,106688.0
63042.26606440794,106692.0
63042.27606232132,106703.0
63042.2860602347,106655.0
63042.29605814807,106672.0
63042.306056061454,106685.0
63042.316053974835,106707.0
63042.32605188821,106672.0
63042.33604980159,106684.0
63042.34604771497,106704.0
63042.356045628345,106746.0
63042.366043541726,106724.0
63042.37604145511,106704.0
63042.38603936849,106715.0
63042.39603728186,106726.0
63042.40603519524,106681.0
63042.416033108624,106713.0
63042.426031022,106717.0
63042.43602893538,106728.0
63042.44602684876,106697.0
63042.456024762134,106746.0
63042.466022675515,106730.0
63042.476020588896,106706.0
63042.48601850227,106754.0
63042.49601641565,106703.0
63042.50601432903,106713.0
63042.516012242406,106753.0
63042.52601015579,106706.0
63042.53600806917,106723.0
63042.54600598254,106746.0
63042.55600389592,106703.0
63042.566001809304,106727.0
63042.57599972268,106751.0
63042.58599763606,106740.0
63042.59599554944,106746.0
63042.605993462814,106709.0
63042.615991376195,106693.0
63042.625989289576,106745.0
63042.63598720295,106717.0
63042.64598511633,106700.0
63042.65598302971,106742.0
63042.665980943086,106697.0
63042.67597885647,106672.0
63042.68597676985,106693.0
63042.69597468322,106688.0
63042.7059725966,106706.0
63042.715970509984,106683.0
63042.72596842336,106687.0
63042.73596633674,106680.0
63042.74596425012,106688.0
63042.755962163494,106686.0
63042.765960076875,106672.0
63042.775957990256,106700.0
63042.78595590363,106663.0
63042.79595381701,106684.0
63042.80595173039,106695.0
63042.815949643766,106696.0
63042.82594755715,106669.0
63042.83594547053,106685.0
63042.8459433839,106677.0
63042.85594129728,106671.0
63042.865939210664,106686.0
63042.87593712404,106683.0
63042.88593503742,106696.0
63042.8959329508,106655.0
63042.90593086417,106705.0
63042.915928777555,106677.0
63042.925926690936,106653.0
63042.93592460431,106687.0
63042.94592251769,106684.0
63042.95592043107,106683.0
63042.965918344446,106675.0
63042.97591625783,106704.0
63042.98591417121,106652.0
63042.99591208459,106695.0
63043.00590999796,106683.0
63043.015907911344,106698.0
63043.025905824725,106665.0
63043.0359037381,106693.0
63043.04590165148,106694.0
63043.05589956486,106702.0
63043.065897478235,106695.0
63043.075895391616,106679.0
63043.085893305,106705.0
63043.09589121837,106678.0
63043.10588913175,106675.0
63043.11588704513,106709.0
63043.12588495851,106707.0
63043.13588287189,106691.0
63043.14588078527,106729.0
63043.15587869864,106705.0
63043.16587661202,106685.0
63043.175874525405,106712.0
63043.18587243878,106685.0
63043.19587035216,106713.0
63043.20586826554,106758.0
63043.215866178914,106728.0
63043.225864092296,106721.0
63043.23586200568,106705.0
63043.24585991905,106701.0
63043.25585783243,106737.0
63043.26585574581,106722.0
63043.27585365919,106713.0
63043.28585157257,106716.0
63043.29584948595,106744.0
63043.30584739932,106696.0
63043.3158453127,106701.0
63043.325843226085,106735.0
63043.33584113946,106705.0
63043.34583905284,106744.0
63043.35583696622,106692.0
63043.365834879594,106728.0
63043.375832792975,106696.0
63043.38583070636,106752.0
63043.39582861973,106720.0
63043.40582653311,106729.0
63043.41582444649,106709.0
63043.425822359866,106718.0
63043.43582027325,106706.0
63043.44581818663,106730.0
63043.4558161,106741.0
63043.46581401338,106741.0
63043.475811926764,106720.0
63043.48580984014,106721.0
63043.49580775352,106740.0
63043.5058056669,106730.0
63043.515803580274,106695.0
63043.525801493655,106723.0
63043.53579940704,106738.0
63043.54579732042,106709.0
63043.55579523379,106727.0
63043.56579314717,106695.0
63043.57579106055,106672.0
63043.58578897393,106696.0
63043.59578688731,106689.0
63043.60578480069,106665.0
63043.61578271406,106677.0
63043.625780627444,106711.0
63043.635778540825,106702.0
63043.6457764542,106683.0
63043.65577436758,106662.0
63043.66577228096,106681.0
63043.675770194335,106714.0
63043.685768107716,106689.0
63043.6957660211,106659.0
63043.70576393447,106685.0
63043.71576184785,106667.0
63043.72575976123,106701.0
63043.73575767461,106697.0
63043.74575558799,106668.0
63043.75575350137,106686.0
63043.76575141474,106689.0
63043.775749328124,106677.0
63043.785747241505,106673.0
63043.79574515488,106674.0
63043.80574306826,106701.0
63043.81574098164,106640.0
63043.825738895015,106663.0
63043.835736808396,106703.0
63043.84573472178,106685.0
63043.85573263515,106714.0
63043.86573054853,106668.0
63043.87572846191,106681.0
63043.88572637529,106683.0
63043.89572428867,106692.0
63043.90572220205,106661.0
63043.91572011542,106715.0
63043.925718028804,106683.0
63043.935715942185,106694.0
63043.94571385556,106673.0
63043.95571176894,106651.0
63043.96570968232,106719.0
63043.975707595695,106697.0
63043.985705509076,106676.0
63043.99570342246,106720.0
63044.00570133583,106720.0
63044.01569924921,106700.0
63044.02569716259,106683.0
63044.03569507597,106698.0
63044.04569298935,106743.0
63044.05569090273,106708.0
63044.0656888161,106706.0
63044.075686729484,106718.0
63044.085684642865,106694.0
63044.09568255624,106712.0
63044.10568046962,106704.0
63044.115678383,106678.0
63044.12567629638,106691.0
63044.135674209756,106691.0
63044.14567212314,106707.0
63044.15567003652,106696.0
63044.16566794989,106730.0
63044.17566586327,106708.0
63044.185663776654,106703.0
63044.19566169003,106731.0
63044.20565960341,106727.0
63044.21565751679,106711.0
63044.225655430164,106747.0
63044.235653343545,106718.0
63044.245651256926,106746.0
63044.2556491703,106717.0
63044.26564708368,106740.0
63044.27564499706,106730.0
63044.285642910436,106693.0
63044.29564082382,106727.0
63044.3056387372,106708.0
63044.31563665057,106699.0
63044.32563456395,106708.0
63044.335632477334,106718.0
63044.34563039071,106736.0
63044.35562830409,106702.0
63044.36562621747,106732.0
63044.375624130844,106731.0
63044.385622044225,106704.0
63044.395619957606,106742.0
63044.40561787098,106658.0
63044.41561578436,106710.0
63044.42561369774,106735.0
63044.435611611116,106718.0
63044.4456095245,106701.0
63044.45560743788,106688.0
63044.46560535125,106677.0
63044.47560326463,106657.0
63044.485601178014,106649.0
63044.49559909139,106674.0
63044.50559700477,106660.0
63044.51559491815,106648.0
63044.525592831524,106688.0
63044.535590744905,106683.0
63044.545588658286,106678.0
63044.55558657166,106641.0
63044.56558448504,106684.0
63044.57558239842,106673.0
63044.585580311796,106675.0
63044.59557822518,106679.0
63044.60557613856,106647.0
63044.61557405193,106664.0
63044.62557196531,106654.0
63044.635569878694,106659.0
63044.64556779207,106657.0
63044.65556570545,106673.0
63044.66556361883,106661.0
63044.6755615322,106664.0
63044.685559445585,106686.0
63044.695557358966,106667.0
63044.70555527235,106676.0
63044.71555318572,106645.0
63044.7255510991,106658.0
63044.73554901248,106658.0
63044.74554692586,106675.0
63044.75554483924,106668.0
63044.76554275262,106692.0
63044.77554066599,106668.0
63044.785538579374,106682.0
63044.795536492755,106676.0
63044.80553440613,106636.0
63044.81553231951,106652.0
63044.82553023289,106670.0
63044.835528146265,106638.0
63044.845526059646,106697.0
63044.85552397303,106690.0
63044.8655218864,106679.0
63044.87551979978,106671.0
63044.88551771316,106713.0
63044.89551562654,106654.0
63044.90551353992,106682.0
63044.9155114533,106717.0
63044.92550936667,106677.0
63044.93550728005,106692.0
63044.945505193435,106679.0
63044.95550310681,106673.0
63044.96550102019,106724.0
63044.97549893357,106675.0
63044.985496846944,106694.0
63044.995494760326,106713.0
63045.00549267371,106654.0
63045.01549058708,106682.0
63045.02548850046,106717.0
63045.03548641384,106677.0
63045.04548432722,106692.0
63045.0554822406,106679.0
63045.06548015398,106673.0
63045.07547806735,106724.0
63045.08547598073,106675.0
63045.095473894115,106694.0
63045.10547180749,106663.0
63045.11546972087,106712.0
63045.12546763425,106680.0
63045.135465547624,106697.0
63045.145463461005,106703.0
63045.15546137439,106688.0
63045.16545928776,106706.0
63045.17545720114,106675.0
63045.18545511452,106692.0
63045.195453027896,106725.0
63045.20545094128,106692.0
63045.21544885466,106714.0
63045.22544676803,106704.0
63045.23544468141,106686.0
63045.245442594794,106719.0
63045.25544050817,106723.0
63045.26543842155,106699.0
63045.27543633493,106679.0
63045.28543424831,106723.0
63045.295432161685,106726.0
63045.30543007507,106711.0
63045.31542798845,106723.0
63045.32542590182,106712.0
63045.3354238152,106721.0
63045.34542172858,106738.0
63045.35541964196,106727.0
63045.36541755534,106739.0
63045.37541546872,106728.0
63045.38541338209,106722.0
63045.395411295474,106755.0
63045.405409208855,106724.0
63045.41540712223,106712.0
63045.42540503561,106713.0
63045.43540294899,106654.0
63045.445400862365,106682.0
63045.455398775746,106735.0
63045.46539668913,106709.0
63045.4753946025,106716.0
63045.48539251588,106721.0
63045.49539042926,106677.0
63045.50538834264,106673.0
63045.51538625602,106703.0
63045.5253841694,106660.0
63045.53538208277,106701.0
63045.545379996154,106682.0
63045.555377909535,106634.0
63045.56537582291,106668.0
63045.57537373629,106654.0
63045.58537164967,106669.0
63045.595369563045,106674.0
63045.605367476426,106699.0
63045.61536538981,106638.0
63045.62536330318,106675.0
63045.63536121656,106683.0
63045.64535912994,106670.0
63045.65535704332,106658.0
63045.6653549567,106692.0
63045.67535287008,106665.0
63045.68535078345,106699.0
63045.695348696834,106666.0
63045.705346610215,106671.0
63045.71534452359,106679.0
63045.72534243697,106664.0
63045.73534035035,106698.0
63045.745338263725,106677.0
63045.755336177106,106663.0
63045.76533409049,106671.0
63045.77533200386,106669.0
63045.78532991724,106673.0
63045.79532783062,106662.0
63045.805325744,106699.0
63045.81532365738,106662.0
63045.82532157076,106684.0
63045.83531948413,106662.0
63045.845317397514,106662.0
63045.855315310895,106693.0
63045.865313224276,106682.0
63045.87531113765,106681.0
63045.88530905103,106681.0
63045.89530696441,106679.0
63045.905304877786,106692.0
63045.91530279117,106701.0
63045.92530070455,106698.0
63045.93529861792,106716.0
63045.9452965313,106695.0
63045.955294444684,106722.0
63045.96529235806,106714.0
63045.97529027144,106726.0
63045.98528818482,106698.0
63045.995286098194,106687.0
63046.005284011575,106727.0
63046.015281924956,106681.0
63046.02527983833,106704.0
63046.03527775171,106676.0
63046.04527566509,106681.0
63046.055273578466,106718.0
63046.06527149185,106713.0
63046.07526940523,106707.0
63046.0852673186,106677.0
63046.09526523198,106732.0
63046.105263145364,106660.0
63046.11526105874,106741.0
63046.12525897212,106717.0
63046.1352568855,106690.0
63046.145254798874,106730.0
63046.155252712255,106716.0
63046.165250625636,106715.0
63046.17524853901,106757.0
63046.18524645239,106707.0
63046.19524436577,106731.0
63046.205242279146,106705.0
63046.21524019253,106748.0
63046.22523810591,106727.0
63046.23523601928,106758.0
63046.24523393266,106705.0
63046.255231846044,106722.0
63046.26522975942,106751.0
63046.2752276728,106738.0
63046.28522558618,106743.0
63046.295223499554,106744.0
63046.305221412935,106738.0
63046.315219326316,106752.0
63046.32521723969,106741.0
63046.33521515307,106718.0
63046.34521306645,106761.0
63046.355210979826,106728.0
63046.36520889321,106678.0
63046.37520680659,106690.0
63046.38520471996,106721.0
63046.39520263334,106716.0
63046.405200546724,106700.0
63046.4151984601,106731.0
63046.42519637348,106676.0
63046.43519428686,106693.0
63046.44519220024,106707.0
63046.455190113615,106727.0
63046.465188026996,106725.0
63046.47518594038,106704.0
63046.48518385375,106670.0
63046.49518176713,106687.0
63046.50517968051,106666.0
63046.51517759389,106679.0
63046.52517550727,106655.0
63046.53517342065,106716.0
63046.54517133402,106685.0
63046.555169247404,106700.0
63046.565167160785,106656.0
63046.57516507416,106679.0
63046.58516298754,106718.0
63046.59516090092,106702.0
63046.605158814295,106673.0
63046.615156727676,106671.0
63046.62515464106,106685.0
63046.63515255443,106695.0
63046.64515046781,106681.0
63046.65514838119,106685.0
63046.66514629457,106699.0
63046.67514420795,106681.0
63046.68514212133,106681.0
63046.6951400347,106675.0
63046.70513794808,106706.0
63046.715135861465,106698.0
63046.72513377484,106674.0
63046.73513168822,106714.0
63046.7451296016,106699.0
63046.755127514974,106696.0
63046.765125428356,106651.0
63046.77512334174,106695.0
63046.78512125511,106683.0
63046.79511916849,106712.0
63046.80511708187,106706.0
63046.81511499525,106722.0
63046.82511290863,106735.0
63046.83511082201,106701.0
63046.84510873538,106709.0
63046.85510664876,106688.0
63046.865104562145,106690.0
63046.87510247552,106690.0
63046.8851003889,106713.0
63046.89509830228,106711.0
63046.905096215654,106743.0
63046.915094129035,106730.0
63046.92509204242,106716.0
63046.93508995579,106722.0
63046.94508786917,106722.0
63046.95508578255,106710.0
63046.965083695926,106719.0
63046.97508160931,106740.0
63046.98507952269,106731.0
63046.99507743606,106706.0
63047.00507534944,106730.0
63047.015073262824,106750.0
63047.025071176206,106736.0
63047.03506908958,106669.0
63047.04506700296,106732.0
63047.05506491634,106728.0
63047.065062829715,106718.0
63047.0750607431,106723.0
63047.08505865648,106741.0
63047.09505656985,106737.0
63047.10505448323,106754.0
63047.11505239661,106754.0
63047.12505030999,106749.0
63047.13504822337,106725.0
63047.14504613675,106754.0
63047.15504405012,106733.0
63047.165041963504,106732.0
63047.175039876885,106741.0
63047.18503779026,106748.0
63047.19503570364,106736.0
63047.20503361702,106741.0
63047.215031530395,106729.0
63047.225029443776,106745.0
63047.23502735716,106756.0
63047.24502527053,106750.0
63047.25502318391,106773.0
63047.26502109729,106756.0
63047.27501901067,106743.0
63047.28501692405,106738.0
63047.29501483743,106745.0
63047.3050127508,106702.0
63047.315010664184,106694.0
63047.325008577565,106711.0
63047.33500649094,106732.0
63047.34500440432,106702.0
63047.3550023177,106718.0
63047.365000231075,106702.0
63047.374998144456,106693.0
63047.38499605784,106696.0
63047.39499397121,106678.0
63047.40499188459,106709.0
63047.41498979797,106711.0
63047.42498771135,106668.0
63047.43498562473,106718.0
63047.44498353811,106680.0
63047.45498145148,106709.0
63047.464979364864,106728.0
63047.474977278245,106683.0
63047.48497519162,106722.0
63047.494973105,106711.0
63047.50497101838,106732.0
63047.514968931755,106720.0
63047.524966845136,106713.0
63047.53496475852,106722.0
63047.54496267189,106684.0
63047.55496058527,106747.0
63047.56495849865,106681.0
63047.57495641203,106707.0
63047.58495432541,106692.0
63047.59495223879,106695.0
63047.60495015217,106684.0
63047.614948065544,106708.0
63047.624945978925,106714.0
63047.634943892306,106738.0
63047.64494180568,106707.0
63047.65493971906,106717.0
63047.66493763244,106730.0
63047.674935545816,106729.0
63047.6849334592,106721.0
63047.69493137258,106745.0
63047.70492928595,106704.0
63047.71492719933,106676.0
63047.724925112714,106724.0
63047.73492302609,106720.0
63047.74492093947,106715.0
63047.75491885285,106739.0
63047.764916766224,106710.0
63047.774914679605,106740.0
63047.784912592986,106733.0
63047.79491050636,106706.0
63047.80490841974,106725.0
63047.81490633312,106734.0
63047.824904246496,106701.0
63047.83490215988,106718.0
63047.84490007326,106741.0
63047.85489798663,106730.0
63047.86489590001,106745.0
63047.874893813394,106715.0
63047.88489172677,106691.0
63047.89488964015,106733.0
63047.90488755353,106731.0
63047.914885466904,106719.0
63047.924883380285,106760.0
63047.934881293666,106731.0
63047.94487920704,106722.0
63047.95487712042,106743.0
63047.9648750338,106701.0
63047.974872947176,106732.0
63047.98487086056,106747.0
63047.99486877394,106745.0
63048.00486668731,106731.0
63048.01486460069,106747.0
63048.024862514074,106748.0
63048.03486042745,106774.0
63048.04485834083,106742.0
63048.05485625421,106750.0
63048.064854167584,106705.0
63048.074852080965,106760.0
63048.084849994346,106722.0
63048.09484790772,106735.0
63048.1048458211,106731.0
63048.11484373448,106733.0
63048.124841647856,106737.0
63048.13483956124,106723.0
63048.14483747462,106737.0
63048.15483538799,106742.0
63048.16483330137,106738.0
63048.174831214754,106713.0
63048.184829128135,106717.0
63048.19482704151,106701.0
63048.20482495489,106705.0
63048.21482286827,106701.0
63048.224820781645,106670.0
63048.234818695026,106672.0
63048.24481660841,106710.0
63048.25481452178,106696.0
63048.26481243516,106695.0
63048.27481034854,106709.0
63048.28480826192,106678.0
63048.2948061753,106716.0
63048.30480408868,106706.0
63048.31480200205,106676.0
63048.324799915434,106711.0
63048.334797828815,106705.0
63048.34479574219,106696.0
63048.35479365557,106698.0
63048.36479156895,106683.0
63048.374789482325,106707.0
63048.384787395706,106693.0
63048.39478530909,106673.0
63048.40478322246,106672.0
63048.41478113584,106687.0
63048.42477904922,106709.0
63048.4347769626,106689.0
63048.44477487598,106745.0
63048.45477278936,106681.0
63048.46477070273,106707.0
63048.47476861611,106714.0
63048.484766529495,106677.0
63048.49476444287,106693.0
63048.50476235625,106689.0
63048.51476026963,106678.0
63048.524758183004,106712.0
63048.534756096386,106714.0
63048.54475400977,106704.0
63048.55475192314,106699.0
63048.56474983652,106718.0
63048.5747477499,106670.0
63048.58474566328,106703.0
63048.59474357666,106729.0
63048.60474149004,106703.0
63048.61473940341,106730.0
63048.62473731679,106699.0
63048.634735230175,106685.0
63048.64473314355,106690.0
63048.65473105693,106704.0
63048.66472897031,106728.0
63048.674726883684,106758.0
63048.684724797065,106733.0
63048.69472271045,106746.0
63048.70472062382,106733.0
63048.7147185372,106741.0
63048.72471645058,106736.0
63048.734714363956,106750.0
63048.74471227734,106735.0
63048.75471019072,106716.0
63048.7647081041,106738.0
63048.77470601747,106700.0
63048.784703930854,106729.0
63048.794701844236,106741.0
63048.80469975761,106719.0
63048.81469767099,106749.0
63048.82469558437,106718.0
63048.834693497745,106723.0
63048.84469141113,106739.0
63048.85468932451,106715.0
63048.86468723788,106734.0
63048.87468515126,106733.0
63048.88468306464,106768.0
63048.89468097802,106738.0
63048.9046788914,106744.0
63048.91467680478,106739.0
63048.92467471815,106700.0
63048.934672631534,106706.0
63048.944670544915,106722.0
63048.95466845829,106753.0
63048.96466637167,106743.0
63048.97466428505,106736.0
63048.984662198425,106734.0
63048.994660111806,106752.0
63049.00465802519,106752.0
63049.01465593856,106773.0
63049.02465385194,106766.0
63049.03465176532,106747.0
63049.0446496787,106705.0
63049.05464759208,106747.0
63049.06464550546,106693.0
63049.07464341883,106713.0
63049.084641332214,106727.0
63049.094639245595,106688.0
63049.10463715897,106722.0
63049.11463507235,106709.0
63049.12463298573,106701.0
63049.134630899105,106704.0
63049.144628812486,106675.0
63049.15462672587,106671.0
63049.16462463924,106642.0
63049.17462255262,106708.0
63049.184620466,106675.0
63049.19461837938,106678.0
63049.20461629276,106671.0
63049.21461420614,106689.0
63049.22461211951,106693.0
63049.234610032894,106683.0
63049.244607946275,106671.0
63049.25460585965,106709.0
63049.26460377303,106673.0
63049.27460168641,106675.0
63049.284599599785,106675.0
63049.294597513166,106679.0
63049.30459542655,106702.0
63049.31459333992,106682.0
63049.3245912533,106661.0
63049.33458916668,106651.0
63049.344587080064,106707.0
63049.35458499344,106684.0
63049.36458290682,106684.0
63049.3745808202,106712.0
63049.384578733574,106670.0
63049.394576646955,106690.0
63049.404574560336,106698.0
63049.41457247371,106692.0
63049.42457038709,106705.0
63049.43456830047,106692.0
63049.444566213846,106684.0
63049.45456412723,106683.0
63049.46456204061,106705.0
63049.47455995398,106690.0
63049.48455786736,106689.0
63049.494555780744,106694.0
63049.50455369412,106692.0
63049.5145516075,106674.0
63049.52454952088,106691.0
63049.534547434254,106703.0
63049.544545347635,106736.0
63049.554543261016,106663.0
63049.56454117439,106693.0
63049.57453908777,106703.0
63049.58453700115,106686.0
63049.594534914526,106710.0
63049.60453282791,106716.0
63049.61453074129,106716.0
63049.62452865466,106732.0
63049.63452656804,106728.0
63049.644524481424,106708.0
63049.6545223948,106716.0
63049.66452030818,106685.0
63049.67451822156,106680.0
63049.684516134934,106729.0
63049.694514048315,106737.0
63049.704511961696,106724.0
63049.71450987507,106747.0
63049.72450778845,106721.0
63049.73450570183,106709.0
63049.744503615206,106701.0
63049.75450152859,106718.0
63049.76449944197,106727.0
63049.77449735534,106722.0
63049.78449526872,106743.0
63049.794493182104,106715.0
63049.80449109548,106740.0
63049.81448900886,106704.0
63049.82448692224,106743.0
63049.834484835614,106737.0
63049.844482748995,106733.0
63049.854480662376,106732.0
63049.86447857575,106739.0
63049.87447648913,106733.0
63049.88447440251,106735.0
63049.894472315886,106742.0
63049.90447022927,106711.0
63049.91446814265,106719.0
63049.92446605603,106735.0
63049.9344639694,106721.0
63049.944461882784,106743.0
63049.954459796165,106703.0
63049.96445770954,106737.0
63049.97445562292,106723.0
63049.9844535363,106716.0
63049.994451449675,106715.0
63050.004449363056,106718.0
63050.01444727644,106720.0
63050.02444518981,106725.0
63050.03444310319,106730.0
63050.04444101657,106712.0
63050.05443892995,106698.0
63050.06443684333,106678.0
63050.07443475671,106671.0
63050.08443267008,106659.0
63050.094430583464,106655.0
63050.104428496845,106704.0
63050.11442641022,106695.0
63050.1244243236,106687.0
63050.13442223698,106680.0
63050.144420150355,106675.0
63050.154418063736,106701.0
63050.16441597712,106729.0
63050.17441389049,106697.0
63050.18441180387,106693.0
63050.19440971725,106735.0
63050.20440763063,106719.0
63050.21440554401,106698.0
63050.22440345739,106702.0
63050.23440137076,106718.0
63050.24439928414,106717.0
63050.254397197525,106704.0
63050.2643951109,106675.0
63050.27439302428,106695.0
63050.28439093766,106719.0
63050.294388851034,106720.0
63050.304386764416,106700.0
63050.3143846778,106702.0
63050.32438259117,106726.0
63050.33438050455,106725.0
63050.34437841793,106723.0
63050.35437633131,106726.0
63050.36437424469,106736.0
63050.37437215807,106715.0
63050.38437007144,106702.0
63050.39436798482,106713.0
63050.404365898205,106695.0
63050.41436381158,106716.0
63050.42436172496,106708.0
63050.43435963834,106681.0
63050.444357551714,106735.0
63050.454355465095,106726.0
63050.46435337848,106730.0
63050.47435129185,106754.0
63050.48434920523,106737.0
63050.49434711861,106740.0
63050.50434503199,106727.0
63050.51434294537,106720.0
63050.52434085875,106719.0
63050.53433877213,106746.0
63050.5443366855,106718.0
63050.554334598884,106720.0
63050.564332512266,106732.0
63050.57433042564,106757.0
63050.58432833902,106738.0
63050.5943262524,106736.0
63050.604324165775,106781.0
63050.61432207916,106767.0
63050.62431999254,106753.0
63050.63431790591,106744.0
63050.64431581929,106721.0
63050.65431373267,106752.0
63050.66431164605,106724.0
63050.67430955943,106723.0
63050.68430747281,106767.0
63050.69430538618,106761.0
63050.704303299564,106744.0
63050.714301212945,106749.0
63050.72429912632,106736.0
63050.7342970397,106746.0
63050.74429495308,106745.0
63050.754292866455,106777.0
63050.764290779836,106772.0
63050.77428869322,106761.0
63050.78428660659,106756.0
63050.79428451997,106780.0
63050.80428243335,106759.0
63050.81428034673,106778.0
63050.82427826011,106771.0
63050.83427617349,106761.0
63050.84427408686,106761.0
63050.854272000244,106811.0
63050.864269913625,106787.0
63050.874267827,106756.0
63050.88426574038,106770.0
63050.89426365376,106769.0
63050.904261567135,106771.0
63050.914259480516,106739.0
63050.9242573939,106743.0
63050.93425530727,106785.0
63050.94425322065,106763.0
63050.95425113403,106733.0
63050.96424904741,106733.0
63050.97424696079,106728.0
63050.98424487417,106744.0
63050.99424278754,106714.0
63051.004240700924,106752.0
63051.014238614305,106737.0
63051.02423652768,106731.0
63051.03423444106,106732.0
63051.04423235444,106753.0
63051.054230267815,106737.0
63051.064228181196,106734.0
63051.07422609458,106764.0
63051.08422400796,106729.0
63051.09422192133,106746.0
63051.10421983471,106735.0
63051.114217748094,106713.0
63051.12421566147,106764.0
63051.13421357485,106740.0
63051.14421148823,106732.0
63051.154209401604,106708.0
63051.164207314985,106719.0
63051.174205228366,106746.0
63051.18420314174,106742.0
63051.19420105512,106750.0
63051.2041989685,106732.0
63051.214196881876,106740.0
63051.22419479526,106735.0
63051.23419270864,106717.0
63051.24419062201,106740.0
63051.25418853539,106738.0
63051.264186448774,106748.0
63051.27418436215,106757.0
63051.28418227553,106716.0
63051.29418018891,106748.0
63051.304178102284,106735.0
63051.314176015665,106724.0
63051.324173929046,106731.0
63051.33417184242,106717.0
63051.3441697558,106748.0
63051.35416766918,106749.0
63051.364165582556,106753.0
63051.37416349594,106730.0
63051.38416140932,106752.0
63051.39415932269,106770.0
63051.40415723607,106720.0
63051.414155149454,106761.0
63051.42415306283,106750.0
63051.43415097621,106734.0
63051.44414888959,106726.0
63051.454146802964,106750.0
63051.464144716345,106764.0
63051.474142629726,106768.0
63051.4841405431,106739.0
63051.49413845648,106733.0
63051.50413636986,106765.0
63051.514134283236,106760.0
63051.52413219662,106750.0
63051.53413011,106774.0
63051.54412802337,106754.0
63051.55412593675,106748.0
63051.564123850134,106764.0
63051.57412176351,106746.0
63051.58411967689,106788.0
63051.59411759027,106769.0
63051.604115503644,106774.0
63051.614113417025,106766.0
63051.624111330406,106740.0
63051.63410924378,106779.0
63051.64410715716,106763.0
63051.65410507054,106766.0
63051.66410298392,106751.0
63051.6741008973,106794.0
63051.68409881068,106765.0
63051.69409672406,106769.0
63051.70409463743,106794.0
63051.714092550814,106792.0
63051.724090464195,106761.0
63051.73408837757,106799.0
63051.74408629095,106779.0
63051.75408420433,106788.0
63051.764082117705,106810.0
63051.774080031086,106790.0
63051.78407794447,106798.0
63051.79407585784,106794.0
63051.80407377122,106774.0
63051.8140716846,106791.0
63051.82406959798,106760.0
63051.83406751136,106782.0
63051.84406542474,106752.0
63051.85406333811,106757.0
63051.864061251494,106736.0
63051.874059164875,106770.0
63051.88405707825,106760.0
63051.89405499163,106746.0
63051.90405290501,106744.0
63051.914050818385,106766.0
63051.924048731766,106779.0
63051.93404664515,106754.0
63051.94404455852,106735.0
63051.9540424719,106753.0
63051.96404038528,106758.0
63051.97403829866,106718.0
63051.98403621204,106735.0
63051.99403412542,106757.0
63052.00403203879,106735.0
63052.01402995217,106727.0
63052.024027865555,106777.0
63052.03402577893,106746.0
63052.04402369231,106736.0
63052.05402160569,106784.0
63052.064019519064,106746.0
63052.074017432446,106746.0
63052.08401534583,106747.0
63052.0940132592,106735.0
63052.10401117258,106774.0
63052.11400908596,106767.0
63052.12400699934,106769.0
63052.13400491272,106764.0
63052.1440028261,106778.0
63052.15400073947,106757.0
63052.16399865285,106758.0
63052.173996566235,106793.0
63052.18399447961,106716.0
63052.19399239299,106776.0
63052.20399030637,106724.0
63052.213988219744,106733.0
63052.223986133125,106774.0
63052.23398404651,106748.0
63052.24398195989,106756.0
63052.25397987326,106731.0
63052.26397778664,106743.0
63052.27397570002,106783.0
63052.2839736134,106762.0
63052.29397152678,106746.0
63052.30396944016,106760.0
63052.31396735353,106773.0
63052.323965266914,106769.0
63052.333963180296,106778.0
63052.34396109367,106783.0
63052.35395900705,106756.0
63052.36395692043,106780.0
63052.373954833805,106780.0
63052.38395274719,106779.0
63052.39395066057,106770.0
63052.40394857394,106780.0
63052.41394648732,106754.0
63052.4239444007,106751.0
63052.43394231408,106768.0
63052.44394022746,106776.0
63052.45393814084,106768.0
63052.46393605421,106766.0
63052.473933967594,106757.0
63052.483931880975,106773.0
63052.49392979435,106771.0
63052.50392770773,106776.0
63052.51392562111,106809.0
63052.523923534485,106790.0
63052.533921447866,106773.0
63052.54391936125,106794.0
63052.55391727462,106779.0
63052.563915188,106777.0
63052.57391310138,106774.0
63052.58391101476,106767.0
63052.59390892814,106758.0
63052.60390684152,106769.0
63052.61390475489,106809.0
63052.623902668274,106763.0
63052.633900581655,106808.0
63052.64389849503,106784.0
63052.65389640841,106792.0
63052.66389432179,106809.0
63052.673892235165,106766.0
63052.683890148546,106783.0
63052.69388806193,106820.0
63052.7038859753,106777.0
63052.71388388868,106788.0
63052.72388180206,106798.0
63052.73387971544,106765.0
63052.74387762882,106757.0
63052.7538755422,106751.0
63052.76387345557,106775.0
63052.773871368954,106742.0
63052.783869282335,106778.0
63052.79386719571,106752.0
63052.80386510909,106758.0
63052.81386302247,106733.0
63052.82386093585,106728.0
63052.833858849226,106719.0
63052.84385676261,106782.0
63052.85385467599,106751.0
63052.86385258936,106763.0
63052.87385050274,106734.0
63052.883848416124,106740.0
63052.8938463295,106738.0
63052.90384424288,106764.0
63052.91384215626,106712.0
63052.923840069634,106746.0
63052.933837983015,106759.0
63052.943835896396,106739.0
63052.95383380977,106749.0
63052.96383172315,106744.0
63052.97382963653,106734.0
63052.983827549906,106738.0
63052.99382546329,106727.0
63053.00382337667,106732.0
63053.01382129004,106740.0
63053.02381920342,106764.0
63053.033817116804,106739.0
63053.04381503018,106759.0
63053.05381294356,106736.0
63053.06381085694,106721.0
63053.073808770314,106733.0
63053.083806683695,106761.0
63053.093804597076,106747.0
63053.10380251045,106760.0
63053.11380042383,106744.0
63053.12379833721,106759.0
63053.133796250586,106731.0
63053.14379416397,106731.0
63053.15379207735,106743.0
63053.16378999072,106730.0
63053.1737879041,106754.0
63053.183785817484,106722.0
63053.19378373086,106768.0
63053.20378164424,106730.0
63053.21377955762,106747.0
63053.223777470994,106741.0
63053.233775384375,106732.0
63053.243773297756,106743.0
63053.25377121113,106764.0
63053.26376912451,106774.0
63053.27376703789,106781.0
63053.283764951266,106714.0
63053.29376286465,106768.0
63053.30376077803,106755.0
63053.3137586914,106750.0
63053.32375660478,106743.0
63053.333754518164,106762.0
63053.34375243154,106787.0
63053.35375034492,106737.0
63053.3637482583,106792.0
63053.37374617168,106776.0
63053.383744085055,106764.0
63053.393741998436,106741.0
63053.40373991182,106743.0
63053.41373782519,106769.0
63053.42373573857,106738.0
63053.43373365195,106800.0
63053.44373156533,106793.0
63053.45372947871,106776.0
63053.46372739209,106765.0
63053.47372530546,106802.0
63053.483723218844,106820.0
63053.493721132225,106774.0
63053.5037190456,106760.0
63053.51371695898,106790.0
63053.52371487236,106805.0
63053.533712785735,106766.0
63053.543710699116,106778.0
63053.5537086125,106760.0
63053.56370652587,106799.0
63053.57370443925,106758.0
63053.58370235263,106779.0
63053.59370026601,106791.0
63053.60369817939,106804.0
63053.61369609277,106799.0
63053.62369400614,106785.0
63053.633691919524,106761.0
63053.643689832905,106767.0
63053.65368774628,106745.0
63053.66368565966,106762.0
63053.67368357304,106734.0
63053.683681486415,106766.0
63053.693679399796,106716.0
63053.70367731318,106745.0
63053.71367522655,106720.0
63053.72367313993,106712.0
63053.73367105331,106712.0
63053.74366896669,106740.0
63053.75366688007,106751.0
63053.76366479345,106736.0
63053.77366270682,106708.0
63053.7836606202,106738.0
63053.793658533585,106718.0
63053.80365644696,106725.0
63053.81365436034,106755.0
63053.82365227372,106738.0
63053.833650187094,106676.0
63053.843648100476,106749.0
63053.85364601386,106726.0
63053.86364392723,106734.0
63053.87364184061,106736.0
63053.88363975399,106747.0
63053.89363766737,106732.0
63053.90363558075,106731.0
63053.91363349413,106777.0
63053.9236314075,106757.0
63053.93362932088,106749.0
63053.943627234265,106740.0
63053.95362514764,106712.0
63053.96362306102,106747.0
63053.9736209744,106735.0
63053.98361888778,106739.0
63053.993616801155,106719.0
63054.00361471454,106742.0
63054.01361262792,106763.0
63054.02361054129,106738.0
63054.03360845467,106720.0
63054.04360636805,106741.0
63054.05360428143,106737.0
63054.06360219481,106767.0
63054.07360010819,106707.0
63054.08359802156,106740.0
63054.093595934944,106718.0
63054.103593848326,106753.0
63054.1135917617,106756.0
63054.12358967508,106728.0
63054.13358758846,106768.0
63054.143585501835,106752.0
63054.15358341522,106736.0
63054.1635813286,106772.0
63054.17357924197,106747.0
63054.18357715535,106756.0
63054.19357506873,106741.0
63054.20357298211,106771.0
63054.21357089549,106766.0
63054.22356880887,106783.0
63054.23356672224,106764.0
63054.243564635624,106749.0
63054.253562549005,106760.0
63054.26356046238,106732.0
63054.27355837576,106756.0
63054.28355628914,106754.0
63054.293554202515,106772.0
63054.303552115896,106778.0
63054.31355002928,106772.0
63054.32354794265,106744.0
63054.33354585603,106786.0
63054.34354376941,106755.0
63054.35354168279,106765.0
63054.36353959617,106795.0
63054.37353750955,106777.0
63054.38353542292,106776.0
63054.393533336304,106776.0
63054.403531249685,106740.0
63054.41352916306,106760.0
63054.42352707644,106801.0
63054.43352498982,106774.0
63054.443522903195,106769.0
63054.453520816576,106797.0
63054.46351872996,106725.0
63054.47351664333,106772.0
63054.48351455671,106757.0
63054.49351247009,106758.0
63054.50351038347,106813.0
63054.51350829685,106786.0
63054.52350621023,106773.0
63054.53350412361,106787.0
63054.543502036984,106811.0
63054.553499950365,106796.0
63054.563497863746,106769.0
63054.57349577712,106806.0
63054.5834936905,106753.0
63054.59349160388,106787.0
63054.603489517256,106728.0
63054.61348743064,106735.0
63054.62348534402,106782.0
63054.63348325739,106741.0
63054.64348117077,106740.0
63054.653479084154,106726.0
63054.66347699753,106731.0
63054.67347491091,106740.0
63054.68347282429,106750.0
63054.693470737664,106741.0
63054.703468651045,106773.0
63054.713466564426,106744.0
63054.7234644778,106761.0
63054.73346239118,106725.0
63054.74346030456,106723.0
63054.753458217936,106744.0
63054.76345613132,106748.0
63054.7734540447,106770.0
63054.78345195807,106715.0
63054.79344987145,106741.0
63054.803447784834,106733.0
63054.81344569821,106734.0
63054.82344361159,106726.0
63054.83344152497,106764.0
63054.843439438344,106761.0
63054.853437351725,106780.0
63054.863435265106,106759.0
63054.87343317848,106716.0
63054.88343109186,106744.0
63054.89342900524,106748.0
63054.903426918616,106761.0
63054.913424832,106761.0
63054.92342274538,106744.0
63054.93342065875,106750.0
63054.94341857213,106775.0
63054.953416485514,106741.0
63054.96341439889,106754.0
63054.97341231227,106761.0
63054.98341022565,106726.0
63054.993408139024,106715.0
63055.003406052405,106739.0
63055.013403965786,106758.0
63055.02340187916,106749.0
63055.03339979254,106762.0
63055.04339770592,106769.0
63055.053395619296,106745.0
63055.06339353268,106773.0
63055.07339144606,106743.0
63055.08338935943,106765.0
63055.09338727281,106795.0
63055.103385186194,106761.0
63055.11338309957,106771.0
63055.12338101295,106791.0
63055.13337892633,106770.0
63055.14337683971,106781.0
63055.153374753085,106769.0
63055.163372666466,106783.0
63055.17337057985,106747.0
63055.18336849322,106795.0
63055.1933664066,106771.0
63055.20336431998,106783.0
63055.21336223336,106775.0
63055.22336014674,106751.0
63055.23335806012,106763.0
63055.24335597349,106782.0
63055.253353886874,106818.0
63055.263351800255,106815.0
63055.27334971363,106790.0
63055.28334762701,106783.0
63055.29334554039,106828.0
63055.303343453765,106782.0
63055.313341367146,106792.0
63055.32333928053,106801.0
63055.3333371939,106818.0
63055.34333510728,106755.0
63055.35333302066,106811.0
63055.36333093404,106806.0
63055.37332884742,106788.0
63055.3833267608,106794.0
63055.39332467417,106774.0
63055.403322587554,106796.0
63055.413320500935,106797.0
63055.42331841431,106803.0
63055.43331632769,106815.0
63055.44331424107,106814.0
63055.453312154445,106792.0
63055.463310067826,106803.0
63055.47330798121,106834.0
63055.48330589458,106792.0
63055.49330380796,106840.0
63055.50330172134,106826.0
63055.51329963472,106779.0
63055.5232975481,106821.0
63055.53329546148,106782.0
63055.54329337485,106765.0
63055.55329128823,106788.0
63055.563289201615,106765.0
63055.57328711499,106774.0
63055.58328502837,106742.0
63055.59328294175,106748.0
63055.603280855124,106766.0
63055.613278768506,106778.0
63055.62327668189,106764.0
63055.63327459526,106771.0
63055.64327250864,106761.0
63055.65327042202,106759.0
63055.6632683354,106744.0
63055.67326624878,106757.0
63055.68326416216,106760.0
63055.69326207554,106783.0
63055.70325998891,106783.0
63055.713257902295,106766.0
63055.723255815676,106776.0
63055.73325372905,106773.0
63055.74325164243,106772.0
63055.75324955581,106750.0
63055.763247469185,106801.0
63055.77324538257,106780.0
