time,ppg
63478.9527577107,168743.0
63478.962846678245,168679.0
63478.97293564579,168723.0
63478.98302461334,168697.0
63478.99311358089,168725.0
63479.00320254843,168754.0
63479.013291515985,168717.0
63479.02338048353,168712.0
63479.033469451075,168713.0
63479.04355841863,168693.0
63479.05364738617,168733.0
63479.06373635372,168749.0
63479.07382532126,168708.0
63479.083914288814,168746.0
63479.09400325636,168750.0
63479.104092223904,168736.0
63479.11418119146,168757.0
63479.124270159,168727.0
63479.13435912655,168727.0
63479.1444480941,168692.0
63479.154537061644,168740.0
63479.16462602919,168680.0
63479.17471499674,168710.0
63479.18480396429,168666.0
63479.19489293183,168704.0
63479.204981899384,168693.0
63479.21507086693,168700.0
63479.225159834474,168694.0
63479.235248802026,168695.0
63479.24533776957,168693.0
63479.255426737116,168743.0
63479.26551570466,168744.0
63479.27560467221,168730.0
63479.28569363976,168773.0
63479.2957826073,168789.0
63479.305871574856,168788.0
63479.3159605424,168788.0
63479.326049509946,168842.0
63479.3361384775,168796.0
63479.34622744504,168832.0
63479.35631641259,168822.0
63479.36640538014,168891.0
63479.376494347685,168835.0
63479.38658331523,168867.0
63479.39667228278,168894.0
63479.40676125033,168877.0
63479.41685021787,168883.0
63479.426939185425,168904.0
63479.43702815297,168888.0
63479.447117120515,168876.0
63479.45720608806,168920.0
63479.46729505561,168930.0
63479.47738402316,168950.0
63479.4874729907,168934.0
63479.497561958255,168975.0
63479.5076509258,168978.0
63479.517739893345,168957.0
63479.5278288609,168995.0
63479.53791782844,168967.0
63479.54800679599,168965.0
63479.55809576354,169006.0
63479.568184731084,169022.0
63479.57827369863,169009.0
63479.58836266618,169034.0
63479.59845163373,169020.0
63479.60854060127,169055.0
63479.618629568824,169086.0
63479.62871853637,169081.0
63479.638807503914,169062.0
63479.64889647146,169098.0
63479.65898543901,169070.0
63479.669074406556,169118.0
63479.6791633741,169108.0
63479.68925234165,169084.0
63479.6993413092,169130.0
63479.709430276744,169161.0
63479.719519244296,169174.0
63479.72960821184,169203.0
63479.739697179386,169168.0
63479.74978614694,169119.0
63479.75987511448,169140.0
63479.76996408203,169107.0
63479.78005304958,169002.0
63479.790142017126,168955.0
63479.80023098467,168934.0
63479.810319952216,168884.0
63479.82040891977,168839.0
63479.83049788731,168818.0
63479.84058685486,168788.0
63479.85067582241,168743.0
63479.860764789955,168724.0
63479.8708537575,168703.0
63479.88094272505,168716.0
63479.8910316926,168731.0
63479.90112066014,168675.0
63479.911209627695,168706.0
63479.92129859524,168692.0
63479.931387562785,168685.0
63479.94147653034,168654.0
63479.95156549788,168615.0
63479.96165446543,168654.0
63479.97174343298,168644.0
63479.981832400525,168658.0
63479.99192136807,168633.0
63480.002010335615,168658.0
63480.01209930317,168692.0
63480.02218827071,168657.0
63480.03227723826,168660.0
63480.04236620581,168678.0
63480.052455173354,168673.0
63480.0625441409,168660.0
63480.07263310845,168622.0
63480.082722076,168673.0
63480.09281104354,168689.0
63480.102900011094,168660.0
63480.11298897864,168641.0
63480.123077946184,168652.0
63480.133166913736,168640.0
63480.14325588128,168637.0
63480.153344848826,168656.0
63480.16343381637,168662.0
63480.17352278392,168677.0
63480.18361175147,168648.0
63480.19370071901,168695.0
63480.203789686566,168692.0
63480.21387865411,168682.0
63480.223967621656,168657.0
63480.23405658921,168702.0
63480.24414555675,168721.0
63480.2542345243,168707.0
63480.26432349185,168766.0
63480.274412459396,168772.0
63480.28450142694,168761.0
63480.29459039449,168787.0
63480.30467936204,168783.0
63480.31476832958,168779.0
63480.324857297135,168787.0
63480.33494626468,168809.0
63480.345035232225,168846.0
63480.35512419977,168850.0
63480.36521316732,168852.0
63480.37530213487,168847.0
63480.38539110241,168852.0
63480.395480069965,168835.0
63480.40556903751,168846.0
63480.415658005055,168879.0
63480.42574697261,168887.0
63480.43583594015,168889.0
63480.4459249077,168914.0
63480.45601387525,168910.0
63480.466102842794,168933.0
63480.47619181034,168922.0
63480.48628077789,168907.0
63480.49636974544,168935.0
63480.50645871298,168938.0
63480.51654768053,168946.0
63480.52663664808,168973.0
63480.536725615624,168977.0
63480.54681458317,168986.0
63480.55690355072,168996.0
63480.56699251827,169024.0
63480.57708148581,169035.0
63480.587170453364,169013.0
63480.59725942091,169054.0
63480.607348388454,169069.0
63480.617437356006,169054.0
63480.62752632355,169068.0
63480.637615291096,169071.0
63480.64770425865,169099.0
63480.65779322619,169127.0
63480.66788219374,169093.0
63480.67797116129,169161.0
63480.688060128836,169163.0
63480.69814909638,169138.0
63480.708238063926,169099.0
63480.71832703148,169071.0
63480.72841599902,169079.0
63480.73850496657,169019.0
63480.74859393412,168938.0
63480.758682901665,168922.0
63480.76877186921,168854.0
63480.77886083676,168814.0
63480.78894980431,168800.0
63480.79903877185,168758.0
63480.809127739405,168747.0
63480.81921670695,168707.0
63480.829305674495,168701.0
63480.83939464205,168678.0
63480.84948360959,168676.0
63480.85957257714,168694.0
63480.86966154469,168691.0
63480.879750512235,168603.0
63480.88983947978,168647.0
63480.899928447325,168637.0
63480.91001741488,168651.0
63480.92010638242,168654.0
63480.93019534997,168653.0
63480.94028431752,168684.0
63480.950373285064,168652.0
63480.96046225261,168646.0
63480.97055122016,168618.0
63480.98064018771,168661.0
63480.99072915525,168649.0
63481.000818122804,168623.0
63481.01090709035,168667.0
63481.020996057894,168616.0
63481.03108502545,168625.0
63481.04117399299,168584.0
63481.05126296054,168645.0
63481.06135192809,168601.0
63481.071440895634,168610.0
63481.08152986318,168601.0
63481.091618830724,168572.0
63481.101707798276,168574.0
63481.11179676582,168622.0
63481.121885733366,168647.0
63481.13197470092,168603.0
63481.14206366846,168643.0
63481.15215263601,168654.0
63481.16224160356,168630.0
63481.172330571106,168618.0
63481.18241953865,168677.0
63481.1925085062,168664.0
63481.20259747375,168684.0
63481.21268644129,168691.0
63481.222775408845,168741.0
63481.23286437639,168713.0
63481.242953343935,168725.0
63481.25304231148,168748.0
63481.26313127903,168768.0
63481.27322024658,168757.0
63481.28330921412,168776.0
63481.293398181675,168748.0
63481.30348714922,168741.0
63481.313576116765,168790.0
63481.32366508432,168807.0
63481.33375405186,168792.0
63481.34384301941,168832.0
63481.35393198696,168860.0
63481.364020954505,168824.0
63481.37410992205,168805.0
63481.3841988896,168869.0
63481.39428785715,168863.0
63481.40437682469,168870.0
63481.414465792244,168892.0
63481.42455475979,168860.0
63481.434643727334,168859.0
63481.44473269488,168910.0
63481.45482166243,168927.0
63481.46491062998,168925.0
63481.47499959752,168937.0
63481.485088565074,168935.0
63481.49517753262,168934.0
63481.505266500164,168980.0
63481.515355467716,168970.0
63481.52544443526,168973.0
63481.535533402806,168984.0
63481.54562237036,168999.0
63481.5557113379,169022.0
63481.56580030545,169029.0
63481.575889273,169015.0
63481.585978240546,169080.0
63481.59606720809,169029.0
63481.606156175636,169076.0
63481.61624514319,169062.0
63481.62633411073,169112.0
63481.63642307828,169078.0
63481.64651204583,169119.0
63481.656601013376,169129.0
63481.66668998092,169155.0
63481.67677894847,169138.0
63481.68686791602,169142.0
63481.69695688356,169093.0
63481.707045851115,169033.0
63481.71713481866,169015.0
63481.727223786205,168972.0
63481.73731275376,168896.0
63481.7474017213,168842.0
63481.75749068885,168852.0
63481.7675796564,168797.0
63481.777668623945,168761.0
63481.78775759149,168767.0
63481.797846559035,168730.0
63481.80793552659,168690.0
63481.81802449413,168669.0
63481.82811346168,168703.0
63481.83820242923,168669.0
63481.848291396775,168678.0
63481.85838036432,168689.0
63481.86846933187,168700.0
63481.87855829942,168680.0
63481.88864726696,168660.0
63481.898736234514,168678.0
63481.90882520206,168675.0
63481.918914169604,168680.0
63481.92900313716,168708.0
63481.9390921047,168687.0
63481.94918107225,168676.0
63481.9592700398,168686.0
63481.969359007344,168678.0
63481.97944797489,168673.0
63481.989536942434,168703.0
63481.999625909986,168681.0
63482.00971487753,168654.0
63482.019803845076,168652.0
63482.02989281263,168678.0
63482.03998178017,168671.0
63482.05007074772,168635.0
63482.06015971527,168659.0
63482.070248682816,168665.0
63482.08033765036,168624.0
63482.09042661791,168662.0
63482.10051558546,168650.0
63482.110604553,168650.0
63482.120693520556,168675.0
63482.1307824881,168663.0
63482.140871455646,168696.0
63482.1509604232,168724.0
63482.16104939074,168713.0
63482.17113835829,168739.0
63482.18122732583,168738.0
63482.191316293385,168724.0
63482.20140526093,168773.0
63482.211494228475,168748.0
63482.22158319603,168789.0
63482.23167216357,168800.0
63482.24176113112,168825.0
63482.25185009867,168807.0
63482.261939066215,168837.0
63482.27202803376,168828.0
63482.28211700131,168831.0
63482.29220596886,168913.0
63482.3022949364,168874.0
63482.312383903954,168869.0
63482.3224728715,168886.0
63482.332561839045,168861.0
63482.34265080659,168913.0
63482.35273977414,168897.0
63482.36282874169,168903.0
63482.37291770923,168935.0
63482.383006676784,168918.0
63482.39309564433,168950.0
63482.403184611874,168972.0
63482.41327357943,168940.0
63482.42336254697,168968.0
63482.43345151452,168990.0
63482.44354048207,168965.0
63482.453629449614,168986.0
63482.46371841716,168960.0
63482.47380738471,169020.0
63482.483896352256,169036.0
63482.4939853198,169017.0
63482.50407428735,169075.0
63482.5141632549,169063.0
63482.52425222244,169038.0
63482.53434118999,169062.0
63482.54443015754,169132.0
63482.554519125086,169105.0
63482.56460809263,169105.0
63482.57469706018,169131.0
63482.58478602773,169160.0
63482.59487499527,169164.0
63482.604963962825,169124.0
63482.61505293037,169194.0
63482.625141897915,169160.0
63482.63523086547,169195.0
63482.64531983301,169171.0
63482.65540880056,169213.0
63482.66549776811,169189.0
63482.675586735655,169178.0
63482.6856757032,169146.0
63482.695764670745,169068.0
63482.7058536383,169059.0
63482.71594260584,169000.0
63482.72603157339,168948.0
63482.73612054094,168898.0
63482.746209508485,168885.0
63482.75629847603,168853.0
63482.76638744358,168847.0
63482.77647641113,168823.0
63482.78656537867,168830.0
63482.796654346224,168801.0
63482.80674331377,168809.0
63482.816832281314,168807.0
63482.82692124887,168799.0
63482.83701021641,168777.0
63482.84709918396,168801.0
63482.85718815151,168786.0
63482.867277119054,168816.0
63482.8773660866,168807.0
63482.887455054144,168784.0
63482.8975440217,168812.0
63482.90763298924,168819.0
63482.91772195679,168842.0
63482.92781092434,168819.0
63482.937899891884,168782.0
63482.94798885943,168814.0
63482.95807782698,168790.0
63482.968166794526,168817.0
63482.97825576207,168795.0
63482.98834472962,168821.0
63482.99843369717,168817.0
63483.00852266471,168794.0
63483.018611632266,168795.0
63483.02870059981,168793.0
63483.038789567356,168754.0
63483.04887853491,168786.0
63483.05896750245,168761.0
63483.06905647,168763.0
63483.07914543754,168766.0
63483.089234405095,168805.0
63483.09932337264,168821.0
63483.109412340185,168821.0
63483.11950130774,168845.0
63483.12959027528,168848.0
63483.13967924283,168847.0
63483.14976821038,168839.0
63483.159857177925,168850.0
63483.16994614547,168866.0
63483.18003511302,168888.0
63483.19012408057,168873.0
63483.20021304811,168915.0
63483.210302015665,168930.0
63483.22039098321,168932.0
63483.230479950755,168927.0
63483.2405689183,168924.0
63483.25065788585,168960.0
63483.2607468534,168951.0
63483.27083582094,168986.0
63483.280924788494,168983.0
63483.29101375604,168982.0
63483.301102723584,168993.0
63483.31119169114,169017.0
63483.32128065868,169020.0
63483.33136962623,169016.0
63483.34145859378,169013.0
63483.351547561324,169009.0
63483.36163652887,169031.0
63483.37172549642,169067.0
63483.381814463966,169068.0
63483.39190343151,169084.0
63483.40199239906,169109.0
63483.41208136661,169095.0
63483.42217033415,169050.0
63483.4322593017,169110.0
63483.44234826925,169091.0
63483.452437236796,169119.0
63483.46252620434,169136.0
63483.47261517189,169113.0
63483.48270413944,169152.0
63483.49279310698,169165.0
63483.502882074536,169169.0
63483.51297104208,169180.0
63483.523060009626,169175.0
63483.53314897718,169211.0
63483.54323794472,169222.0
63483.55332691227,169220.0
63483.56341587982,169206.0
63483.573504847365,169267.0
63483.58359381491,169257.0
63483.59368278246,169225.0
63483.60377175001,169235.0
63483.61386071755,169252.0
63483.6239496851,169201.0
63483.63403865265,169137.0
63483.644127620195,169146.0
63483.65421658774,169118.0
63483.66430555529,169047.0
63483.67439452284,168986.0
63483.68448349038,168974.0
63483.694572457935,168908.0
63483.70466142548,168911.0
63483.714750393025,168888.0
63483.72483936058,168885.0
63483.73492832812,168898.0
63483.74501729567,168865.0
63483.75510626322,168889.0
63483.765195230764,168898.0
63483.77528419831,168865.0
63483.785373165854,168889.0
63483.79546213341,168892.0
63483.80555110095,168859.0
63483.8156400685,168912.0
63483.82572903605,168851.0
63483.835818003594,168877.0
63483.84590697114,168914.0
63483.85599593869,168934.0
63483.866084906236,168891.0
63483.87617387378,168921.0
63483.88626284133,168927.0
63483.89635180888,168888.0
63483.90644077642,168898.0
63483.916529743976,168914.0
63483.92661871152,168920.0
63483.936707679066,168876.0
63483.94679664662,168905.0
63483.95688561416,168906.0
63483.96697458171,168858.0
63483.97706354925,168851.0
63483.987152516806,168888.0
63483.99724148435,168866.0
63484.007330451896,168866.0
63484.01741941945,168866.0
63484.02750838699,168855.0
63484.03759735454,168886.0
63484.04768632209,168919.0
63484.057775289635,168886.0
63484.06786425718,168883.0
63484.07795322473,168929.0
63484.08804219228,168955.0
63484.09813115982,168946.0
63484.108220127375,168930.0
63484.11830909492,168970.0
63484.128398062465,168946.0
63484.13848703001,168953.0
63484.14857599756,168997.0
63484.15866496511,168999.0
63484.16875393265,169011.0
63484.178842900204,169002.0
63484.18893186775,169058.0
63484.199020835295,169032.0
63484.20910980285,169053.0
63484.21919877039,169086.0
63484.22928773794,169040.0
63484.23937670549,169075.0
63484.249465673034,169053.0
63484.25955464058,169057.0
63484.26964360813,169064.0
63484.27973257568,169094.0
63484.28982154322,169104.0
63484.299910510774,169125.0
63484.30999947832,169095.0
63484.320088445864,169133.0
63484.33017741341,169074.0
63484.34026638096,169115.0
63484.350355348506,169147.0
63484.36044431605,169166.0
63484.3705332836,169145.0
63484.38062225115,169139.0
63484.39071121869,169162.0
63484.400800186246,169183.0
63484.41088915379,169191.0
63484.420978121336,169204.0
63484.43106708889,169228.0
63484.44115605643,169216.0
63484.45124502398,169239.0
63484.46133399153,169217.0
63484.471422959075,169256.0
63484.48151192662,169220.0
63484.49160089417,169196.0
63484.50168986172,169156.0
63484.51177882926,169099.0
63484.52186779681,169058.0
63484.53195676436,169033.0
63484.542045731905,168970.0
63484.55213469945,168969.0
63484.562223667,168936.0
63484.57231263455,168884.0
63484.58240160209,168832.0
63484.592490569645,168816.0
63484.60257953719,168847.0
63484.612668504735,168813.0
63484.62275747229,168774.0
63484.63284643983,168802.0
63484.64293540738,168753.0
63484.65302437493,168787.0
63484.663113342474,168762.0
63484.67320231002,168812.0
63484.68329127757,168778.0
63484.69338024512,168790.0
63484.70346921266,168782.0
63484.71355818021,168765.0
63484.72364714776,168736.0
63484.733736115304,168776.0
63484.74382508285,168766.0
63484.7539140504,168767.0
63484.76400301795,168800.0
63484.77409198549,168780.0
63484.784180953044,168747.0
63484.79426992059,168749.0
63484.804358888134,168800.0
63484.814447855686,168752.0
63484.82453682323,168737.0
63484.834625790776,168777.0
63484.84471475833,168706.0
63484.85480372587,168748.0
63484.86489269342,168690.0
63484.87498166096,168772.0
63484.885070628516,168710.0
63484.89515959606,168710.0
63484.905248563606,168756.0
63484.91533753116,168719.0
63484.9254264987,168766.0
63484.93551546625,168746.0
63484.9456044338,168779.0
63484.955693401345,168759.0
63484.96578236889,168814.0
63484.97587133644,168789.0
63484.98596030399,168810.0
63484.99604927153,168801.0
63485.006138239085,168850.0
63485.01622720663,168826.0
63485.026316174175,168844.0
63485.03640514173,168848.0
63485.04649410927,168835.0
63485.05658307682,168905.0
63485.06667204436,168892.0
63485.076761011915,168917.0
63485.08684997946,168887.0
63485.096938947005,168906.0
63485.10702791456,168922.0
63485.1171168821,168893.0
63485.12720584965,168905.0
63485.1372948172,168947.0
63485.147383784744,168930.0
63485.15747275229,168880.0
63485.16756171984,168950.0
63485.17765068739,168961.0
63485.18773965493,168955.0
63485.197828622484,168941.0
63485.20791759003,168994.0
63485.218006557574,168988.0
63485.22809552512,168993.0
63485.23818449267,168982.0
63485.248273460216,168974.0
63485.25836242776,169021.0
63485.26845139531,169041.0
63485.27854036286,169063.0
63485.2886293304,169038.0
63485.298718297956,169043.0
63485.3088072655,169060.0
63485.318896233046,169044.0
63485.3289852006,169050.0
63485.33907416814,169067.0
63485.34916313569,169049.0
63485.35925210324,169004.0
63485.369341070786,168977.0
63485.37943003833,168936.0
63485.38951900588,168875.0
63485.39960797343,168815.0
63485.40969694097,168788.0
63485.41978590852,168767.0
63485.42987487607,168643.0
63485.439963843615,168662.0
63485.45005281116,168633.0
63485.46014177871,168633.0
63485.47023074626,168650.0
63485.4803197138,168616.0
63485.490408681355,168626.0
63485.5004976489,168565.0
63485.510586616445,168618.0
63485.520675584,168584.0
63485.53076455154,168544.0
63485.54085351909,168559.0
63485.55094248664,168570.0
63485.561031454185,168520.0
63485.57112042173,168524.0
63485.58120938928,168532.0
63485.59129835683,168540.0
63485.60138732437,168552.0
63485.61147629192,168512.0
63485.62156525947,168532.0
63485.631654227014,168512.0
63485.64174319456,168521.0
63485.65183216211,168526.0
63485.66192112966,168517.0
63485.6720100972,168509.0
63485.682099064754,168507.0
63485.6921880323,168545.0
63485.702276999844,168468.0
63485.712365967396,168489.0
63485.72245493494,168477.0
63485.732543902486,168484.0
63485.74263287004,168487.0
63485.75272183758,168467.0
63485.76281080513,168498.0
63485.77289977268,168496.0
63485.782988740226,168502.0
63485.79307770777,168538.0
63485.803166675316,168519.0
63485.81325564287,168501.0
63485.82334461041,168520.0
63485.83343357796,168559.0
63485.84352254551,168544.0
63485.853611513056,168559.0
63485.8637004806,168560.0
63485.87378944815,168588.0
63485.8838784157,168593.0
63485.89396738324,168572.0
63485.904056350795,168625.0
63485.91414531834,168609.0
63485.924234285885,168625.0
63485.93432325344,168613.0
63485.94441222098,168617.0
63485.95450118853,168608.0
63485.96459015607,168659.0
63485.974679123625,168649.0
63485.98476809117,168659.0
63485.994857058715,168683.0
63486.00494602627,168669.0
63486.01503499381,168673.0
63486.02512396136,168644.0
63486.03521292891,168707.0
63486.045301896454,168682.0
63486.055390864,168704.0
63486.06547983155,168702.0
63486.0755687991,168707.0
63486.08565776664,168691.0
63486.095746734194,168739.0
63486.10583570174,168770.0
63486.115924669284,168712.0
63486.12601363684,168757.0
63486.13610260438,168780.0
63486.14619157193,168804.0
63486.15628053947,168786.0
63486.166369507024,168802.0
63486.17645847457,168819.0
63486.186547442114,168825.0
63486.196636409666,168834.0
63486.20672537721,168871.0
63486.216814344756,168842.0
63486.22690331231,168816.0
63486.23699227985,168805.0
63486.2470812474,168730.0
63486.25717021495,168721.0
63486.267259182496,168677.0
63486.27734815004,168659.0
63486.28743711759,168562.0
63486.29752608514,168524.0
63486.30761505268,168484.0
63486.31770402023,168444.0
63486.32779298778,168453.0
63486.337881955325,168427.0
63486.34797092287,168376.0
63486.35805989042,168374.0
63486.36814885797,168359.0
63486.37823782551,168368.0
63486.388326793065,168331.0
63486.39841576061,168398.0
63486.408504728155,168335.0
63486.41859369571,168343.0
63486.42868266325,168314.0
63486.4387716308,168338.0
63486.44886059835,168335.0
63486.458949565895,168291.0
63486.46903853344,168320.0
63486.47912750099,168303.0
63486.48921646854,168317.0
63486.49930543608,168313.0
63486.50939440363,168307.0
63486.51948337118,168271.0
63486.529572338724,168334.0
63486.53966130627,168284.0
63486.54975027382,168315.0
63486.55983924137,168293.0
63486.56992820891,168271.0
63486.580017176464,168279.0
63486.59010614401,168293.0
63486.600195111554,168283.0
63486.610284079106,168306.0
63486.62037304665,168262.0
63486.6304620142,168274.0
63486.64055098175,168288.0
63486.650639949294,168264.0
63486.66072891684,168330.0
63486.67081788439,168325.0
63486.680906851936,168309.0
63486.69099581948,168312.0
63486.701084787026,168322.0
63486.71117375458,168354.0
63486.72126272212,168392.0
63486.73135168967,168387.0
63486.74144065722,168402.0
63486.751529624766,168397.0
63486.76161859231,168357.0
63486.77170755986,168375.0
63486.78179652741,168419.0
63486.79188549495,168427.0
63486.801974462505,168459.0
63486.81206343005,168461.0
63486.822152397595,168448.0
63486.83224136515,168462.0
63486.84233033269,168469.0
63486.85241930024,168441.0
63486.86250826778,168511.0
63486.872597235335,168491.0
63486.88268620288,168490.0
63486.892775170425,168499.0
63486.90286413798,168510.0
63486.91295310552,168518.0
63486.92304207307,168529.0
63486.93313104062,168511.0
63486.943220008165,168558.0
63486.95330897571,168558.0
63486.96339794326,168568.0
63486.97348691081,168580.0
63486.98357587835,168580.0
63486.993664845904,168628.0
63487.00375381345,168620.0
63487.013842780994,168635.0
63487.02393174855,168625.0
63487.03402071609,168572.0
63487.04410968364,168644.0
63487.05419865118,168627.0
63487.064287618734,168660.0
63487.07437658628,168685.0
63487.084465553824,168689.0
63487.094554521376,168681.0
63487.10464348892,168746.0
63487.114732456466,168735.0
63487.12482142402,168746.0
63487.13491039156,168805.0
63487.14499935911,168777.0
63487.15508832666,168763.0
63487.165177294206,168766.0
63487.17526626175,168766.0
63487.1853552293,168728.0
63487.19544419685,168729.0
63487.20553316439,168670.0
63487.215622131946,168632.0
63487.22571109949,168566.0
63487.235800067036,168492.0
63487.24588903458,168486.0
63487.25597800213,168436.0
63487.26606696968,168406.0
63487.27615593722,168405.0
63487.286244904775,168370.0
63487.29633387232,168323.0
63487.306422839865,168353.0
63487.31651180742,168303.0
63487.32660077496,168327.0
63487.33668974251,168320.0
63487.34677871006,168347.0
63487.356867677605,168308.0
63487.36695664515,168322.0
63487.3770456127,168329.0
63487.38713458025,168299.0
63487.39722354779,168323.0
63487.40731251534,168310.0
63487.41740148289,168282.0
63487.427490450435,168291.0
63487.43757941798,168264.0
63487.44766838553,168290.0
63487.45775735308,168285.0
63487.46784632062,168288.0
63487.477935288174,168298.0
63487.48802425572,168278.0
63487.498113223264,168294.0
63487.50820219082,168312.0
63487.51829115836,168255.0
63487.52838012591,168271.0
63487.53846909346,168272.0
63487.548558061004,168262.0
63487.55864702855,168236.0
63487.5687359961,168301.0
63487.578824963646,168268.0
63487.58891393119,168276.0
63487.599002898736,168285.0
63487.60909186629,168300.0
63487.61918083383,168311.0
63487.62926980138,168294.0
63487.63935876893,168338.0
63487.649447736476,168331.0
63487.65953670402,168358.0
63487.66962567157,168350.0
63487.67971463912,168387.0
63487.68980360666,168348.0
63487.699892574215,168385.0
63487.70998154176,168417.0
63487.720070509306,168427.0
63487.73015947686,168413.0
63487.7402484444,168441.0
63487.75033741195,168420.0
63487.76042637949,168416.0
63487.770515347045,168486.0
63487.78060431459,168453.0
63487.790693282135,168454.0
63487.80078224969,168434.0
63487.81087121723,168477.0
63487.82096018478,168479.0
63487.83104915233,168484.0
63487.841138119875,168489.0
63487.85122708742,168481.0
63487.86131605497,168499.0
63487.87140502252,168512.0
63487.88149399006,168538.0
63487.891582957614,168523.0
63487.90167192516,168549.0
63487.911760892704,168594.0
63487.92184986026,168592.0
63487.9319388278,168578.0
63487.94202779535,168598.0
63487.95211676289,168587.0
63487.962205730444,168589.0
63487.97229469799,168608.0
63487.982383665534,168626.0
63487.99247263309,168664.0
63488.00256160063,168638.0
63488.01265056818,168689.0
63488.02273953573,168667.0
63488.032828503274,168700.0
63488.04291747082,168710.0
63488.05300643837,168735.0
63488.063095405916,168710.0
63488.07318437346,168755.0
63488.08327334101,168729.0
63488.09336230856,168806.0
63488.1034512761,168753.0
63488.113540243656,168777.0
63488.1236292112,168761.0
63488.133718178746,168726.0
63488.14380714629,168720.0
63488.15389611384,168690.0
63488.16398508139,168678.0
63488.17407404893,168598.0
63488.184163016485,168596.0
63488.19425198403,168596.0
63488.204340951575,168537.0
63488.21442991913,168478.0
63488.22451888667,168469.0
63488.23460785422,168467.0
63488.24469682177,168398.0
63488.254785789315,168388.0
63488.26487475686,168407.0
63488.27496372441,168370.0
63488.28505269196,168392.0
63488.2951416595,168351.0
63488.305230627055,168411.0
63488.3153195946,168363.0
63488.325408562145,168386.0
63488.33549752969,168382.0
63488.34558649724,168345.0
63488.35567546479,168350.0
63488.36576443233,168376.0
63488.375853399884,168415.0
63488.38594236743,168372.0
63488.396031334974,168378.0
63488.40612030253,168384.0
63488.41620927007,168411.0
63488.42629823762,168424.0
63488.43638720517,168386.0
63488.446476172714,168391.0
63488.45656514026,168363.0
63488.46665410781,168392.0
63488.476743075356,168381.0
63488.4868320429,168351.0
63488.49692101045,168342.0
63488.507009978,168381.0
63488.517098945544,168336.0
63488.52718791309,168336.0
63488.53727688064,168353.0
63488.547365848186,168400.0
63488.55745481573,168349.0
63488.56754378328,168401.0
63488.57763275083,168402.0
63488.58772171837,168398.0
63488.597810685926,168394.0
63488.60789965347,168447.0
63488.617988621016,168442.0
63488.62807758857,168446.0
63488.63816655611,168465.0
63488.64825552366,168453.0
63488.65834449121,168458.0
63488.668433458755,168475.0
63488.6785224263,168512.0
63488.688611393845,168488.0
63488.6987003614,168536.0
63488.70878932894,168533.0
63488.71887829649,168556.0
63488.72896726404,168521.0
63488.739056231585,168558.0
63488.74914519913,168570.0
63488.75923416668,168566.0
63488.76932313423,168610.0
63488.77941210177,168572.0
63488.789501069325,168602.0
63488.79959003687,168590.0
63488.809679004415,168620.0
63488.81976797197,168625.0
63488.82985693951,168635.0
63488.83994590706,168648.0
63488.8500348746,168654.0
63488.860123842154,168663.0
63488.8702128097,168667.0
63488.880301777244,168713.0
63488.8903907448,168706.0
63488.90047971234,168705.0
63488.91056867989,168707.0
63488.92065764744,168744.0
63488.930746614984,168770.0
63488.94083558253,168763.0
63488.95092455008,168774.0
63488.961013517626,168779.0
63488.97110248517,168794.0
63488.98119145272,168798.0
63488.99128042027,168805.0
63489.00136938781,168826.0
63489.011458355366,168843.0
63489.02154732291,168871.0
63489.031636290456,168857.0
63489.041725258,168842.0
63489.05181422555,168894.0
63489.0619031931,168862.0
63489.07199216064,168896.0
63489.082081128196,168906.0
63489.09217009574,168881.0
63489.102259063286,168809.0
63489.11234803084,168797.0
63489.12243699838,168762.0
63489.13252596593,168735.0
63489.14261493348,168673.0
63489.152703901025,168638.0
63489.16279286857,168581.0
63489.17288183612,168547.0
63489.18297080367,168559.0
63489.19305977121,168545.0
63489.203148738765,168566.0
63489.21323770631,168498.0
63489.223326673855,168536.0
63489.2334156414,168502.0
63489.24350460895,168474.0
63489.2535935765,168472.0
63489.26368254404,168468.0
63489.273771511595,168479.0
63489.28386047914,168469.0
63489.293949446685,168476.0
63489.30403841424,168443.0
63489.31412738178,168427.0
63489.32421634933,168413.0
63489.33430531688,168474.0
63489.344394284424,168442.0
63489.35448325197,168465.0
63489.36457221952,168455.0
63489.37466118707,168445.0
63489.38475015461,168451.0
63489.394839122164,168465.0
63489.40492808971,168474.0
63489.415017057254,168436.0
63489.4251060248,168467.0
63489.43519499235,168445.0
63489.445283959896,168398.0
63489.45537292744,168414.0
63489.46546189499,168424.0
63489.47555086254,168451.0
63489.48563983008,168465.0
63489.495728797636,168485.0
63489.50581776518,168490.0
63489.515906732726,168483.0
63489.52599570028,168450.0
63489.53608466782,168501.0
63489.54617363537,168511.0
63489.55626260292,168522.0
63489.566351570465,168506.0
63489.57644053801,168512.0
63489.586529505556,168567.0
63489.59661847311,168577.0
63489.60670744065,168585.0
63489.6167964082,168568.0
63489.62688537575,168582.0
63489.636974343295,168591.0
63489.64706331084,168612.0
63489.65715227839,168615.0
63489.66724124594,168607.0
63489.67733021348,168641.0
63489.687419181035,168665.0
63489.69750814858,168666.0
63489.707597116125,168688.0
63489.71768608368,168688.0
63489.72777505122,168698.0
63489.73786401877,168684.0
63489.74795298632,168707.0
63489.758041953864,168748.0
63489.76813092141,168746.0
63489.778219888954,168783.0
63489.78830885651,168755.0
63489.79839782405,168786.0
63489.8084867916,168795.0
63489.81857575915,168755.0
63489.828664726694,168779.0
63489.83875369424,168817.0
63489.84884266179,168857.0
63489.85893162934,168835.0
63489.86902059688,168840.0
63489.879109564434,168867.0
63489.88919853198,168887.0
63489.899287499524,168889.0
63489.909376467076,168906.0
63489.91946543462,168930.0
63489.929554402166,168929.0
63489.93964336971,168928.0
63489.94973233726,168968.0
63489.95982130481,168959.0
63489.96991027235,168994.0
63489.979999239906,169047.0
63489.99008820745,169010.0
63490.000177174996,169034.0
63490.01026614255,169032.0
63490.02035511009,169066.0
63490.03044407764,169047.0
63490.04053304519,169095.0
63490.050622012735,169096.0
63490.06071098028,169097.0
63490.07079994783,169104.0
63490.08088891538,169129.0
63490.09097788292,169104.0
63490.101066850475,169080.0
63490.11115581802,169118.0
63490.121244785565,169044.0
63490.13133375311,168994.0
63490.14142272066,168975.0
63490.15151168821,168927.0
63490.16160065575,168948.0
63490.171689623305,168895.0
63490.18177859085,168858.0
63490.191867558395,168818.0
63490.20195652595,168833.0
63490.21204549349,168792.0
63490.22213446104,168811.0
63490.23222342859,168825.0
63490.242312396134,168807.0
63490.25240136368,168792.0
63490.26249033123,168769.0
63490.27257929878,168764.0
63490.28266826632,168784.0
63490.29275723387,168748.0
63490.30284620142,168753.0
63490.312935168964,168746.0
63490.32302413651,168770.0
63490.33311310406,168759.0
63490.343202071606,168780.0
63490.35329103915,168732.0
63490.363380006704,168791.0
63490.37346897425,168760.0
63490.383557941794,168772.0
63490.393646909346,168760.0
63490.40373587689,168781.0
63490.413824844436,168770.0
63490.42391381199,168768.0
63490.43400277953,168737.0
63490.44409174708,168746.0
63490.45418071463,168765.0
63490.464269682176,168756.0
63490.47435864972,168788.0
63490.484447617266,168768.0
63490.49453658482,168782.0
63490.50462555236,168785.0
63490.51471451991,168738.0
63490.52480348746,168765.0
63490.534892455005,168794.0
63490.54498142255,168794.0
63490.5550703901,168788.0
63490.56515935765,168825.0
63490.57524832519,168848.0
63490.585337292745,168858.0
63490.59542626029,168853.0
63490.605515227835,168863.0
63490.61560419539,168886.0
63490.62569316293,168917.0
63490.63578213048,168900.0
63490.64587109803,168926.0
63490.655960065575,168912.0
63490.66604903312,168956.0
63490.676138000665,168925.0
63490.68622696822,168943.0
63490.69631593576,168984.0
63490.70640490331,168963.0
63490.71649387086,168977.0
63490.726582838404,168953.0
63490.73667180595,169014.0
63490.7467607735,168990.0
63490.75684974105,169014.0
63490.76693870859,169030.0
63490.777027676144,169050.0
63490.78711664369,169009.0
63490.797205611234,169029.0
63490.807294578786,169075.0
63490.81738354633,169027.0
63490.827472513876,169088.0
63490.83756148143,169102.0
63490.84765044897,169110.0
63490.85773941652,169106.0
63490.86782838406,169148.0
63490.877917351616,169131.0
63490.88800631916,169129.0
63490.898095286706,169157.0
63490.90818425426,169161.0
63490.9182732218,169149.0
63490.92836218935,169146.0
63490.9384511569,169231.0
63490.948540124446,169208.0
63490.95862909199,169213.0
63490.96871805954,169232.0
63490.97880702709,169261.0
63490.98889599463,169283.0
63490.998984962185,169264.0
63491.00907392973,169306.0
63491.019162897275,169304.0
63491.02925186482,169297.0
63491.03934083237,169320.0
63491.04942979992,169334.0
63491.05951876746,169314.0
63491.069607735015,169354.0
63491.07969670256,169341.0
63491.089785670105,169320.0
63491.09987463766,169352.0
63491.1099636052,169288.0
63491.12005257275,169265.0
63491.1301415403,169257.0
63491.140230507845,169246.0
63491.15031947539,169179.0
63491.16040844294,169162.0
63491.17049741049,169121.0
63491.18058637803,169145.0
63491.190675345584,169059.0
63491.20076431313,169075.0
63491.210853280674,169070.0
63491.22094224822,169056.0
63491.23103121577,169036.0
63491.24112018332,169060.0
63491.25120915086,169041.0
63491.261298118414,169041.0
63491.27138708596,169052.0
63491.281476053504,169026.0
63491.291565021056,169037.0
63491.3016539886,169040.0
63491.311742956146,169046.0
63491.3218319237,168981.0
63491.33192089124,169053.0
63491.34200985879,169036.0
63491.35209882634,169079.0
63491.362187793886,169030.0
63491.37227676143,169060.0
63491.382365728976,169057.0
63491.39245469653,169027.0
63491.40254366407,169055.0
63491.41263263162,169037.0
63491.42272159917,169032.0
63491.432810566715,169025.0
63491.44289953426,169020.0
63491.45298850181,169046.0
63491.46307746936,169050.0
63491.4731664369,169010.0
63491.483255404455,169047.0
63491.493344372,169022.0
63491.503433339545,169050.0
63491.5135223071,169022.0
63491.52361127464,169070.0
63491.53370024219,169049.0
63491.54378920974,169059.0
63491.553878177285,169089.0
63491.56396714483,169060.0
63491.574056112375,169104.0
63491.58414507993,169051.0
63491.59423404747,169087.0
63491.60432301502,169104.0
63491.61441198257,169131.0
63491.624500950114,169117.0
63491.63458991766,169113.0
63491.64467888521,169143.0
63491.65476785276,169127.0
63491.6648568203,169167.0
63491.674945787854,169163.0
63491.6850347554,169206.0
63491.695123722944,169179.0
63491.7052126905,169207.0
63491.71530165804,169175.0
63491.72539062559,169222.0
63491.73547959314,169194.0
63491.745568560684,169221.0
63491.75565752823,169220.0
63491.765746495774,169205.0
63491.775835463326,169215.0
63491.78592443087,169262.0
63491.796013398416,169274.0
63491.80610236597,169238.0
63491.81619133351,169276.0
63491.82628030106,169285.0
63491.83636926861,169284.0
63491.846458236156,169272.0
63491.8565472037,169283.0
63491.86663617125,169306.0
63491.8767251388,169297.0
63491.88681410634,169359.0
63491.896903073895,169369.0
63491.90699204144,169360.0
63491.917081008985,169341.0
63491.92716997654,169394.0
63491.93725894408,169378.0
63491.94734791163,169396.0
63491.95743687917,169390.0
63491.967525846725,169433.0
63491.97761481427,169407.0
63491.987703781815,169436.0
63491.99779274937,169462.0
63492.00788171691,169423.0
63492.01797068446,169447.0
63492.02805965201,169442.0
63492.038148619555,169401.0
63492.0482375871,169375.0
63492.05832655465,169394.0
63492.0684155222,169347.0
63492.07850448974,169296.0
63492.088593457294,169264.0
63492.09868242484,169238.0
63492.108771392384,169234.0
63492.11886035993,169200.0
63492.12894932748,169229.0
63492.13903829503,169159.0
63492.14912726257,169179.0
63492.159216230124,169164.0
63492.16930519767,169132.0
63492.179394165214,169149.0
63492.189483132766,169157.0
63492.19957210031,169170.0
63492.209661067856,169186.0
63492.21975003541,169181.0
63492.229839002954,169183.0
63492.2399279705,169179.0
63492.25001693805,169123.0
63492.260105905596,169154.0
63492.27019487314,169147.0
63492.28028384069,169174.0
63492.29037280824,169169.0
63492.30046177578,169189.0
63492.31055074333,169163.0
63492.32063971088,169180.0
63492.330728678426,169164.0
63492.34081764597,169172.0
63492.35090661352,169165.0
63492.36099558107,169151.0
63492.37108454861,169130.0
63492.381173516165,169156.0
63492.39126248371,169112.0
63492.401351451255,169122.0
63492.41144041881,169138.0
63492.42152938635,169112.0
63492.4316183539,169164.0
63492.44170732145,169162.0
63492.451796288995,169154.0
63492.46188525654,169171.0
63492.471974224085,169148.0
63492.48206319164,169176.0
63492.49215215918,169201.0
63492.50224112673,169187.0
63492.51233009428,169209.0
63492.522419061825,169177.0
63492.53250802937,169215.0
63492.54259699692,169237.0
63492.55268596447,169224.0
63492.56277493201,169264.0
63492.572863899564,169250.0
63492.58295286711,169237.0
63492.593041834654,169249.0
63492.60313080221,169291.0
63492.61321976975,169258.0
63492.6233087373,169292.0
63492.63339770485,169298.0
63492.643486672394,169306.0
63492.65357563994,169287.0
63492.663664607484,169299.0
63492.673753575036,169304.0
63492.68384254258,169298.0
63492.693931510126,169331.0
63492.70402047768,169331.0
63492.71410944522,169372.0
63492.72419841277,169320.0
63492.73428738032,169365.0
63492.744376347866,169377.0
63492.75446531541,169402.0
63492.76455428296,169403.0
63492.77464325051,169394.0
63492.78473221805,169380.0
63492.794821185606,169374.0
63492.80491015315,169375.0
63492.814999120696,169416.0
63492.82508808825,169448.0
63492.83517705579,169471.0
63492.84526602334,169459.0
63492.85535499088,169456.0
63492.865443958435,169437.0
63492.87553292598,169429.0
63492.885621893525,169441.0
63492.89571086108,169420.0
63492.90579982862,169356.0
63492.91588879617,169339.0
63492.92597776372,169293.0
63492.936066731265,169255.0
63492.94615569881,169237.0
63492.95624466636,169216.0
63492.96633363391,169162.0
63492.97642260145,169144.0
63492.986511569005,169120.0
63492.99660053655,169091.0
63493.006689504095,169076.0
63493.01677847164,169094.0
63493.02686743919,169102.0
63493.03695640674,169065.0
63493.04704537428,169099.0
63493.057134341834,169096.0
63493.06722330938,169040.0
63493.077312276924,169034.0
63493.08740124448,169078.0
63493.09749021202,169067.0
63493.10757917957,169061.0
63493.11766814712,169056.0
63493.127757114664,169096.0
63493.13784608221,169065.0
63493.14793504976,169059.0
63493.158024017306,169058.0
63493.16811298485,169040.0
63493.1782019524,169068.0
63493.18829091995,169067.0
63493.19837988749,169060.0
63493.20846885504,169035.0
63493.21855782259,169029.0
63493.228646790136,169049.0
63493.23873575768,168986.0
63493.24882472523,169011.0
63493.25891369278,169011.0
63493.26900266032,169046.0
63493.279091627875,169042.0
63493.28918059542,169066.0
63493.299269562965,169032.0
63493.30935853052,169059.0
63493.31944749806,169060.0
63493.32953646561,169067.0
63493.33962543316,169050.0
63493.349714400705,169083.0
63493.35980336825,169062.0
63493.3698923358,169090.0
63493.37998130335,169075.0
63493.39007027089,169118.0
63493.40015923844,169158.0
63493.41024820599,169155.0
63493.420337173535,169107.0
63493.43042614108,169163.0
63493.44051510863,169176.0
63493.45060407618,169154.0
63493.46069304372,169151.0
63493.470782011274,169178.0
63493.48087097882,169166.0
63493.490959946364,169235.0
63493.50104891392,169198.0
63493.51113788146,169196.0
63493.52122684901,169215.0
63493.53131581656,169195.0
63493.541404784104,169244.0
63493.55149375165,169231.0
63493.561582719194,169206.0
63493.57167168675,169247.0
63493.58176065429,169228.0
63493.59184962184,169270.0
63493.60193858939,169268.0
63493.612027556934,169265.0
63493.62211652448,169258.0
63493.63220549203,169282.0
63493.642294459576,169278.0
63493.65238342712,169327.0
63493.66247239467,169302.0
63493.67256136222,169325.0
63493.68265032976,169321.0
63493.692739297316,169340.0
63493.70282826486,169310.0
63493.712917232406,169350.0
63493.72300619996,169326.0
63493.7330951675,169291.0
63493.74318413505,169254.0
63493.75327310259,169234.0
63493.763362070145,169205.0
63493.77345103769,169186.0
63493.783540005235,169128.0
63493.79362897279,169092.0
63493.80371794033,169037.0
63493.81380690788,168990.0
63493.82389587543,169000.0
63493.833984842975,168940.0
63493.84407381052,168946.0
63493.85416277807,168973.0
63493.86425174562,168911.0
63493.87434071316,168881.0
63493.884429680715,168890.0
63493.89451864826,168902.0
63493.904607615805,168855.0
63493.91469658335,168876.0
63493.9247855509,168857.0
63493.93487451845,168838.0
63493.94496348599,168836.0
63493.955052453544,168862.0
63493.96514142109,168834.0
63493.975230388634,168845.0
63493.98531935619,168798.0
63493.99540832373,168833.0
63494.00549729128,168825.0
63494.01558625883,168821.0
63494.025675226374,168834.0
63494.03576419392,168813.0
63494.04585316147,168807.0
63494.055942129016,168840.0
63494.06603109656,168817.0
63494.076120064114,168791.0
63494.08620903166,168799.0
63494.096297999204,168791.0
63494.10638696675,168801.0
63494.1164759343,168785.0
63494.126564901846,168769.0
63494.13665386939,168788.0
63494.14674283694,168768.0
63494.15683180449,168815.0
63494.16692077203,168801.0
63494.177009739586,168801.0
63494.18709870713,168823.0
63494.197187674676,168852.0
63494.20727664223,168838.0
63494.21736560977,168848.0
63494.22745457732,168886.0
63494.23754354487,168852.0
63494.247632512415,168865.0
63494.25772147996,168891.0
63494.26781044751,168899.0
63494.27789941506,168864.0
63494.2879883826,168933.0
63494.29807735015,168915.0
63494.3081663177,168923.0
63494.318255285245,168924.0
63494.32834425279,168952.0
63494.33843322034,168934.0
63494.34852218789,168906.0
63494.35861115543,168984.0
63494.368700122985,168939.0
63494.37878909053,168982.0
63494.388878058075,168985.0
63494.39896702563,168981.0
63494.40905599317,168972.0
63494.41914496072,168988.0
63494.42923392827,169013.0
63494.439322895814,169015.0
63494.44941186336,169003.0
63494.45950083091,169020.0
63494.46958979846,169054.0
63494.479678766,169005.0
63494.48976773355,169069.0
63494.4998567011,169060.0
63494.509945668644,169029.0
63494.52003463619,169056.0
63494.53012360374,169074.0
63494.540212571286,169076.0
63494.55030153883,169091.0
63494.56039050638,169127.0
63494.57047947393,169115.0
63494.58056844147,169112.0
63494.590657409026,169084.0
63494.60074637657,169039.0
63494.610835344116,169018.0
63494.62092431167,168994.0
63494.63101327921,168953.0
63494.64110224676,168909.0
63494.6511912143,168817.0
63494.661280181856,168790.0
63494.6713691494,168786.0
63494.681458116946,168717.0
63494.6915470845,168727.0
63494.70163605204,168710.0
63494.71172501959,168692.0
63494.72181398714,168655.0
63494.731902954685,168678.0
63494.74199192223,168654.0
63494.75208088978,168653.0
63494.76216985733,168654.0
63494.77225882487,168648.0
63494.782347792425,168602.0
63494.79243675997,168618.0
63494.802525727515,168568.0
63494.81261469507,168609.0
63494.82270366261,168602.0
63494.83279263016,168605.0
63494.8428815977,168600.0
63494.852970565255,168581.0
63494.8630595328,168593.0
63494.873148500345,168607.0
63494.8832374679,168631.0
63494.89332643544,168597.0
63494.90341540299,168618.0
63494.91350437054,168587.0
63494.923593338084,168525.0
63494.93368230563,168560.0
63494.94377127318,168606.0
63494.95386024073,168560.0
63494.96394920827,168547.0
63494.974038175824,168605.0
63494.98412714337,168544.0
63494.994216110914,168580.0
63495.00430507846,168549.0
63495.01439404601,168557.0
63495.024483013556,168593.0
63495.0345719811,168597.0
63495.04466094865,168616.0
63495.0547499162,168563.0
63495.06483888374,168594.0
63495.074927851296,168623.0
63495.08501681884,168674.0
63495.095105786386,168651.0
63495.10519475394,168697.0
63495.11528372148,168679.0
63495.12537268903,168667.0
63495.13546165658,168658.0
63495.145550624125,168717.0
63495.15563959167,168711.0
63495.16572855922,168688.0
63495.17581752677,168725.0
63495.18590649431,168714.0
63495.19599546186,168721.0
63495.20608442941,168696.0
63495.216173396955,168782.0
63495.2262623645,168764.0
63495.23635133205,168761.0
63495.2464402996,168764.0
63495.25652926714,168812.0
63495.266618234695,168764.0
63495.27670720224,168823.0
63495.286796169785,168821.0
63495.29688513734,168829.0
63495.30697410488,168855.0
63495.31706307243,168818.0
63495.32715203998,168826.0
63495.337241007524,168821.0
63495.34732997507,168877.0
63495.35741894262,168885.0
63495.36750791017,168889.0
63495.37759687771,168871.0
63495.38768584526,168945.0
63495.39777481281,168914.0
63495.407863780354,168926.0
63495.4179527479,168944.0
63495.42804171545,168953.0
63495.438130683,168959.0
63495.44821965054,168984.0
63495.458308618094,169026.0
63495.46839758564,168975.0
63495.478486553184,169008.0
63495.488575520736,169017.0
63495.49866448828,168994.0
63495.508753455826,169009.0
63495.51884242338,168969.0
63495.52893139092,168917.0
63495.53902035847,168863.0
63495.54910932602,168823.0
63495.559198293566,168796.0
63495.56928726111,168744.0
63495.579376228656,168689.0
63495.58946519621,168714.0
63495.59955416375,168627.0
63495.6096431313,168617.0
63495.61973209885,168609.0
63495.629821066395,168586.0
63495.63991003394,168571.0
63495.64999900149,168599.0
63495.66008796904,168618.0
63495.67017693658,168575.0
63495.680265904135,168570.0
63495.69035487168,168571.0
63495.700443839225,168577.0
63495.71053280678,168565.0
63495.72062177432,168572.0
63495.73071074187,168551.0
63495.74079970941,168548.0
63495.750888676965,168529.0
63495.76097764451,168570.0
63495.771066612055,168540.0
63495.78115557961,168571.0
63495.79124454715,168563.0
63495.8013335147,168564.0
63495.81142248225,168546.0
63495.821511449794,168544.0
63495.83160041734,168545.0
63495.84168938489,168522.0
63495.85177835244,168538.0
63495.86186731998,168551.0
63495.871956287534,168492.0
63495.88204525508,168483.0
63495.892134222624,168496.0
63495.902223190176,168527.0
63495.91231215772,168508.0
63495.922401125266,168545.0
63495.93249009281,168502.0
63495.942579060364,168548.0
63495.95266802791,168525.0
63495.962756995454,168545.0
63495.972845963006,168590.0
63495.98293493055,168591.0
63495.993023898096,168622.0
63496.00311286565,168604.0
63496.01320183319,168617.0
63496.02329080074,168634.0
63496.03337976829,168663.0
63496.043468735836,168636.0
63496.05355770338,168627.0
63496.06364667093,168672.0
63496.07373563848,168653.0
63496.08382460602,168664.0
63496.09391357357,168667.0
63496.10400254112,168701.0
63496.114091508665,168705.0
63496.12418047621,168695.0
63496.13426944376,168694.0
63496.14435841131,168705.0
63496.15444737885,168684.0
63496.164536346405,168703.0
63496.17462531395,168761.0
63496.184714281495,168741.0
63496.19480324905,168726.0
63496.20489221659,168793.0
63496.21498118414,168743.0
63496.22507015169,168775.0
63496.235159119235,168741.0
63496.24524808678,168790.0
63496.25533705433,168773.0
63496.26542602188,168808.0
63496.27551498942,168790.0
63496.28560395697,168819.0
63496.29569292452,168809.0
63496.305781892064,168874.0
63496.31587085961,168872.0
63496.32595982716,168868.0
63496.33604879471,168888.0
63496.34613776225,168920.0
63496.356226729804,168914.0
63496.36631569735,168910.0
63496.376404664894,168956.0
63496.386493632446,168922.0
63496.39658259999,168885.0
63496.406671567536,168877.0
63496.41676053509,168874.0
63496.42684950263,168833.0
63496.43693847018,168793.0
63496.44702743773,168749.0
63496.457116405276,168694.0
63496.46720537282,168688.0
63496.477294340366,168643.0
63496.48738330792,168648.0
63496.49747227546,168618.0
63496.50756124301,168602.0
63496.51765021056,168584.0
63496.527739178106,168547.0
63496.53782814565,168576.0
63496.5479171132,168567.0
63496.55800608075,168576.0
63496.56809504829,168570.0
63496.578184015845,168549.0
63496.58827298339,168588.0
63496.598361950935,168565.0
63496.60845091849,168594.0
63496.61853988603,168559.0
63496.62862885358,168604.0
63496.63871782112,168597.0
63496.648806788675,168575.0
63496.65889575622,168586.0
63496.668984723765,168575.0
63496.67907369132,168569.0
63496.68916265886,168568.0
63496.69925162641,168559.0
63496.70934059396,168566.0
63496.719429561505,168576.0
63496.72951852905,168564.0
63496.7396074966,168552.0
63496.74969646415,168581.0
63496.75978543169,168557.0
63496.769874399244,168522.0
63496.77996336679,168548.0
63496.790052334334,168551.0
63496.80014130189,168509.0
63496.81023026943,168558.0
63496.82031923698,168547.0
63496.83040820452,168605.0
63496.840497172074,168566.0
63496.85058613962,168609.0
63496.860675107164,168600.0
63496.870764074716,168629.0
63496.88085304226,168619.0
63496.890942009806,168644.0
63496.90103097736,168635.0
63496.9111199449,168635.0
63496.92120891245,168642.0
63496.93129788,168657.0
63496.941386847546,168708.0
63496.95147581509,168666.0
63496.96156478264,168725.0
63496.97165375019,168708.0
63496.98174271773,168719.0
63496.991831685285,168735.0
63497.00192065283,168743.0
63497.012009620375,168741.0
63497.02209858792,168732.0
63497.03218755547,168795.0
63497.04227652302,168736.0
63497.05236549056,168771.0
63497.062454458115,168771.0
63497.07254342566,168771.0
63497.082632393205,168752.0
63497.09272136076,168793.0
63497.1028103283,168791.0
63497.11289929585,168805.0
63497.1229882634,168789.0
63497.133077230945,168847.0
63497.14316619849,168867.0
63497.15325516604,168844.0
63497.16334413359,168888.0
63497.17343310113,168893.0
63497.18352206868,168898.0
63497.19361103623,168873.0
63497.203700003774,168948.0
63497.21378897132,168911.0
63497.22387793887,168889.0
63497.23396690642,168909.0
63497.24405587396,168895.0
63497.254144841514,168839.0
63497.26423380906,168813.0
63497.274322776604,168775.0
63497.28441174416,168712.0
63497.2945007117,168681.0
63497.30458967925,168615.0
63497.3146786468,168624.0
63497.324767614344,168565.0
63497.33485658189,168602.0
63497.34494554944,168538.0
63497.355034516986,168533.0
63497.36512348453,168530.0
63497.375212452076,168512.0
63497.38530141963,168518.0
63497.39539038717,168492.0
63497.40547935472,168532.0
63497.41556832227,168531.0
63497.425657289816,168499.0
63497.43574625736,168518.0
63497.44583522491,168516.0
63497.45592419246,168495.0
63497.46601316,168501.0
63497.476102127555,168527.0
63497.4861910951,168490.0
63497.496280062645,168500.0
63497.5063690302,168495.0
63497.51645799774,168511.0
63497.52654696529,168479.0
63497.53663593283,168504.0
63497.546724900385,168487.0
63497.55681386793,168484.0
63497.566902835475,168468.0
63497.57699180303,168480.0
63497.58708077057,168470.0
63497.59716973812,168431.0
63497.60725870567,168478.0
63497.617347673215,168473.0
63497.62743664076,168474.0
63497.63752560831,168460.0
63497.64761457586,168510.0
63497.6577035434,168495.0
63497.667792510954,168503.0
63497.6778814785,168525.0
63497.687970446044,168543.0
63497.6980594136,168537.0
63497.70814838114,168543.0
63497.71823734869,168575.0
63497.72832631623,168561.0
63497.738415283784,168570.0
63497.74850425133,168591.0
63497.758593218874,168626.0
63497.768682186426,168575.0
63497.77877115397,168640.0
63497.788860121516,168629.0
63497.79894908907,168632.0
63497.809038056614,168612.0
63497.81912702416,168669.0
63497.82921599171,168636.0
63497.839304959256,168675.0
63497.8493939268,168708.0
63497.85948289435,168680.0
63497.8695718619,168673.0
63497.87966082944,168697.0
63497.889749796996,168723.0
63497.89983876454,168698.0
63497.909927732086,168724.0
63497.92001669963,168742.0
63497.93010566718,168744.0
63497.94019463473,168750.0
63497.95028360227,168765.0
63497.960372569825,168782.0
63497.97046153737,168790.0
63497.980550504915,168802.0
63497.99063947247,168816.0
63498.00072844001,168784.0
63498.01081740756,168830.0
63498.02090637511,168833.0
63498.030995342655,168842.0
63498.0410843102,168863.0
63498.05117327775,168877.0
63498.0612622453,168921.0
63498.07135121284,168884.0
63498.081440180395,168901.0
63498.09152914794,168905.0
63498.101618115485,168857.0
63498.11170708303,168854.0
63498.12179605058,168808.0
63498.13188501813,168785.0
63498.14197398567,168698.0
63498.152062953224,168651.0
63498.16215192077,168642.0
63498.172240888314,168657.0
63498.18232985587,168554.0
63498.19241882341,168548.0
63498.20250779096,168524.0
63498.21259675851,168521.0
63498.222685726054,168471.0
63498.2327746936,168489.0
63498.24286366115,168472.0
63498.252952628696,168458.0
63498.26304159624,168502.0
63498.273130563786,168408.0
63498.28321953134,168433.0
63498.29330849888,168435.0
63498.30339746643,168433.0
63498.31348643398,168411.0
63498.323575401526,168409.0
63498.33366436907,168407.0
63498.34375333662,168381.0
63498.35384230417,168373.0
63498.36393127171,168425.0
63498.374020239266,168408.0
63498.38410920681,168384.0
63498.394198174356,168423.0
63498.40428714191,168397.0
63498.41437610945,168379.0
63498.424465077,168357.0
63498.43455404455,168410.0
63498.444643012095,168387.0
63498.45473197964,168382.0
63498.464820947185,168363.0
63498.47490991474,168360.0
63498.48499888228,168353.0
63498.49508784983,168389.0
63498.50517681738,168380.0
63498.515265784925,168378.0
63498.52535475247,168410.0
63498.53544372002,168426.0
63498.54553268757,168421.0
63498.55562165511,168378.0
63498.565710622664,168456.0
63498.57579959021,168442.0
63498.585888557755,168452.0
63498.59597752531,168493.0
63498.60606649285,168474.0
63498.6161554604,168502.0
63498.62624442794,168481.0
63498.636333395494,168520.0
63498.64642236304,168500.0
63498.656511330584,168530.0
63498.66660029814,168515.0
63498.67668926568,168507.0
63498.68677823323,168517.0
63498.69686720078,168575.0
63498.706956168324,168602.0
63498.71704513587,168567.0
63498.72713410342,168593.0
63498.737223070966,168613.0
63498.74731203851,168634.0
63498.75740100606,168583.0
63498.76748997361,168630.0
63498.77757894115,168635.0
63498.787667908706,168629.0
63498.79775687625,168646.0
63498.807845843796,168638.0
63498.81793481134,168667.0
63498.82802377889,168646.0
63498.83811274644,168706.0
63498.84820171398,168727.0
63498.858290681535,168692.0
63498.86837964908,168736.0
63498.878468616625,168758.0
63498.88855758418,168739.0
63498.89864655172,168789.0
63498.90873551927,168778.0
63498.91882448682,168800.0
63498.928913454365,168778.0
63498.93900242191,168820.0
63498.94909138946,168810.0
63498.95918035701,168815.0
63498.96926932455,168825.0
63498.979358292105,168891.0
63498.98944725965,168860.0
63498.999536227195,168887.0
63499.00962519474,168849.0
63499.01971416229,168840.0
63499.02980312984,168830.0
63499.03989209738,168809.0
63499.049981064934,168779.0
63499.06007003248,168709.0
63499.070159000024,168675.0
63499.08024796758,168641.0
63499.09033693512,168618.0
63499.10042590267,168595.0
63499.11051487022,168531.0
63499.120603837764,168516.0
63499.13069280531,168489.0
63499.14078177286,168495.0
63499.15087074041,168469.0
63499.16095970795,168436.0
63499.171048675504,168423.0
63499.18113764305,168464.0
63499.191226610594,168441.0
63499.20131557814,168465.0
63499.21140454569,168450.0
63499.221493513236,168421.0
63499.23158248078,168421.0
63499.24167144833,168401.0
63499.25176041588,168415.0
63499.26184938342,168420.0
63499.271938350976,168407.0
63499.28202731852,168411.0
63499.292116286066,168445.0
63499.30220525362,168386.0
63499.31229422116,168431.0
63499.32238318871,168438.0
63499.33247215626,168382.0
63499.342561123805,168414.0
63499.35265009135,168411.0
63499.362739058895,168412.0
63499.37282802645,168375.0
63499.38291699399,168380.0
63499.39300596154,168428.0
63499.40309492909,168399.0
63499.413183896635,168422.0
63499.42327286418,168427.0
63499.43336183173,168403.0
63499.44345079928,168423.0
63499.45353976682,168431.0
63499.463628734375,168468.0
63499.47371770192,168423.0
63499.483806669465,168458.0
63499.49389563702,168455.0
63499.50398460456,168467.0
63499.51407357211,168498.0
63499.52416253966,168509.0
63499.534251507204,168465.0
63499.54434047475,168543.0
63499.554429442294,168549.0
63499.56451840985,168553.0
63499.57460737739,168591.0
63499.58469634494,168556.0
63499.59478531249,168624.0
63499.604874280034,168574.0
63499.61496324758,168582.0
63499.62505221513,168641.0
63499.635141182676,168607.0
63499.64523015022,168634.0
63499.65531911777,168635.0
63499.66540808532,168670.0
63499.675497052864,168688.0
63499.685586020416,168678.0
63499.69567498796,168681.0
63499.705763955506,168699.0
63499.71585292305,168688.0
63499.7259418906,168728.0
63499.73603085815,168723.0
63499.74611982569,168715.0
63499.756208793246,168721.0
63499.76629776079,168764.0
63499.776386728336,168787.0
63499.78647569589,168909.0
63499.79656466343,168934.0
63499.80665363098,168910.0
63499.81674259853,168951.0
63499.826831566075,168969.0
63499.83692053362,168998.0
63499.84700950117,168960.0
63499.85709846872,169000.0
63499.86718743626,169013.0
63499.877276403815,169004.0
63499.88736537136,169009.0
63499.897454338905,169039.0
63499.90754330645,168998.0
63499.917632274,168956.0
63499.92772124155,168958.0
63499.93781020909,168891.0
63499.947899176645,168850.0
63499.95798814419,168799.0
63499.968077111735,168738.0
63499.97816607929,168710.0
63499.98825504683,168703.0
63499.99834401438,168671.0
63500.00843298193,168643.0
63500.018521949474,168647.0
63500.02861091702,168618.0
63500.03869988457,168598.0
63500.04878885212,168648.0
63500.05887781966,168589.0
63500.068966787214,168632.0
63500.07905575476,168598.0
63500.089144722304,168600.0
63500.09923368985,168575.0
63500.1093226574,168612.0
63500.119411624946,168586.0
63500.12950059249,168634.0
63500.13958956004,168632.0
63500.14967852759,168617.0
63500.15976749513,168578.0
63500.169856462686,168589.0
63500.17994543023,168602.0
63500.190034397776,168611.0
63500.20012336533,168609.0
63500.21021233287,168609.0
63500.22030130042,168631.0
63500.23039026797,168610.0
63500.240479235516,168608.0
63500.25056820306,168629.0
63500.260657170606,168580.0
63500.27074613816,168598.0
63500.2808351057,168583.0
63500.29092407325,168576.0
63500.3010130408,168568.0
63500.311102008345,168575.0
63500.32119097589,168600.0
63500.33127994344,168651.0
63500.34136891099,168627.0
63500.35145787853,168655.0
63500.361546846085,168658.0
63500.37163581363,168659.0
63500.381724781175,168677.0
63500.39181374873,168690.0
63500.40190271627,168692.0
63500.41199168382,168689.0
63500.42208065137,168729.0
63500.432169618914,168680.0
63500.44225858646,168741.0
63500.452347554005,168760.0
63500.46243652156,168760.0
63500.4725254891,168746.0
63500.48261445665,168779.0
63500.4927034242,168806.0
63500.502792391744,168800.0
63500.51288135929,168799.0
63500.52297032684,168813.0
63500.53305929439,168841.0
63500.54314826193,168856.0
63500.553237229484,168866.0
63500.56332619703,168817.0
63500.573415164574,168822.0
63500.583504132126,168869.0
63500.59359309967,168895.0
63500.603682067216,168875.0
63500.61377103477,168899.0
63500.62386000231,168871.0
63500.63394896986,168923.0
63500.6440379374,168916.0
63500.654126904956,168937.0
63500.6642158725,168969.0
63500.674304840046,168927.0
63500.6843938076,168970.0
63500.69448277514,168973.0
63500.70457174269,168963.0
63500.71466071024,168985.0
63500.724749677785,168995.0
63500.73483864533,169031.0
63500.74492761288,169055.0
63500.75501658043,169058.0
63500.76510554797,169047.0
63500.775194515525,169050.0
63500.78528348307,169093.0
63500.795372450615,169100.0
63500.80546141816,169071.0
63500.81555038571,169105.0
63500.82563935326,169107.0
63500.8357283208,169107.0
63500.845817288355,169124.0
63500.8559062559,169128.0
63500.865995223445,169145.0
63500.876084191,169079.0
63500.88617315854,169086.0
63500.89626212609,169026.0
63500.90635109364,168948.0
63500.916440061184,168944.0
63500.92652902873,168897.0
63500.93661799628,168887.0
63500.94670696383,168846.0
63500.95679593137,168848.0
63500.966884898924,168838.0
63500.97697386647,168785.0
63500.987062834014,168768.0
63500.99715180156,168797.0
63501.00724076911,168766.0
63501.01732973666,168788.0
63501.0274187042,168787.0
63501.037507671754,168782.0
63501.0475966393,168759.0
63501.057685606844,168797.0
63501.067774574396,168795.0
63501.07786354194,168780.0
63501.087952509486,168806.0
63501.09804147704,168834.0
63501.10813044458,168808.0
63501.11821941213,168798.0
63501.12830837968,168795.0
63501.138397347226,168827.0
63501.14848631477,168805.0
63501.158575282316,168836.0
63501.16866424987,168834.0
63501.17875321741,168819.0
63501.18884218496,168769.0
63501.19893115251,168802.0
63501.209020120055,168781.0
63501.2191090876,168788.0
63501.22919805515,168811.0
63501.2392870227,168790.0
63501.24937599024,168764.0
63501.259464957795,168794.0
63501.26955392534,168796.0
63501.279642892885,168821.0
63501.28973186044,168808.0
63501.29982082798,168821.0
63501.30990979553,168830.0
63501.31999876308,168808.0
63501.330087730625,168804.0
63501.34017669817,168841.0
63501.350265665715,168874.0
63501.36035463327,168867.0
63501.37044360081,168905.0
63501.38053256836,168869.0
63501.39062153591,168916.0
63501.400710503454,168902.0
63501.410799471,168958.0
63501.42088843855,168928.0
63501.4309774061,168950.0
63501.44106637364,168950.0
63501.451155341194,168946.0
63501.46124430874,168943.0
63501.471333276284,168994.0
63501.481422243836,169025.0
63501.49151121138,168969.0
63501.501600178926,169016.0
63501.51168914648,169010.0
63501.52177811402,169003.0
63501.53186708157,169011.0
63501.541956049114,169053.0
63501.552045016666,169065.0
63501.56213398421,169046.0
63501.572222951756,169054.0
63501.58231191931,169102.0
63501.59240088685,169091.0
63501.6024898544,169072.0
63501.61257882195,169089.0
63501.622667789496,169127.0
63501.63275675704,169099.0
63501.64284572459,169127.0
63501.65293469214,169161.0
63501.66302365968,169111.0
63501.673112627235,169164.0
63501.68320159478,169204.0
63501.693290562325,169175.0
63501.70337952988,169189.0
63501.71346849742,169205.0
63501.72355746497,169234.0
63501.73364643251,169239.0
63501.743735400065,169246.0
63501.75382436761,169251.0
63501.763913335155,169225.0
63501.77400230271,169261.0
63501.78409127025,169280.0
63501.7941802378,169251.0
63501.80426920535,169212.0
63501.814358172895,169192.0
63501.82444714044,169164.0
63501.83453610799,169099.0
63501.84462507554,169078.0
63501.85471404308,169051.0
63501.864803010634,169003.0
63501.87489197818,168960.0
63501.884980945724,168932.0
63501.89506991327,168914.0
63501.90515888082,168882.0
63501.91524784837,168898.0
63501.92533681591,168865.0
63501.935425783464,168833.0
63501.94551475101,168862.0
63501.955603718554,168875.0
63501.965692686106,168866.0
63501.97578165365,168853.0
63501.985870621196,168884.0
63501.99595958875,168853.0
63502.00604855629,168873.0
63502.01613752384,168860.0
63502.02622649139,168849.0
63502.036315458936,168816.0
63502.04640442648,168867.0
63502.05649339403,168859.0
63502.06658236158,168881.0
63502.07667132912,168875.0
63502.08676029667,168865.0
63502.09684926422,168884.0
63502.106938231766,168820.0
63502.11702719931,168847.0
63502.12711616686,168853.0
63502.13720513441,168834.0
63502.14729410195,168820.0
63502.157383069505,168843.0
63502.16747203705,168862.0
63502.177561004595,168842.0
63502.18764997215,168871.0
63502.19773893969,168855.0
63502.20782790724,168858.0
63502.21791687479,168820.0
63502.228005842335,168839.0
63502.23809480988,168906.0
63502.248183777425,168897.0
63502.25827274498,168881.0
63502.26836171252,168923.0
63502.27845068007,168876.0
63502.28853964762,168918.0
63502.298628615164,168931.0
63502.30871758271,168910.0
63502.31880655026,168926.0
63502.32889551781,168960.0
63502.33898448535,168973.0
63502.349073452904,168971.0
63502.35916242045,168960.0
63502.369251387994,169032.0
63502.37934035555,169019.0
63502.38942932309,169012.0
63502.39951829064,169056.0
63502.40960725819,169004.0
63502.419696225734,169047.0
63502.42978519328,169062.0
63502.439874160824,169089.0
63502.449963128376,169041.0
63502.46005209592,169084.0
63502.470141063466,169067.0
63502.48023003102,169055.0
63502.49031899856,169073.0
63502.50040796611,169118.0
63502.51049693366,169116.0
63502.520585901206,169119.0
63502.53067486875,169148.0
63502.5407638363,169136.0
63502.55085280385,169186.0
63502.56094177139,169126.0
63502.571030738945,169188.0
63502.58111970649,169170.0
63502.591208674035,169189.0
63502.60129764159,169202.0
63502.61138660913,169200.0
63502.62147557668,169229.0
63502.63156454422,169222.0
63502.641653511775,169267.0
63502.65174247932,169244.0
63502.661831446865,169260.0
63502.67192041442,169270.0
63502.68200938196,169268.0
63502.69209834951,169316.0
63502.70218731706,169336.0
63502.712276284605,169321.0
63502.72236525215,169309.0
63502.7324542197,169334.0
63502.74254318725,169329.0
63502.75263215479,169339.0
63502.762721122344,169301.0
63502.77281008989,169305.0
63502.782899057434,169222.0
63502.79298802499,169204.0
63502.80307699253,169160.0
63502.81316596008,169067.0
63502.82325492762,169059.0
63502.833343895174,169022.0
63502.84343286272,169014.0
63502.853521830264,168973.0
63502.86361079782,168944.0
63502.87369976536,168949.0
63502.88378873291,168968.0
63502.89387770046,168899.0
63502.903966668004,168923.0
63502.91405563555,168923.0
63502.9241446031,168914.0
63502.934233570646,168879.0
63502.94432253819,168873.0
63502.95441150574,168902.0
63502.96450047329,168890.0
63502.97458944083,168903.0
63502.98467840838,168857.0
63502.99476737593,168886.0
63503.004856343476,168899.0
63503.01494531102,168877.0
63503.02503427857,168923.0
63503.03512324612,168892.0
63503.04521221366,168908.0
63503.055301181215,168887.0
63503.06539014876,168904.0
63503.075479116305,168898.0
63503.08556808386,168874.0
63503.0956570514,168895.0
63503.10574601895,168844.0
63503.1158349865,168869.0
63503.125923954045,168863.0
63503.13601292159,168875.0
63503.14610188914,168864.0
63503.15619085669,168876.0
63503.16627982423,168872.0
63503.17636879178,168855.0
63503.18645775933,168859.0
63503.196546726875,168909.0
63503.20663569442,168906.0
63503.21672466197,168904.0
63503.22681362952,168915.0
63503.23690259706,168921.0
63503.246991564614,168926.0
63503.25708053216,168921.0
63503.267169499704,168987.0
63503.27725846726,168985.0
63503.2873474348,169015.0
63503.29743640235,169013.0
63503.3075253699,169023.0
63503.317614337444,169043.0
63503.32770330499,169020.0
63503.337792272534,169070.0
63503.347881240086,169076.0
63503.35797020763,169063.0
63503.368059175176,169036.0
63503.37814814273,169053.0
63503.38823711027,169066.0
63503.39832607782,169073.0
63503.40841504537,169095.0
63503.418504012916,169124.0
63503.42859298046,169115.0
63503.43868194801,169098.0
63503.44877091556,169146.0
63503.4588598831,169119.0
63503.468948850656,169170.0
63503.4790378182,169140.0
63503.489126785746,169178.0
63503.4992157533,169132.0
63503.50930472084,169168.0
63503.51939368839,169190.0
63503.52948265593,169187.0
63503.539571623485,169207.0
63503.54966059103,169229.0
63503.559749558575,169214.0
63503.56983852613,169247.0
63503.57992749367,169275.0
63503.59001646122,169268.0
63503.60010542877,169291.0
63503.610194396315,169273.0
63503.62028336386,169305.0
63503.63037233141,169304.0
63503.64046129896,169358.0
63503.6505502665,169331.0
63503.660639234055,169326.0
63503.6707282016,169355.0
63503.680817169145,169365.0
63503.69090613669,169374.0
63503.70099510424,169362.0
63503.71108407179,169381.0
63503.72117303933,169376.0
63503.731262006884,169398.0
63503.74135097443,169389.0
63503.751439941974,169385.0
63503.76152890953,169325.0
63503.77161787707,169279.0
63503.78170684462,169268.0
63503.79179581217,169193.0
63503.801884779714,169166.0
63503.81197374726,169142.0
63503.82206271481,169101.0
63503.832151682356,169103.0
63503.8422406499,169041.0
63503.85232961745,169042.0
63503.862418585,169000.0
63503.87250755254,169009.0
63503.88259652009,169017.0
63503.89268548764,168982.0
63503.902774455186,169017.0
63503.91286342273,168945.0
63503.92295239028,169006.0
63503.93304135783,169030.0
63503.94313032537,169008.0
63503.953219292925,169012.0
63503.96330826047,168986.0
63503.973397228016,169009.0
63503.98348619557,169011.0
63503.99357516311,169007.0
63504.00366413066,168980.0
63504.01375309821,169003.0
63504.023842065755,169008.0
63504.0339310333,169018.0
63504.04402000085,169023.0
63504.0541089684,168998.0
63504.06419793594,169009.0
63504.07428690349,168984.0
63504.08437587104,168978.0
63504.094464838585,168980.0
63504.10455380613,169001.0
63504.11464277368,168984.0
63504.12473174123,168996.0
63504.13482070877,169020.0
63504.144909676324,168997.0
63504.15499864387,168955.0
63504.165087611414,168989.0
63504.17517657897,169010.0
63504.18526554651,169019.0
63504.19535451406,169018.0
63504.20544348161,168998.0
63504.215532449154,169039.0
63504.2256214167,169054.0
63504.23571038425,169064.0
63504.2457993518,169073.0
63504.25588831934,169090.0
63504.26597728689,169094.0
63504.27606625444,169079.0
63504.286155221984,169080.0
63504.29624418953,169138.0
63504.30633315708,169114.0
63504.316422124626,169117.0
63504.32651109217,169153.0
63504.33660005972,169178.0
63504.34668902727,169168.0
63504.35677799481,169148.0
63504.366866962366,169194.0
63504.37695592991,169181.0
63504.387044897456,169195.0
63504.39713386501,169181.0
63504.40722283255,169192.0
63504.4173118001,169201.0
63504.42740076764,169241.0
63504.437489735195,169203.0
63504.44757870274,169206.0
63504.457667670285,169271.0
63504.46775663784,169240.0
63504.47784560538,169254.0
63504.48793457293,169248.0
63504.49802354048,169308.0
63504.508112508025,169272.0
63504.51820147557,169306.0
63504.52829044312,169303.0
63504.53837941067,169311.0
63504.54846837821,169316.0
63504.558557345765,169335.0
63504.56864631331,169361.0
63504.578735280855,169331.0
63504.58882424841,169362.0
63504.59891321595,169380.0
63504.6090021835,169436.0
63504.61909115104,169384.0
63504.629180118594,169436.0
63504.63926908614,169421.0
63504.649358053684,169439.0
63504.65944702124,169457.0
63504.66953598878,169460.0
63504.67962495633,169467.0
63504.68971392388,169465.0
63504.699802891424,169505.0
63504.70989185897,169452.0
63504.71998082652,169499.0
63504.73006979407,169464.0
63504.74015876161,169500.0
63504.750247729164,169447.0
63504.76033669671,169415.0
63504.770425664254,169376.0
63504.7805146318,169313.0
63504.79060359935,169253.0
63504.800692566896,169255.0
63504.81078153444,169243.0
63504.82087050199,169169.0
63504.83095946954,169188.0
63504.84104843708,169163.0
63504.851137404636,169135.0
63504.86122637218,169109.0
63504.871315339726,169134.0
63504.88140430728,169118.0
63504.89149327482,169113.0
63504.90158224237,169113.0
63504.91167120992,169129.0
63504.921760177465,169120.0
63504.93184914501,169099.0
63504.94193811256,169142.0
63504.95202708011,169117.0
63504.96211604765,169127.0
63504.9722050152,169130.0
63504.98229398275,169123.0
63504.992382950295,169106.0
63505.00247191784,169159.0
63505.01256088539,169134.0
63505.02264985294,169129.0
63505.03273882048,169159.0
63505.042827788035,169144.0
63505.05291675558,169140.0
63505.063005723125,169099.0
63505.07309469068,169119.0
63505.08318365822,169127.0
63505.09327262577,169126.0
63505.10336159332,169131.0
63505.113450560864,169120.0
63505.12353952841,169092.0
63505.13362849596,169116.0
63505.14371746351,169139.0
63505.15380643105,169104.0
63505.1638953986,169114.0
63505.17398436615,169144.0
63505.184073333694,169155.0
63505.19416230124,169144.0
63505.20425126879,169177.0
63505.214340236336,169172.0
63505.22442920388,169188.0
63505.23451817143,169176.0
63505.24460713898,169208.0
63505.25469610652,169203.0
63505.264785074076,169221.0
63505.27487404162,169238.0
63505.284963009166,169267.0
63505.29505197672,169250.0
63505.30514094426,169271.0
63505.31522991181,169274.0
63505.32531887936,169304.0
63505.335407846906,169302.0
63505.34549681445,169319.0
63505.355585781996,169297.0
63505.36567474955,169289.0
63505.37576371709,169321.0
63505.38585268464,169328.0
63505.39594165219,169365.0
63505.406030619735,169348.0
63505.41611958728,169356.0
63505.42620855483,169365.0
63505.43629752238,169338.0
63505.44638648992,169366.0
63505.456475457475,169381.0
63505.46656442502,169405.0
63505.476653392565,169408.0
63505.48674236012,169433.0
63505.49683132766,169395.0
63505.50692029521,169387.0
63505.51700926275,169393.0
63505.527098230305,169456.0
63505.53718719785,169447.0
63505.547276165395,169463.0
63505.55736513295,169442.0
63505.56745410049,169464.0
63505.57754306804,169452.0
63505.58763203559,169504.0
63505.597721003134,169525.0
63505.60780997068,169498.0
63505.61789893823,169550.0
63505.62798790578,169547.0
63505.63807687332,169534.0
63505.648165840874,169532.0
63505.65825480842,169547.0
63505.668343775964,169575.0
63505.678432743516,169570.0
63505.68852171106,169617.0
63505.698610678606,169599.0
63505.70869964615,169605.0
63505.7187886137,169571.0
63505.72887758125,169574.0
63505.73896654879,169537.0
63505.749055516346,169500.0
63505.75914448389,169449.0
63505.769233451436,169393.0
63505.77932241899,169383.0
63505.78941138653,169347.0
63505.79950035408,169345.0
63505.80958932163,169304.0
63505.819678289175,169252.0
63505.82976725672,169259.0
63505.83985622427,169264.0
63505.84994519182,169212.0
63505.86003415936,169245.0
63505.87012312691,169226.0
63505.88021209446,169213.0
63505.890301062005,169211.0
63505.90039002955,169272.0
63505.9104789971,169236.0
63505.92056796465,169220.0
63505.93065693219,169235.0
63505.940745899745,169263.0
63505.95083486729,169252.0
63505.960923834835,169253.0
63505.97101280239,169290.0
63505.98110176993,169257.0
63505.99119073748,169272.0
63506.00127970503,169274.0
63506.011368672574,169310.0
63506.02145764012,169277.0
63506.03154660767,169302.0
63506.04163557522,169273.0
63506.05172454276,169238.0
63506.06181351031,169264.0
63506.07190247786,169268.0
63506.081991445404,169250.0
63506.09208041295,169222.0
63506.1021693805,169260.0
63506.11225834805,169230.0
63506.12234731559,169244.0
63506.132436283144,169249.0
63506.14252525069,169254.0
63506.152614218234,169249.0
63506.162703185786,169275.0
63506.17279215333,169305.0
63506.182881120876,169285.0
63506.19297008843,169277.0
63506.20305905597,169309.0
63506.21314802352,169314.0
63506.22323699107,169288.0
63506.233325958616,169325.0
63506.24341492616,169350.0
63506.253503893706,169353.0
63506.26359286126,169350.0
63506.2736818288,169397.0
63506.28377079635,169378.0
63506.2938597639,169448.0
63506.303948731445,169402.0
63506.31403769899,169418.0
63506.32412666654,169399.0
63506.33421563409,169440.0
63506.34430460163,169407.0
63506.354393569185,169423.0
63506.36448253673,169450.0
63506.374571504275,169438.0
63506.38466047183,169474.0
63506.39474943937,169454.0
63506.40483840692,169476.0
63506.41492737446,169477.0
63506.425016342015,169513.0
63506.43510530956,169498.0
63506.445194277105,169485.0
63506.45528324466,169482.0
63506.4653722122,169468.0
63506.47546117975,169520.0
63506.4855501473,169537.0
63506.495639114844,169526.0
63506.50572808239,169526.0
63506.51581704994,169577.0
63506.52590601749,169594.0
63506.53599498503,169553.0
63506.546083952584,169554.0
63506.55617292013,169554.0
63506.566261887674,169591.0
63506.576350855226,169585.0
63506.58643982277,169606.0
63506.59652879032,169574.0
63506.60661775786,169614.0
63506.616706725414,169631.0
63506.62679569296,169618.0
63506.636884660504,169633.0
63506.646973628056,169590.0
63506.6570625956,169589.0
63506.667151563146,169518.0
63506.6772405307,169526.0
63506.68732949824,169489.0
63506.69741846579,169431.0
63506.70750743334,169405.0
63506.717596400886,169331.0
63506.72768536843,169321.0
63506.73777433598,169311.0
63506.74786330353,169291.0
63506.75795227107,169272.0
63506.768041238625,169250.0
63506.77813020617,169269.0
63506.788219173715,169238.0
63506.79830814126,169231.0
63506.80839710881,169295.0
63506.81848607636,169278.0
63506.8285750439,169308.0
63506.838664011455,169260.0
63506.848752979,169242.0
63506.858841946545,169283.0
63506.8689309141,169295.0
63506.87901988164,169323.0
63506.88910884919,169281.0
63506.89919781674,169329.0
63506.909286784285,169338.0
63506.91937575183,169339.0
63506.92946471938,169301.0
63506.93955368693,169312.0
63506.94964265447,169285.0
63506.95973162202,169281.0
63506.96982058957,169280.0
63506.979909557114,169252.0
63506.98999852466,169276.0
63507.00008749221,169285.0
63507.01017645976,169303.0
63507.0202654273,169309.0
63507.030354394854,169287.0
63507.0404433624,169297.0
63507.050532329944,169315.0
63507.060621297496,169288.0
63507.07071026504,169303.0
63507.080799232586,169311.0
63507.09088820014,169303.0
63507.10097716768,169276.0
63507.11106613523,169341.0
63507.12115510278,169350.0
63507.131244070326,169327.0
63507.14133303787,169388.0
63507.151422005416,169384.0
63507.16151097297,169364.0
63507.17159994051,169342.0
63507.18168890806,169413.0
63507.19177787561,169407.0
63507.201866843156,169391.0
63507.2119558107,169425.0
63507.22204477825,169413.0
63507.2321337458,169440.0
63507.24222271334,169434.0
63507.252311680895,169472.0
63507.26240064844,169446.0
63507.272489615985,169462.0
63507.28257858354,169457.0
63507.29266755108,169480.0
63507.30275651863,169532.0
63507.31284548617,169513.0
63507.322934453725,169534.0
63507.33302342127,169488.0
63507.343112388815,169513.0
63507.35320135637,169538.0
63507.36329032391,169513.0
63507.37337929146,169557.0
63507.38346825901,169555.0
63507.393557226555,169545.0
63507.4036461941,169523.0
63507.41373516165,169548.0
63507.4238241292,169568.0
63507.43391309674,169586.0
63507.444002064294,169552.0
63507.45409103184,169609.0
63507.464179999384,169617.0
63507.47426896694,169608.0
63507.48435793448,169607.0
63507.49444690203,169646.0
63507.50453586957,169581.0
63507.514624837124,169597.0
63507.52471380467,169568.0
63507.534802772214,169543.0
63507.544891739766,169483.0
63507.55498070731,169482.0
63507.565069674856,169417.0
63507.57515864241,169365.0
63507.58524760995,169341.0
63507.5953365775,169311.0
63507.60542554505,169276.0
63507.615514512596,169267.0
63507.62560348014,169196.0
63507.63569244769,169219.0
63507.64578141524,169195.0
63507.65587038278,169190.0
63507.665959350335,169187.0
63507.67604831788,169141.0
63507.686137285426,169175.0
63507.69622625297,169193.0
63507.70631522052,169176.0
63507.71640418807,169173.0
63507.72649315561,169156.0
63507.736582123165,169175.0
63507.74667109071,169152.0
63507.756760058255,169176.0
63507.76684902581,169172.0
63507.77693799335,169126.0
63507.7870269609,169160.0
63507.79711592845,169148.0
63507.807204895995,169141.0
63507.81729386354,169158.0
63507.82738283109,169153.0
63507.83747179864,169126.0
63507.84756076618,169120.0
63507.857649733734,169119.0
63507.86773870128,169143.0
63507.877827668824,169093.0
63507.88791663637,169100.0
63507.89800560392,169134.0
63507.90809457147,169101.0
63507.91818353901,169099.0
63507.928272506564,169088.0
63507.93836147411,169108.0
63507.948450441654,169122.0
63507.95853940921,169134.0
63507.96862837675,169121.0
63507.9787173443,169121.0
63507.98880631185,169117.0
63507.998895279394,169153.0
63508.00898424694,169136.0
63508.01907321449,169171.0
63508.029162182036,169193.0
63508.03925114958,169157.0
63508.049340117126,169158.0
63508.05942908468,169182.0
63508.06951805222,169202.0
63508.07960701977,169193.0
63508.08969598732,169234.0
63508.099784954866,169221.0
63508.10987392241,169241.0
63508.11996288996,169232.0
63508.13005185751,169226.0
63508.14014082505,169241.0
63508.150229792605,169270.0
63508.16031876015,169263.0
63508.170407727695,169281.0
63508.18049669525,169272.0
63508.19058566279,169241.0
63508.20067463034,169289.0
63508.21076359789,169292.0
63508.220852565435,169285.0
63508.23094153298,169296.0
63508.241030500525,169297.0
63508.25111946808,169267.0
63508.26120843562,169306.0
63508.27129740317,169305.0
63508.28138637072,169341.0
63508.291475338265,169308.0
63508.30156430581,169337.0
63508.31165327336,169305.0
63508.32174224091,169324.0
63508.33183120845,169308.0
63508.341920176004,169360.0
63508.35200914355,169383.0
63508.362098111094,169378.0
63508.37218707865,169418.0
63508.38227604619,169396.0
63508.39236501374,169377.0
63508.40245398128,169397.0
63508.412542948834,169388.0
63508.42263191638,169355.0
63508.432720883924,169297.0
63508.442809851476,169277.0
63508.45289881902,169191.0
63508.46298778657,169175.0
63508.47307675412,169106.0
63508.483165721664,169128.0
63508.49325468921,169050.0
63508.50334365676,169048.0
63508.513432624306,169002.0
63508.52352159185,168971.0
63508.5336105594,168966.0
63508.54369952695,168996.0
63508.55378849449,168965.0
63508.563877462046,168948.0
63508.57396642959,168957.0
63508.584055397136,168989.0
63508.59414436468,168932.0
63508.60423333223,168915.0
63508.61432229978,168964.0
63508.62441126732,168909.0
63508.634500234875,168926.0
63508.64458920242,168913.0
63508.654678169965,168910.0
63508.66476713752,168916.0
63508.67485610506,168923.0
63508.68494507261,168910.0
63508.69503404016,168894.0
63508.705123007705,168883.0
63508.71521197525,168923.0
63508.7253009428,168908.0
63508.73538991035,168876.0
63508.74547887789,168877.0
63508.755567845445,168886.0
63508.76565681299,168854.0
63508.775745780535,168873.0
63508.78583474808,168908.0
63508.79592371563,168889.0
63508.80601268318,168862.0
63508.81610165072,168881.0
63508.826190618274,168854.0
63508.83627958582,168884.0
63508.846368553364,168902.0
63508.85645752092,168880.0
63508.86654648846,168887.0
63508.87663545601,168924.0
63508.88672442356,168916.0
63508.896813391104,168955.0
63508.90690235865,168916.0
63508.9169913262,168943.0
63508.927080293746,168968.0
63508.93716926129,168930.0
63508.94725822884,168976.0
63508.95734719639,168990.0
63508.96743616393,168979.0
63508.97752513148,168979.0
63508.98761409903,169014.0
63508.997703066576,169011.0
63509.00779203412,169006.0
63509.01788100167,169029.0
63509.02796996922,169043.0
63509.03805893676,169007.0
63509.048147904316,169027.0
63509.05823687186,169049.0
63509.068325839406,169045.0
63509.07841480696,169025.0
63509.0885037745,169069.0
63509.09859274205,169074.0
63509.1086817096,169090.0
63509.118770677145,169078.0
63509.12885964469,169090.0
63509.138948612235,169091.0
63509.14903757979,169068.0
63509.15912654733,169128.0
63509.16921551488,169114.0
63509.17930448243,169126.0
63509.189393449975,169122.0
63509.19948241752,169153.0
63509.20957138507,169156.0
63509.21966035262,169149.0
63509.22974932016,169127.0
63509.239838287715,169166.0
63509.24992725526,169187.0
63509.260016222805,169207.0
63509.27010519036,169234.0
63509.2801941579,169194.0
63509.29028312545,169232.0
63509.300372093,169190.0
63509.310461060544,169269.0
63509.32055002809,169202.0
63509.330638995634,169213.0
63509.34072796319,169178.0
63509.35081693073,169113.0
63509.36090589828,169119.0
63509.37099486583,169061.0
63509.381083833374,169008.0
63509.39117280092,168962.0
63509.40126176847,168951.0
63509.411350736016,168917.0
63509.42143970356,168858.0
63509.43152867111,168831.0
63509.44161763866,168861.0
63509.4517066062,168823.0
63509.461795573756,168848.0
63509.4718845413,168802.0
63509.481973508846,168829.0
63509.49206247639,168820.0
63509.50215144394,168780.0
63509.51224041149,168807.0
63509.52232937903,168782.0
63509.532418346585,168783.0
63509.54250731413,168775.0
63509.552596281676,168766.0
63509.56268524923,168770.0
63509.57277421677,168790.0
63509.58286318432,168788.0
63509.59295215187,168801.0
63509.603041119415,168771.0
63509.61313008696,168765.0
63509.62321905451,168779.0
63509.63330802206,168789.0
63509.6433969896,168801.0
63509.653485957155,168716.0
63509.6635749247,168771.0
63509.673663892245,168750.0
63509.68375285979,168776.0
63509.69384182734,168724.0
63509.70393079489,168758.0
63509.71401976243,168760.0
63509.724108729984,168756.0
63509.73419769753,168756.0
63509.744286665074,168762.0
63509.75437563263,168763.0
63509.76446460017,168755.0
63509.77455356772,168785.0
63509.78464253527,168779.0
63509.794731502814,168804.0
63509.80482047036,168780.0
63509.81490943791,168839.0
63509.82499840546,168837.0
63509.835087373,168838.0
63509.845176340554,168844.0
63509.8552653081,168855.0
63509.865354275644,168888.0
63509.87544324319,168866.0
63509.88553221074,168891.0
63509.895621178286,168926.0
63509.90571014583,168916.0
63509.91579911338,168914.0
63509.92588808093,168902.0
63509.93597704847,168935.0
63509.946066016026,168929.0
63509.95615498357,168956.0
63509.966243951116,168939.0
63509.97633291867,168927.0
63509.98642188621,168953.0
63509.99651085376,168945.0
63510.00659982131,168955.0
63510.016688788855,168984.0
63510.0267777564,168988.0
63510.036866723945,168981.0
63510.0469556915,168955.0
63510.05704465904,169026.0
63510.06713362659,168973.0
63510.07722259414,169027.0
63510.087311561685,169011.0
63510.09740052923,169048.0
63510.10748949678,169032.0
63510.11757846433,169066.0
63510.12766743187,169044.0
63510.137756399425,169095.0
63510.14784536697,169119.0
63510.157934334515,169114.0
63510.16802330207,169111.0
63510.17811226961,169120.0
63510.18820123716,169073.0
63510.19829020471,169138.0
63510.208379172254,169172.0
63510.2184681398,169182.0
63510.228557107344,169170.0
63510.2386460749,169191.0
63510.24873504244,169215.0
63510.25882400999,169216.0
63510.26891297754,169211.0
63510.279001945084,169216.0
63510.28909091263,169171.0
63510.29917988018,169178.0
63510.309268847726,169172.0
63510.31935781527,169090.0
63510.329446782824,169038.0
63510.33953575037,169022.0
63510.349624717914,168987.0
63510.359713685466,168942.0
63510.36980265301,168879.0
63510.379891620556,168868.0
63510.38998058811,168841.0
63510.40006955565,168843.0
63510.4101585232,168846.0
63510.42024749074,168812.0
63510.430336458296,168787.0
63510.44042542584,168795.0
63510.450514393386,168793.0
63510.46060336094,168774.0
63510.47069232848,168759.0
63510.48078129603,168789.0
63510.49087026358,168795.0
63510.500959231125,168756.0
63510.51104819867,168820.0
63510.52113716622,168794.0
63510.53122613377,168787.0
63510.54131510131,168791.0
63510.551404068865,168806.0
63510.56149303641,168795.0
63510.571582003955,168774.0
63510.5816709715,168745.0
63510.59175993905,168756.0
63510.6018489066,168787.0
63510.61193787414,168754.0
63510.622026841695,168778.0
63510.63211580924,168754.0
63510.642204776785,168765.0
63510.65229374434,168748.0
63510.66238271188,168712.0
63510.67247167943,168745.0
63510.68256064698,168737.0
63510.692649614524,168761.0
63510.70273858207,168741.0
63510.71282754962,168783.0
63510.72291651717,168727.0
63510.73300548471,168778.0
63510.743094452264,168793.0
63510.75318341981,168800.0
63510.763272387354,168821.0
63510.7733613549,168820.0
63510.78345032245,168793.0
63510.793539289996,168823.0
63510.80362825754,168822.0
63510.81371722509,168846.0
63510.82380619264,168880.0
63510.83389516018,168846.0
63510.843984127736,168895.0
63510.85407309528,168882.0
63510.864162062826,168867.0
63510.87425103038,168887.0
63510.88433999792,168918.0
63510.89442896547,168905.0
63510.90451793302,168921.0
63510.914606900566,168938.0
63510.92469586811,168927.0
63510.934784835656,168936.0
63510.94487380321,168943.0
63510.95496277075,168959.0
63510.9650517383,168964.0
63510.97514070585,168945.0
63510.985229673395,168961.0
63510.99531864094,168940.0
63511.00540760849,168948.0
63511.01549657604,168974.0
63511.02558554358,168996.0
63511.035674511135,168955.0
63511.04576347868,169001.0
63511.055852446225,169005.0
63511.06594141378,168996.0
63511.07603038132,169017.0
63511.08611934887,169027.0
63511.09620831642,169008.0
63511.106297283965,169048.0
63511.11638625151,169080.0
63511.126475219055,169072.0
63511.13656418661,169080.0
63511.14665315415,169085.0
63511.1567421217,169108.0
63511.16683108925,169075.0
63511.176920056794,169120.0
63511.18700902434,169134.0
63511.19709799189,169106.0
63511.20718695944,169104.0
63511.21727592698,169115.0
63511.227364894534,169068.0
63511.23745386208,169029.0
63511.247542829624,168987.0
63511.257631797176,168956.0
63511.26772076472,168903.0
63511.277809732266,168866.0
63511.28789869982,168847.0
63511.29798766736,168785.0
63511.30807663491,168792.0
63511.31816560245,168781.0
63511.328254570006,168758.0
63511.33834353755,168729.0
63511.348432505096,168731.0
63511.35852147265,168715.0
63511.36861044019,168721.0
63511.37869940774,168754.0
63511.38878837529,168721.0
63511.398877342835,168686.0
63511.40896631038,168691.0
63511.41905527793,168737.0
63511.42914424548,168750.0
63511.43923321302,168742.0
63511.449322180575,168750.0
63511.45941114812,168772.0
63511.469500115665,168761.0
63511.47958908322,168736.0
63511.48967805076,168745.0
63511.49976701831,168728.0
63511.50985598585,168744.0
63511.519944953405,168704.0
63511.53003392095,168739.0
63511.540122888495,168688.0
63511.55021185605,168714.0
63511.56030082359,168679.0
63511.57038979114,168723.0
63511.58047875869,168701.0
63511.590567726234,168683.0
63511.60065669378,168682.0
63511.61074566133,168661.0
63511.62083462888,168676.0
63511.63092359642,168701.0
63511.641012563974,168703.0
63511.65110153152,168717.0
63511.661190499064,168738.0
63511.67127946661,168717.0
63511.68136843416,168725.0
63511.69145740171,168757.0
63511.70154636925,168736.0
63511.711635336804,168751.0
63511.72172430435,168786.0
63511.731813271894,168758.0
63511.741902239446,168782.0
63511.75199120699,168772.0
63511.762080174536,168811.0
63511.77216914209,168836.0
63511.78225810963,168827.0
63511.79234707718,168836.0
63511.80243604473,168832.0
63511.812525012276,168799.0
63511.82261397982,168840.0
63511.83270294737,168848.0
63511.84279191492,168854.0
63511.85288088246,168860.0
63511.86296985001,168835.0
63511.87305881756,168885.0
63511.883147785105,168871.0
63511.89323675265,168889.0
63511.9033257202,168889.0
63511.91341468775,168857.0
63511.92350365529,168868.0
63511.933592622845,168891.0
63511.94368159039,168894.0
63511.953770557935,168893.0
63511.96385952549,168936.0
63511.97394849303,168979.0
63511.98403746058,168925.0
63511.99412642813,168965.0
63512.004215395675,168968.0
63512.01430436322,168980.0
63512.024393330765,168953.0
63512.03448229832,168988.0
63512.04457126586,168974.0
63512.05466023341,168882.0
63512.06474920096,168906.0
63512.074838168504,168897.0
63512.08492713605,168822.0
63512.0950161036,168776.0
63512.10510507115,168750.0
63512.11519403869,168703.0
63512.125283006244,168667.0
63512.13537197379,168639.0
63512.145460941334,168595.0
63512.155549908886,168579.0
63512.16563887643,168569.0
63512.175727843976,168553.0
63512.18581681153,168550.0
63512.195905779074,168512.0
63512.20599474662,168542.0
63512.216083714164,168528.0
63512.226172681716,168532.0
63512.23626164926,168536.0
63512.246350616806,168540.0
63512.25643958436,168530.0
63512.2665285519,168509.0
63512.27661751945,168543.0
63512.286706487,168516.0
63512.296795454546,168530.0
63512.30688442209,168520.0
63512.31697338964,168556.0
63512.32706235719,168485.0
63512.33715132473,168517.0
63512.347240292285,168540.0
63512.35732925983,168489.0
63512.367418227375,168501.0
63512.37750719493,168495.0
63512.38759616247,168506.0
63512.39768513002,168446.0
63512.40777409756,168480.0
63512.417863065115,168485.0
63512.42795203266,168496.0
63512.438041000205,168520.0
63512.44812996776,168512.0
63512.4582189353,168472.0
63512.46830790285,168496.0
63512.4783968704,168503.0
63512.488485837945,168550.0
63512.49857480549,168534.0
63512.50866377304,168642.0
63512.51875274059,168645.0
63512.52884170813,168657.0
63512.538930675684,168680.0
63512.54901964323,168662.0
63512.559108610774,168690.0
63512.56919757833,168683.0
63512.57928654587,168720.0
63512.58937551342,168674.0
63512.59946448096,168719.0
63512.609553448514,168719.0
63512.61964241606,168742.0
63512.629731383604,168732.0
63512.639820351156,168739.0
63512.6499093187,168737.0
63512.659998286246,168729.0
63512.6700872538,168773.0
63512.68017622134,168782.0
63512.69026518889,168808.0
63512.70035415644,168771.0
63512.710443123986,168786.0
63512.72053209153,168823.0
63512.73062105908,168812.0
63512.74071002663,168793.0
63512.75079899417,168844.0
63512.76088796172,168792.0
63512.77097692927,168739.0
63512.781065896816,168726.0
63512.79115486436,168695.0
63512.80124383191,168626.0
63512.81133279946,168547.0
63512.821421767,168547.0
63512.831510734555,168493.0
63512.8415997021,168455.0
63512.851688669645,168410.0
63512.8617776372,168378.0
63512.87186660474,168361.0
63512.88195557229,168359.0
63512.89204453984,168361.0
63512.902133507385,168328.0
63512.91222247493,168294.0
63512.92231144248,168318.0
63512.93240041003,168287.0
63512.94248937757,168302.0
63512.95257834512,168259.0
63512.96266731267,168274.0
63512.972756280215,168272.0
63512.98284524776,168241.0
63512.99293421531,168291.0
63513.00302318286,168255.0
63513.0131121504,168226.0
63513.023201117954,168286.0
63513.0332900855,168237.0
63513.043379053044,168260.0
63513.0534680206,168249.0
63513.06355698814,168226.0
63513.07364595569,168246.0
63513.08373492324,168235.0
63513.093823890784,168256.0
63513.10391285833,168209.0
63513.114001825874,168229.0
63513.124090793426,168237.0
63513.13417976097,168248.0
63513.144268728516,168203.0
63513.15435769607,168221.0
63513.16444666361,168259.0
63513.17453563116,168254.0
63513.18462459871,168274.0
63513.194713566256,168252.0
63513.2048025338,168269.0
63513.21489150135,168297.0
63513.2249804689,168281.0
63513.23506943644,168276.0
63513.245158403995,168306.0
63513.25524737154,168319.0
63513.265336339085,168318.0
63513.27542530664,168369.0
63513.28551427418,168319.0
63513.29560324173,168378.0
63513.30569220927,168372.0
63513.315781176825,168374.0
63513.32587014437,168378.0
63513.335959111915,168414.0
63513.34604807947,168413.0
63513.35613704701,168436.0
63513.36622601456,168427.0
63513.37631498211,168450.0
63513.386403949655,168471.0
63513.3964929172,168426.0
63513.40658188475,168491.0
63513.4166708523,168443.0
63513.42675981984,168487.0
63513.436848787394,168462.0
63513.44693775494,168475.0
63513.457026722484,168520.0
63513.46711569003,168535.0
63513.47720465758,168546.0
63513.48729362513,168520.0
63513.49738259267,168554.0
63513.507471560224,168541.0
63513.51756052777,168595.0
63513.527649495314,168555.0
63513.53773846287,168604.0
63513.54782743041,168587.0
63513.55791639796,168599.0
63513.56800536551,168649.0
63513.578094333054,168658.0
63513.5881833006,168666.0
63513.59827226815,168648.0
63513.608361235696,168654.0
63513.61845020324,168651.0
63513.62853917079,168622.0
63513.63862813834,168572.0
63513.64871710588,168529.0
63513.65880607343,168527.0
63513.66889504098,168463.0
63513.678984008526,168425.0
63513.68907297607,168351.0
63513.69916194362,168314.0
63513.70925091117,168295.0
63513.71933987871,168300.0
63513.729428846265,168238.0
63513.73951781381,168239.0
63513.749606781355,168234.0
63513.75969574891,168185.0
63513.76978471645,168228.0
63513.779873684,168204.0
63513.78996265155,168196.0
63513.800051619095,168193.0
63513.81014058664,168160.0
63513.82022955419,168151.0
63513.83031852174,168151.0
63513.84040748928,168155.0
63513.85049645683,168134.0
63513.86058542438,168166.0
63513.870674391925,168157.0
63513.88076335947,168147.0
63513.89085232702,168155.0
63513.90094129457,168147.0
63513.91103026211,168161.0
63513.921119229664,168172.0
63513.93120819721,168164.0
63513.941297164754,168150.0
63513.95138613231,168123.0
63513.96147509985,168157.0
63513.9715640674,168148.0
63513.98165303495,168156.0
63513.991742002494,168141.0
63514.00183097004,168173.0
63514.01191993759,168127.0
63514.022008905136,168179.0
63514.03209787268,168162.0
63514.042186840226,168152.0
63514.05227580778,168176.0
63514.062364775324,168178.0
63514.07245374287,168202.0
63514.08254271042,168231.0
63514.092631677966,168238.0
63514.10272064551,168219.0
63514.11280961306,168246.0
63514.12289858061,168252.0
63514.13298754815,168274.0
63514.143076515706,168251.0
63514.15316548325,168275.0
63514.163254450796,168308.0
63514.17334341835,168352.0
63514.18343238589,168314.0
63514.19352135344,168360.0
63514.20361032098,168353.0
63514.213699288535,168336.0
63514.22378825608,168372.0
63514.233877223625,168366.0
63514.24396619118,168378.0
63514.25405515872,168393.0
63514.26414412627,168415.0
63514.27423309382,168444.0
63514.284322061365,168422.0
63514.29441102891,168453.0
63514.30449999646,168462.0
63514.31458896401,168452.0
63514.32467793155,168466.0
63514.334766899105,168496.0
63514.34485586665,168441.0
63514.354944834195,168475.0
63514.36503380175,168509.0
63514.37512276929,168482.0
63514.38521173684,168524.0
63514.39530070438,168541.0
63514.405389671934,168538.0
63514.41547863948,168555.0
63514.425567607024,168587.0
63514.43565657458,168616.0
63514.44574554212,168602.0
63514.45583450967,168607.0
63514.46592347722,168650.0
63514.476012444764,168653.0
63514.48610141231,168669.0
63514.49619037986,168689.0
63514.506279347406,168694.0
63514.51636831495,168662.0
63514.5264572825,168681.0
63514.53654625005,168679.0
63514.54663521759,168615.0
63514.55672418514,168599.0
63514.56681315269,168552.0
63514.576902120236,168505.0
63514.58699108778,168458.0
63514.59708005533,168440.0
63514.60716902288,168377.0
63514.61725799042,168338.0
63514.627346957976,168323.0
63514.63743592552,168310.0
63514.647524893066,168253.0
63514.65761386062,168283.0
63514.66770282816,168243.0
63514.67779179571,168291.0
63514.68788076326,168271.0
63514.697969730805,168266.0
63514.70805869835,168251.0
63514.7181476659,168239.0
63514.72823663345,168254.0
63514.73832560099,168255.0
63514.74841456854,168255.0
63514.75850353609,168254.0
63514.768592503635,168276.0
63514.77868147118,168268.0
63514.78877043873,168285.0
63514.79885940628,168234.0
63514.80894837382,168283.0
63514.819037341374,168288.0
63514.82912630892,168252.0
63514.839215276465,168300.0
63514.84930424402,168255.0
63514.85939321156,168267.0
63514.86948217911,168218.0
63514.87957114666,168292.0
63514.889660114204,168280.0
63514.89974908175,168256.0
63514.9098380493,168243.0
63514.91992701685,168266.0
63514.93001598439,168270.0
63514.94010495194,168282.0
63514.95019391949,168317.0
63514.960282887034,168286.0
63514.97037185458,168326.0
63514.98046082213,168329.0
63514.990549789676,168326.0
63515.00063875722,168313.0
63515.01072772477,168380.0
63515.02081669232,168363.0
63515.03090565986,168376.0
63515.040994627416,168435.0
63515.05108359496,168398.0
63515.061172562506,168439.0
63515.07126153006,168418.0
63515.0813504976,168467.0
63515.09143946515,168458.0
63515.1015284327,168469.0
63515.111617400245,168470.0
63515.12170636779,168511.0
63515.131795335335,168482.0
63515.14188430289,168541.0
63515.15197327043,168508.0
63515.16206223798,168524.0
63515.17215120553,168567.0
63515.182240173075,168562.0
63515.19232914062,168582.0
63515.20241810817,168547.0
63515.21250707572,168588.0
63515.22259604326,168591.0
63515.232685010815,168621.0
63515.24277397836,168619.0
63515.252862945905,168653.0
63515.26295191346,168615.0
63515.273040881,168660.0
63515.28312984855,168686.0
63515.29321881609,168646.0
63515.303307783644,168681.0
63515.31339675119,168710.0
63515.323485718734,168745.0
63515.33357468629,168721.0
63515.34366365383,168755.0
63515.35375262138,168757.0
63515.36384158893,168761.0
63515.373930556474,168817.0
63515.38401952402,168809.0
63515.39410849157,168819.0
63515.40419745912,168796.0
63515.41428642666,168845.0
63515.424375394214,168870.0
63515.43446436176,168856.0
63515.444553329304,168868.0
63515.454642296856,168911.0
63515.4647312644,168859.0
63515.474820231946,168887.0
63515.48490919949,168863.0
63515.49499816704,168809.0
63515.50508713459,168780.0
63515.51517610213,168754.0
63515.525265069686,168738.0
63515.53535403723,168676.0
63515.545443004776,168644.0
63515.55553197233,168637.0
63515.56562093987,168609.0
63515.57570990742,168557.0
63515.58579887497,168579.0
63515.595887842515,168562.0
63515.60597681006,168529.0
63515.61606577761,168551.0
63515.62615474516,168542.0
63515.6362437127,168546.0
63515.64633268025,168547.0
63515.6564216478,168550.0
63515.666510615345,168549.0
63515.67659958289,168557.0
63515.68668855044,168594.0
63515.69677751799,168589.0
63515.70686648553,168546.0
63515.716955453085,168571.0
63515.72704442063,168590.0
63515.737133388175,168581.0
63515.74722235573,168570.0
63515.75731132327,168556.0
63515.76740029082,168588.0
63515.77748925837,168591.0
63515.787578225914,168606.0
63515.79766719346,168572.0
63515.80775616101,168576.0
63515.81784512856,168551.0
63515.8279340961,168599.0
63515.83802306365,168544.0
63515.8481120312,168577.0
63515.858200998744,168572.0
63515.86828996629,168596.0
63515.87837893384,168597.0
63515.888467901386,168595.0
63515.89855686893,168614.0
63515.90864583648,168580.0
63515.91873480403,168604.0
63515.928823771574,168635.0
63515.938912739126,168644.0
63515.94900170667,168595.0
63515.959090674216,168634.0
63515.96917964177,168660.0
63515.97926860931,168698.0
63515.98935757686,168707.0
63515.99944654441,168743.0
63516.009535511956,168722.0
63516.0196244795,168734.0
63516.029713447046,168719.0
63516.0398024146,168726.0
63516.04989138214,168766.0
63516.05998034969,168743.0
63516.07006931724,168798.0
63516.080158284785,168777.0
63516.09024725233,168801.0
63516.10033621988,168767.0
63516.11042518743,168790.0
63516.12051415497,168792.0
63516.130603122525,168819.0
63516.14069209007,168825.0
63516.150781057615,168839.0
63516.16087002517,168866.0
63516.17095899271,168880.0
63516.18104796026,168880.0
63516.1911369278,168855.0
63516.201225895355,168915.0
63516.2113148629,168868.0
63516.221403830445,168882.0
63516.231492798,168883.0
63516.24158176554,168938.0
63516.25167073309,168959.0
63516.26175970064,168953.0
63516.271848668184,168956.0
63516.28193763573,169001.0
63516.29202660328,168975.0
63516.30211557083,168997.0
63516.31220453837,169021.0
63516.322293505924,169014.0
63516.33238247347,169021.0
63516.342471441014,169025.0
63516.352560408566,169052.0
63516.36264937611,169004.0
63516.372738343656,169018.0
63516.3828273112,168998.0
63516.39291627875,168991.0
63516.4030052463,168956.0
63516.41309421384,168870.0
63516.423183181396,168859.0
63516.43327214894,168801.0
63516.443361116486,168783.0
63516.45345008404,168782.0
63516.46353905158,168767.0
63516.47362801913,168754.0
63516.48371698668,168724.0
63516.493805954226,168719.0
63516.50389492177,168721.0
63516.51398388932,168730.0
63516.52407285687,168695.0
63516.53416182441,168695.0
63516.544250791965,168738.0
63516.55433975951,168736.0
63516.564428727055,168738.0
63516.5745176946,168717.0
63516.58460666215,168755.0
63516.5946956297,168718.0
63516.60478459724,168768.0
63516.614873564795,168771.0
63516.62496253234,168777.0
63516.635051499885,168744.0
63516.64514046744,168747.0
63516.65522943498,168776.0
63516.66531840253,168766.0
63516.67540737008,168762.0
63516.685496337624,168738.0
63516.69558530517,168777.0
63516.70567427272,168779.0
63516.71576324027,168758.0
63516.72585220781,168719.0
63516.73594117536,168752.0
63516.74603014291,168748.0
63516.756119110454,168770.0
63516.766208078,168736.0
63516.77629704555,168760.0
63516.7863860131,168738.0
63516.79647498064,168783.0
63516.806563948194,168779.0
63516.81665291574,168785.0
63516.826741883284,168789.0
63516.836830850836,168828.0
63516.84691981838,168832.0
63516.857008785926,168821.0
63516.86709775348,168872.0
63516.87718672102,168871.0
63516.88727568857,168844.0
63516.89736465612,168890.0
63516.907453623666,168863.0
63516.91754259121,168900.0
63516.927631558756,168900.0
63516.93772052631,168917.0
63516.94780949385,168929.0
63516.9578984614,168952.0
63516.96798742895,168933.0
63516.978076396495,168959.0
63516.98816536404,168954.0
63516.99825433159,168992.0
63517.00834329914,169006.0
63517.01843226668,168990.0
63517.028521234235,169013.0
63517.03861020178,169018.0
63517.048699169325,169024.0
63517.05878813688,169025.0
63517.06887710442,169063.0
63517.07896607197,169055.0
63517.08905503951,169060.0
63517.099144007065,169076.0
63517.10923297461,169066.0
63517.119321942155,169101.0
63517.12941090971,169104.0
63517.13949987725,169129.0
63517.1495888448,169127.0
63517.15967781235,169114.0
63517.169766779894,169134.0
63517.17985574744,169168.0
63517.18994471499,169136.0
63517.20003368254,169200.0
63517.21012265008,169196.0
63517.220211617634,169195.0
63517.23030058518,169197.0
63517.240389552724,169166.0
63517.25047852028,169186.0
63517.26056748782,169136.0
63517.27065645537,169139.0
63517.28074542291,169097.0
63517.290834390464,169023.0
63517.30092335801,168986.0
63517.311012325554,168969.0
63517.321101293106,168915.0
63517.33119026065,168890.0
63517.341279228196,168883.0
63517.35136819575,168845.0
63517.36145716329,168845.0
63517.37154613084,168827.0
63517.38163509839,168838.0
63517.391724065936,168806.0
63517.40181303348,168820.0
63517.41190200103,168810.0
63517.42199096858,168782.0
63517.43207993612,168775.0
63517.442168903675,168795.0
63517.45225787122,168785.0
63517.462346838765,168759.0
63517.47243580631,168779.0
63517.48252477386,168781.0
63517.49261374141,168772.0
63517.50270270895,168797.0
63517.512791676505,168806.0
63517.52288064405,168762.0
63517.532969611595,168786.0
63517.54305857915,168795.0
63517.55314754669,168780.0
63517.56323651424,168789.0
63517.57332548179,168754.0
63517.583414449335,168776.0
63517.59350341688,168760.0
63517.60359238443,168770.0
63517.61368135198,168775.0
63517.62377031952,168784.0
63517.633859287074,168727.0
63517.64394825462,168775.0
63517.654037222164,168771.0
63517.66412618971,168772.0
63517.67421515726,168783.0
63517.68430412481,168804.0
63517.69439309235,168769.0
63517.704482059904,168802.0
63517.71457102745,168828.0
63517.724659994994,168833.0
63517.734748962546,168817.0
63517.74483793009,168849.0
63517.754926897636,168867.0
63517.76501586519,168831.0
63517.77510483273,168867.0
63517.78519380028,168890.0
63517.79528276783,168873.0
63517.805371735376,168895.0
63517.81546070292,168905.0
63517.825549670466,168924.0
63517.83563863802,168923.0
63517.84572760556,168925.0
63517.85581657311,168952.0
63517.86590554066,168941.0
63517.875994508206,168957.0
63517.88608347575,168959.0
63517.8961724433,168968.0
63517.90626141085,168989.0
63517.91635037839,168985.0
63517.926439345945,169001.0
63517.93652831349,169022.0
63517.946617281035,169022.0
63517.95670624859,169009.0
63517.96679521613,168999.0
63517.97688418368,169044.0
63517.98697315123,169042.0
63517.997062118775,169036.0
63518.00715108632,169038.0
63518.017240053865,169050.0
63518.02732902142,169091.0
63518.03741798896,169118.0
63518.04750695651,169101.0
63518.05759592406,169139.0
63518.067684891605,169115.0
63518.07777385915,169101.0
63518.0878628267,169128.0
63518.09795179425,169129.0
63518.10804076179,169173.0
63518.118129729344,169173.0
63518.12821869689,169199.0
63518.138307664434,169155.0
63518.14839663199,169212.0
63518.15848559953,169193.0
63518.16857456708,169169.0
63518.17866353462,169172.0
63518.188752502174,169169.0
63518.19884146972,169124.0
63518.208930437264,169070.0
63518.219019404816,169000.0
63518.22910837236,169039.0
63518.239197339906,168948.0
63518.24928630746,168870.0
63518.259375275,168903.0
63518.26946424255,168838.0
63518.2795532101,168826.0
63518.289642177646,168797.0
63518.29973114519,168833.0
63518.30982011274,168778.0
63518.31990908029,168802.0
63518.32999804783,168791.0
63518.340087015386,168785.0
63518.35017598293,168737.0
63518.360264950476,168787.0
63518.37035391802,168749.0
63518.38044288557,168766.0
63518.39053185312,168794.0
63518.40062082066,168765.0
63518.410709788215,168788.0
63518.42079875576,168753.0
63518.430887723305,168778.0
63518.44097669086,168769.0
63518.4510656584,168738.0
63518.46115462595,168751.0
63518.4712435935,168739.0
63518.481332561045,168763.0
63518.49142152859,168717.0
63518.50151049614,168776.0
63518.51159946369,168742.0
63518.52168843123,168744.0
63518.531777398784,168720.0
63518.54186636633,168764.0
63518.551955333875,168725.0
63518.56204430142,168749.0
63518.57213326897,168764.0
63518.58222223652,168743.0
63518.59231120406,168756.0
63518.602400171614,168760.0
63518.61248913916,168738.0
63518.622578106704,168737.0
63518.63266707426,168781.0
63518.6427560418,168787.0
63518.65284500935,168803.0
63518.6629339769,168777.0
63518.673022944444,168811.0
63518.68311191199,168824.0
63518.69320087954,168807.0
63518.703289847086,168868.0
63518.71337881463,168881.0
63518.72346778218,168846.0
63518.73355674973,168889.0
63518.74364571727,168901.0
63518.75373468482,168873.0
63518.76382365237,168874.0
63518.773912619916,168898.0
63518.78400158746,168888.0
63518.79409055501,168931.0
63518.80417952256,168940.0
63518.8142684901,168942.0
63518.824357457655,168941.0
63518.8344464252,168960.0
63518.844535392745,168979.0
63518.8546243603,168973.0
63518.86471332784,168980.0
63518.87480229539,168999.0
63518.88489126294,168992.0
63518.894980230485,168986.0
63518.90506919803,169020.0
63518.915158165575,169040.0
63518.92524713313,169004.0
63518.93533610067,169041.0
63518.94542506822,169064.0
63518.95551403577,169068.0
63518.965603003315,169071.0
63518.97569197086,169077.0
63518.98578093841,169105.0
63518.99586990596,169091.0
63519.0059588735,169116.0
63519.016047841054,169117.0
63519.0261368086,169095.0
63519.036225776144,169113.0
63519.0463147437,169159.0
63519.05640371124,169163.0
63519.06649267879,169211.0
63519.07658164634,169227.0
63519.086670613884,169205.0
63519.09675958143,169181.0
63519.106848548974,169149.0
63519.11693751653,169116.0
63519.12702648407,169080.0
63519.13711545162,169054.0
63519.14720441917,168980.0
63519.157293386714,168977.0
63519.16738235426,168857.0
63519.17747132181,168880.0
63519.187560289356,168859.0
63519.1976492569,168796.0
63519.20773822445,168806.0
63519.217827192,168790.0
63519.22791615954,168791.0
63519.238005127096,168772.0
63519.24809409464,168747.0
63519.258183062186,168800.0
63519.26827202973,168797.0
63519.27836099728,168776.0
63519.28844996483,168801.0
63519.29853893237,168755.0
63519.308627899925,168781.0
63519.31871686747,168749.0
63519.328805835015,168799.0
63519.33889480257,168745.0
63519.34898377011,168778.0
63519.35907273766,168787.0
63519.36916170521,168782.0
63519.379250672755,168817.0
63519.3893396403,168789.0
63519.39942860785,168809.0
63519.4095175754,168783.0
63519.41960654294,168792.0
63519.429695510495,168792.0
63519.43978447804,168747.0
63519.449873445585,168721.0
63519.45996241313,168788.0
63519.47005138068,168769.0
63519.48014034823,168794.0
63519.49022931577,168789.0
63519.500318283324,168735.0
63519.51040725087,168762.0
63519.520496218414,168756.0
63519.53058518597,168807.0
63519.54067415351,168787.0
63519.55076312106,168810.0
63519.56085208861,168820.0
63519.570941056154,168798.0
63519.5810300237,168809.0
63519.59111899125,168839.0
63519.601207958796,168860.0
63519.61129692634,168877.0
63519.62138589389,168888.0
63519.63147486144,168885.0
63519.64156382898,168903.0
63519.65165279653,168892.0
63519.66174176408,168896.0
63519.671830731626,168925.0
63519.68191969917,168938.0
63519.69200866672,168992.0
63519.70209763427,168928.0
63519.71218660181,168957.0
63519.722275569366,168928.0
63519.73236453691,168954.0
63519.742453504456,168931.0
63519.75254247201,168972.0
63519.76263143955,168971.0
63519.7727204071,169010.0
63519.78280937465,169026.0
63519.792898342195,169032.0
63519.80298730974,169012.0
63519.813076277285,169004.0
63519.82316524484,169014.0
63519.83325421238,169089.0
63519.84334317993,169046.0
63519.85343214748,169039.0
63519.863521115025,169043.0
63519.87361008257,169046.0
63519.88369905012,169094.0
63519.89378801767,169109.0
63519.90387698521,169098.0
63519.913965952765,169088.0
63519.92405492031,169141.0
63519.934143887855,169110.0
63519.94423285541,169138.0
63519.95432182295,169183.0
63519.9644107905,169174.0
63519.97449975805,169176.0
63519.984588725594,169188.0
63519.99467769314,169189.0
63520.004766660684,169186.0
63520.01485562824,169138.0
63520.02494459578,169170.0
63520.03503356333,169097.0
63520.04512253088,169073.0
63520.055211498424,169023.0
63520.06530046597,168954.0
63520.07538943352,168899.0
63520.085478401066,168913.0
63520.09556736861,168852.0
63520.10565633616,168809.0
63520.11574530371,168817.0
63520.12583427125,168817.0
63520.135923238806,168796.0
63520.14601220635,168832.0
63520.156101173896,168806.0
63520.16619014145,168806.0
63520.17627910899,168765.0
63520.18636807654,168819.0
63520.19645704408,168803.0
63520.206546011636,168801.0
63520.21663497918,168835.0
63520.226723946726,168835.0
63520.23681291428,168807.0
63520.24690188182,168823.0
63520.25699084937,168816.0
63520.26707981692,168820.0
63520.277168784465,168844.0
63520.28725775201,168854.0
63520.29734671956,168835.0
63520.30743568711,168798.0
63520.31752465465,168810.0
63520.327613622205,168815.0
63520.33770258975,168806.0
63520.347791557295,168785.0
63520.35788052484,168823.0
63520.36796949239,168782.0
63520.37805845994,168782.0
63520.38814742748,168770.0
63520.398236395034,168770.0
63520.40832536258,168760.0
63520.418414330125,168799.0
63520.42850329768,168816.0
63520.43859226522,168791.0
63520.44868123277,168835.0
63520.45877020032,168819.0
63520.468859167864,168814.0
63520.47894813541,168796.0
63520.48903710296,168848.0
63520.49912607051,168850.0
63520.50921503805,168876.0
63520.519304005604,168866.0
63520.52939297315,168894.0
63520.539481940694,168883.0
63520.54957090824,168894.0
63520.55965987579,168909.0
63520.569748843336,168931.0
63520.57983781088,168928.0
63520.58992677843,168934.0
63520.60001574598,168959.0
63520.61010471352,168963.0
63520.620193681076,168941.0
63520.63028264862,168938.0
63520.640371616166,168938.0
63520.65046058372,168946.0
63520.66054955126,168974.0
63520.67063851881,168995.0
63520.68072748636,168957.0
63520.690816453905,169012.0
63520.70090542145,168979.0
63520.710994388995,169000.0
63520.72108335655,169028.0
63520.73117232409,169028.0
63520.74126129164,169027.0
63520.75135025919,169007.0
63520.761439226735,169060.0
63520.77152819428,169034.0
63520.78161716183,169028.0
63520.79170612938,169079.0
63520.80179509692,169097.0
63520.811884064475,169054.0
63520.82197303202,169115.0
63520.832061999565,169091.0
63520.84215096712,169111.0
63520.85223993466,169089.0
63520.86232890221,169113.0
63520.87241786976,169048.0
63520.882506837304,168999.0
63520.89259580485,168973.0
63520.902684772394,168907.0
63520.91277373995,168880.0
63520.92286270749,168809.0
63520.93295167504,168828.0
63520.94304064259,168772.0
63520.953129610134,168722.0
63520.96321857768,168710.0
63520.97330754523,168700.0
63520.98339651278,168660.0
63520.99348548032,168694.0
63521.003574447874,168697.0
63521.01366341542,168675.0
63521.023752382964,168698.0
63521.033841350516,168667.0
63521.04393031806,168688.0
63521.054019285606,168645.0
63521.06410825316,168700.0
63521.0741972207,168706.0
63521.08428618825,168665.0
63521.09437515579,168695.0
63521.104464123346,168720.0
63521.11455309089,168701.0
63521.124642058436,168717.0
63521.13473102599,168723.0
63521.14481999353,168707.0
63521.15490896108,168692.0
63521.16499792863,168681.0
63521.175086896175,168683.0
63521.18517586372,168641.0
63521.19526483127,168678.0
63521.20535379882,168665.0
63521.21544276636,168654.0
63521.225531733915,168656.0
63521.23562070146,168655.0
63521.245709669005,168676.0
63521.25579863656,168655.0
63521.2658876041,168688.0
63521.27597657165,168682.0
63521.28606553919,168671.0
63521.296154506745,168649.0
63521.30624347429,168694.0
63521.316332441835,168695.0
63521.32642140939,168724.0
63521.33651037693,168758.0
63521.34659934448,168765.0
63521.35668831203,168726.0
63521.366777279574,168762.0
63521.37686624712,168799.0
63521.38695521467,168789.0
63521.39704418222,168801.0
63521.40713314976,168793.0
63521.417222117314,168801.0
63521.42731108486,168788.0
63521.437400052404,168786.0
63521.44748901995,168825.0
63521.4575779875,168854.0
63521.467666955046,168835.0
63521.47775592259,168875.0
63521.48784489014,168871.0
63521.49793385769,168857.0
63521.508022825234,168860.0
63521.518111792786,168868.0
63521.52820076033,168902.0
63521.538289727876,168928.0
63521.54837869543,168934.0
63521.55846766297,168902.0
63521.56855663052,168870.0
63521.57864559807,168923.0
63521.588734565616,168945.0
63521.59882353316,168948.0
63521.60891250071,168959.0
63521.61900146826,168958.0
63521.6290904358,168937.0
63521.63917940335,168960.0
63521.6492683709,169008.0
63521.659357338445,169014.0
63521.66944630599,169000.0
63521.67953527354,169055.0
63521.68962424109,169034.0
63521.69971320863,168983.0
63521.709802176185,169039.0
63521.71989114373,169038.0
63521.729980111275,169050.0
63521.74006907883,169002.0
63521.75015804637,169009.0
63521.76024701392,168913.0
63521.77033598147,168888.0
63521.780424949015,168830.0
63521.79051391656,168807.0
63521.800602884105,168708.0
63521.81069185166,168699.0
63521.8207808192,168646.0
63521.83086978675,168546.0
63521.8409587543,168606.0
63521.851047721844,168601.0
63521.86113668939,168576.0
63521.87122565694,168539.0
63521.88131462449,168567.0
63521.89140359203,168554.0
63521.901492559584,168556.0
63521.91158152713,168528.0
63521.921670494674,168562.0
63521.931759462226,168510.0
63521.94184842977,168541.0
63521.951937397316,168499.0
63521.96202636487,168546.0
63521.97211533241,168522.0
63521.98220429996,168508.0
63521.9922932675,168512.0
63522.002382235056,168525.0
63522.0124712026,168494.0
63522.022560170146,168521.0
63522.0326491377,168527.0
63522.04273810524,168489.0
63522.05282707279,168513.0
63522.06291604034,168502.0
63522.073005007886,168481.0
63522.08309397543,168520.0
63522.09318294298,168457.0
63522.10327191053,168462.0
63522.11336087807,168434.0
63522.123449845625,168473.0
63522.13353881317,168491.0
63522.143627780715,168486.0
63522.15371674827,168465.0
63522.16380571581,168474.0
63522.17389468336,168479.0
63522.1839836509,168511.0
63522.194072618455,168550.0
63522.204161586,168541.0
63522.214250553545,168494.0
63522.2243395211,168545.0
63522.23442848864,168581.0
63522.24451745619,168524.0
63522.25460642374,168569.0
63522.264695391284,168582.0
63522.27478435883,168575.0
63522.28487332638,168604.0
63522.29496229393,168623.0
63522.30505126147,168623.0
63522.315140229024,168619.0
63522.32522919657,168645.0
63522.335318164114,168663.0
63522.34540713167,168628.0
63522.35549609921,168667.0
63522.36558506676,168679.0
63522.3756740343,168678.0
63522.385763001854,168707.0
63522.3958519694,168699.0
63522.405940936944,168709.0
63522.416029904496,168673.0
63522.42611887204,168751.0
63522.436207839586,168725.0
63522.44629680714,168735.0
63522.45638577468,168725.0
63522.46647474223,168725.0
63522.47656370978,168753.0
63522.486652677326,168787.0
63522.49674164487,168803.0
63522.50683061242,168809.0
63522.51691957997,168807.0
63522.52700854751,168800.0
63522.53709751506,168831.0
63522.54718648261,168829.0
63522.557275450155,168854.0
63522.5673644177,168864.0
63522.57745338525,168847.0
63522.5875423528,168899.0
63522.59763132034,168897.0
63522.607720287895,168856.0
63522.61780925544,168902.0
63522.627898222985,168896.0
63522.63798719054,168881.0
63522.64807615808,168817.0
63522.65816512563,168728.0
63522.66825409318,168741.0
63522.678343060725,168683.0
63522.68843202827,168643.0
63522.69852099582,168603.0
63522.70860996337,168559.0
63522.71869893091,168518.0
63522.72878789846,168461.0
63522.73887686601,168460.0
63522.748965833554,168461.0
63522.7590548011,168457.0
63522.76914376865,168455.0
63522.7792327362,168469.0
63522.78932170374,168422.0
63522.799410671294,168421.0
63522.80949963884,168416.0
63522.819588606384,168447.0
63522.829677573936,168416.0
63522.83976654148,168419.0
63522.84985550903,168401.0
63522.85994447658,168411.0
63522.870033444124,168423.0
63522.88012241167,168385.0
63522.890211379214,168427.0
63522.900300346766,168431.0
63522.91038931431,168402.0
63522.920478281856,168412.0
63522.93056724941,168404.0
63522.94065621695,168396.0
63522.9507451845,168381.0
63522.96083415205,168418.0
63522.970923119596,168412.0
63522.98101208714,168364.0
63522.99110105469,168359.0
63523.00119002224,168371.0
63523.01127898978,168384.0
63523.021367957335,168402.0
63523.03145692488,168401.0
63523.041545892425,168407.0
63523.05163485998,168388.0
63523.06172382752,168379.0
63523.07181279507,168412.0
63523.08190176261,168400.0
63523.091990730165,168443.0
63523.10207969771,168454.0
63523.112168665255,168501.0
63523.12225763281,168508.0
63523.13234660035,168488.0
63523.1424355679,168475.0
63523.15252453545,168508.0
63523.162613502995,168524.0
63523.17270247054,168501.0
63523.18279143809,168535.0
63523.19288040564,168530.0
63523.20296937318,168518.0
63523.213058340734,168569.0
63523.22314730828,168558.0
63523.233236275824,168570.0
63523.24332524338,168562.0
63523.25341421092,168603.0
63523.26350317847,168624.0
63523.27359214601,168626.0
63523.283681113564,168608.0
63523.29377008111,168622.0
63523.303859048654,168611.0
63523.313948016206,168662.0
63523.32403698375,168649.0
63523.334125951296,168672.0
63523.34421491885,168678.0
63523.35430388639,168658.0
63523.36439285394,168719.0
63523.37448182149,168672.0
63523.384570789036,168710.0
63523.39465975658,168683.0
63523.40474872413,168716.0
63523.41483769168,168725.0
63523.42492665922,168759.0
63523.43501562677,168761.0
63523.44510459432,168749.0
63523.455193561866,168809.0
