time,ppg
63478.947234693966,154558.0
63478.95732856203,154546.0
63478.96742243008,154530.0
63478.97751629814,154540.0
63478.987610166194,154564.0
63478.99770403426,154558.0
63479.00779790231,154564.0
63479.01789177037,154588.0
63479.02798563842,154590.0
63479.038079506485,154575.0
63479.04817337454,154566.0
63479.058267242595,154596.0
63479.06836111065,154597.0
63479.078454978706,154596.0
63479.08854884677,154602.0
63479.098642714824,154563.0
63479.10873658288,154603.0
63479.118830450934,154588.0
63479.128924319,154589.0
63479.13901818705,154596.0
63479.14911205511,154602.0
63479.15920592316,154627.0
63479.169299791225,154613.0
63479.17939365928,154649.0
63479.189487527336,154628.0
63479.19958139539,154656.0
63479.20967526345,154668.0
63479.21976913151,154647.0
63479.229862999564,154630.0
63479.23995686762,154672.0
63479.250050735674,154654.0
63479.26014460374,154652.0
63479.27023847179,154656.0
63479.28033233985,154718.0
63479.2904262079,154700.0
63479.300520075965,154701.0
63479.31061394402,154759.0
63479.320707812076,154745.0
63479.33080168013,154727.0
63479.340895548194,154717.0
63479.35098941625,154764.0
63479.361083284304,154758.0
63479.37117715236,154753.0
63479.38127102042,154759.0
63479.39136488848,154784.0
63479.40145875653,154773.0
63479.41155262459,154772.0
63479.42164649264,154804.0
63479.431740360706,154765.0
63479.44183422876,154807.0
63479.451928096816,154795.0
63479.46202196487,154790.0
63479.472115832934,154727.0
63479.48220970099,154729.0
63479.492303569044,154666.0
63479.5023974371,154609.0
63479.51249130516,154585.0
63479.52258517322,154534.0
63479.53267904127,154504.0
63479.54277290933,154440.0
63479.55286677739,154492.0
63479.562960645446,154474.0
63479.5730545135,154469.0
63479.58314838156,154475.0
63479.59324224961,154501.0
63479.603336117674,154493.0
63479.61342998573,154487.0
63479.623523853785,154466.0
63479.63361772184,154508.0
63479.6437115899,154519.0
63479.65380545796,154496.0
63479.66389932601,154457.0
63479.67399319407,154474.0
63479.68408706213,154487.0
63479.694180930186,154482.0
63479.70427479824,154508.0
63479.7143686663,154468.0
63479.72446253436,154520.0
63479.734556402414,154497.0
63479.74465027047,154503.0
63479.754744138525,154487.0
63479.76483800658,154472.0
63479.77493187464,154511.0
63479.7850257427,154502.0
63479.79511961075,154466.0
63479.80521347881,154479.0
63479.81530734687,154475.0
63479.82540121493,154471.0
63479.83549508298,154466.0
63479.84558895104,154463.0
63479.8556828191,154459.0
63479.865776687155,154503.0
63479.87587055521,154506.0
63479.885964423265,154467.0
63479.89605829133,154535.0
63479.90615215938,154521.0
63479.91624602744,154504.0
63479.92633989549,154521.0
63479.93643376355,154517.0
63479.94652763161,154549.0
63479.95662149967,154525.0
63479.96671536772,154539.0
63479.97680923578,154537.0
63479.98690310384,154562.0
63479.996996971895,154554.0
63480.00709083995,154616.0
63480.017184708006,154595.0
63480.02727857607,154571.0
63480.03737244412,154580.0
63480.04746631218,154551.0
63480.057560180234,154627.0
63480.06765404829,154590.0
63480.07774791635,154596.0
63480.08784178441,154571.0
63480.09793565246,154615.0
63480.10802952052,154615.0
63480.11812338858,154604.0
63480.128217256635,154642.0
63480.13831112469,154622.0
63480.148404992746,154626.0
63480.15849886081,154623.0
63480.16859272886,154640.0
63480.17868659692,154596.0
63480.188780464974,154655.0
63480.19887433304,154668.0
63480.20896820109,154656.0
63480.21906206915,154661.0
63480.2291559372,154682.0
63480.23924980526,154696.0
63480.24934367332,154692.0
63480.259437541376,154709.0
63480.26953140943,154691.0
63480.279625277486,154688.0
63480.28971914555,154711.0
63480.299813013604,154700.0
63480.30990688166,154712.0
63480.320000749714,154712.0
63480.33009461778,154751.0
63480.34018848583,154712.0
63480.35028235389,154766.0
63480.36037622194,154756.0
63480.370470090005,154756.0
63480.38056395806,154781.0
63480.390657826116,154776.0
63480.40075169417,154789.0
63480.410845562226,154779.0
63480.42093943029,154819.0
63480.431033298344,154780.0
63480.4411271664,154805.0
63480.451221034455,154825.0
63480.46131490252,154770.0
63480.47140877057,154773.0
63480.48150263863,154781.0
63480.49159650668,154760.0
63480.501690374746,154691.0
63480.5117842428,154665.0
63480.521878110856,154616.0
63480.53197197891,154565.0
63480.542065846974,154516.0
63480.55215971503,154542.0
63480.562253583084,154503.0
63480.57234745114,154478.0
63480.582441319195,154508.0
63480.59253518726,154466.0
63480.60262905531,154485.0
63480.61272292337,154458.0
63480.62281679142,154526.0
63480.632910659486,154507.0
63480.64300452754,154528.0
63480.653098395596,154519.0
63480.66319226365,154495.0
63480.673286131714,154504.0
63480.68337999977,154528.0
63480.693473867825,154548.0
63480.70356773588,154513.0
63480.713661603935,154516.0
63480.723755472,154489.0
63480.73384934005,154539.0
63480.74394320811,154529.0
63480.75403707616,154510.0
63480.764130944226,154526.0
63480.77422481228,154539.0
63480.78431868034,154513.0
63480.79441254839,154512.0
63480.804506416454,154517.0
63480.81460028451,154523.0
63480.824694152565,154475.0
63480.83478802062,154486.0
63480.84488188868,154507.0
63480.85497575674,154496.0
63480.86506962479,154523.0
63480.87516349285,154539.0
63480.885257360904,154511.0
63480.895351228966,154535.0
63480.90544509702,154557.0
63480.91553896508,154557.0
63480.92563283313,154568.0
63480.935726701195,154583.0
63480.94582056925,154558.0
63480.955914437305,154584.0
63480.96600830536,154608.0
63480.97610217342,154602.0
63480.98619604148,154577.0
63480.99628990953,154597.0
63481.00638377759,154583.0
63481.01647764565,154610.0
63481.02657151371,154598.0
63481.03666538176,154617.0
63481.04675924982,154603.0
63481.05685311787,154632.0
63481.066946985935,154665.0
63481.07704085399,154644.0
63481.087134722045,154622.0
63481.0972285901,154662.0
63481.10732245816,154664.0
63481.11741632622,154631.0
63481.127510194274,154651.0
63481.13760406233,154661.0
63481.14769793039,154659.0
63481.15779179845,154687.0
63481.1678856665,154666.0
63481.17797953456,154681.0
63481.18807340262,154648.0
63481.198167270675,154705.0
63481.20826113873,154680.0
63481.218355006786,154710.0
63481.22844887484,154736.0
63481.2385427429,154755.0
63481.24863661096,154688.0
63481.258730479014,154708.0
63481.26882434707,154738.0
63481.27891821513,154726.0
63481.28901208319,154758.0
63481.29910595124,154752.0
63481.3091998193,154738.0
63481.31929368736,154729.0
63481.329387555415,154793.0
63481.33948142347,154774.0
63481.349575291526,154809.0
63481.35966915959,154801.0
63481.369763027644,154762.0
63481.3798568957,154800.0
63481.389950763754,154820.0
63481.40004463181,154796.0
63481.41013849987,154831.0
63481.42023236793,154833.0
63481.43032623598,154835.0
63481.44042010404,154799.0
63481.4505139721,154860.0
63481.460607840156,154817.0
63481.47070170821,154826.0
63481.480795576266,154839.0
63481.49088944433,154837.0
63481.500983312384,154738.0
63481.51107718044,154717.0
63481.521171048495,154700.0
63481.53126491656,154581.0
63481.54135878461,154584.0
63481.55145265267,154557.0
63481.56154652072,154512.0
63481.57164038878,154531.0
63481.58173425684,154540.0
63481.591828124896,154513.0
63481.60192199295,154501.0
63481.61201586101,154560.0
63481.62210972907,154526.0
63481.632203597124,154549.0
63481.64229746518,154534.0
63481.652391333235,154570.0
63481.6624852013,154556.0
63481.67257906935,154558.0
63481.68267293741,154571.0
63481.69276680546,154563.0
63481.70286067352,154548.0
63481.71295454158,154565.0
63481.723048409636,154570.0
63481.73314227769,154562.0
63481.74323614575,154559.0
63481.75333001381,154574.0
63481.763423881865,154540.0
63481.77351774992,154603.0
63481.783611617975,154585.0
63481.79370548604,154537.0
63481.80379935409,154561.0
63481.81389322215,154584.0
63481.8239870902,154532.0
63481.834080958266,154545.0
63481.84417482632,154583.0
63481.85426869438,154562.0
63481.86436256243,154553.0
63481.87445643049,154576.0
63481.88455029855,154566.0
63481.894644166605,154570.0
63481.90473803466,154591.0
63481.914831902715,154600.0
63481.92492577078,154574.0
63481.93501963883,154632.0
63481.94511350689,154588.0
63481.955207374944,154624.0
63481.965301243006,154615.0
63481.97539511106,154627.0
63481.98548897912,154654.0
63481.99558284717,154663.0
63482.005676715235,154664.0
63482.01577058329,154647.0
63482.025864451345,154636.0
63482.0359583194,154700.0
63482.046052187456,154685.0
63482.05614605552,154686.0
63482.06623992357,154655.0
63482.07633379163,154675.0
63482.086427659684,154686.0
63482.09652152775,154675.0
63482.1066153958,154729.0
63482.11670926386,154705.0
63482.12680313191,154700.0
63482.136896999975,154712.0
63482.14699086803,154681.0
63482.157084736085,154721.0
63482.16717860414,154714.0
63482.1772724722,154701.0
63482.18736634026,154726.0
63482.197460208314,154746.0
63482.20755407637,154724.0
63482.217647944424,154729.0
63482.22774181249,154781.0
63482.23783568054,154744.0
63482.2479295486,154759.0
63482.25802341665,154778.0
63482.268117284715,154759.0
63482.27821115277,154811.0
63482.288305020826,154779.0
63482.29839888888,154826.0
63482.30849275694,154776.0
63482.318586625,154822.0
63482.328680493054,154834.0
63482.33877436111,154797.0
63482.348868229165,154818.0
63482.35896209723,154804.0
63482.36905596528,154833.0
63482.37914983334,154809.0
63482.38924370139,154841.0
63482.399337569455,154847.0
63482.40943143751,154864.0
63482.419525305566,154844.0
63482.42961917362,154880.0
63482.439713041684,154860.0
63482.44980690974,154890.0
63482.459900777794,154846.0
63482.46999464585,154857.0
63482.48008851391,154827.0
63482.49018238197,154836.0
63482.50027625002,154774.0
63482.51037011808,154739.0
63482.52046398613,154713.0
63482.530557854196,154661.0
63482.54065172225,154614.0
63482.550745590306,154601.0
63482.56083945836,154582.0
63482.570933326424,154561.0
63482.58102719448,154566.0
63482.591121062535,154516.0
63482.60121493059,154528.0
63482.61130879865,154558.0
63482.62140266671,154561.0
63482.63149653476,154564.0
63482.64159040282,154576.0
63482.65168427088,154606.0
63482.661778138936,154596.0
63482.67187200699,154616.0
63482.68196587505,154604.0
63482.6920597431,154610.0
63482.702153611164,154603.0
63482.71224747922,154586.0
63482.722341347275,154579.0
63482.73243521533,154580.0
63482.74252908339,154607.0
63482.75262295145,154639.0
63482.7627168195,154613.0
63482.77281068756,154630.0
63482.78290455562,154609.0
63482.792998423676,154598.0
63482.80309229173,154581.0
63482.81318615979,154622.0
63482.82328002785,154595.0
63482.833373895905,154584.0
63482.84346776396,154600.0
63482.853561632015,154587.0
63482.86365550007,154607.0
63482.87374936813,154607.0
63482.88384323619,154596.0
63482.89393710424,154605.0
63482.9040309723,154626.0
63482.91412484036,154655.0
63482.92421870842,154615.0
63482.93431257647,154618.0
63482.94440644453,154655.0
63482.95450031259,154657.0
63482.964594180645,154653.0
63482.9746880487,154674.0
63482.984781916755,154679.0
63482.99487578482,154713.0
63483.00496965287,154682.0
63483.01506352093,154662.0
63483.025157388984,154700.0
63483.03525125704,154696.0
63483.0453451251,154733.0
63483.05543899316,154691.0
63483.06553286121,154728.0
63483.07562672927,154719.0
63483.08572059733,154709.0
63483.095814465385,154706.0
63483.10590833344,154733.0
63483.116002201496,154720.0
63483.12609606956,154696.0
63483.13618993761,154717.0
63483.14628380567,154723.0
63483.156377673724,154754.0
63483.16647154179,154778.0
63483.17656540984,154750.0
63483.1866592779,154751.0
63483.19675314595,154772.0
63483.20684701401,154777.0
63483.21694088207,154754.0
63483.227034750125,154816.0
63483.23712861818,154795.0
63483.247222486236,154762.0
63483.2573163543,154832.0
63483.267410222354,154770.0
63483.27750409041,154820.0
63483.287597958464,154789.0
63483.29769182653,154804.0
63483.30778569458,154834.0
63483.31787956264,154851.0
63483.32797343069,154860.0
63483.33806729875,154861.0
63483.34816116681,154869.0
63483.358255034866,154860.0
63483.36834890292,154847.0
63483.378442770976,154888.0
63483.38853663904,154890.0
63483.398630507094,154883.0
63483.40872437515,154875.0
63483.418818243204,154900.0
63483.42891211127,154895.0
63483.43900597932,154901.0
63483.44909984738,154895.0
63483.45919371543,154933.0
63483.469287583495,154889.0
63483.47938145155,154904.0
63483.489475319606,154866.0
63483.49956918766,154825.0
63483.50966305572,154749.0
63483.51975692378,154742.0
63483.529850791834,154692.0
63483.53994465989,154627.0
63483.550038527945,154641.0
63483.56013239601,154600.0
63483.57022626406,154595.0
63483.58032013212,154578.0
63483.59041400017,154568.0
63483.600507868236,154584.0
63483.61060173629,154612.0
63483.620695604346,154614.0
63483.6307894724,154610.0
63483.640883340464,154621.0
63483.65097720852,154641.0
63483.661071076574,154597.0
63483.67116494463,154631.0
63483.681258812685,154618.0
63483.69135268075,154576.0
63483.7014465488,154673.0
63483.71154041686,154612.0
63483.72163428491,154622.0
63483.731728152976,154626.0
63483.74182202103,154672.0
63483.75191588909,154645.0
63483.76200975714,154644.0
63483.772103625204,154648.0
63483.78219749326,154659.0
63483.792291361315,154626.0
63483.80238522937,154615.0
63483.81247909743,154621.0
63483.82257296549,154608.0
63483.83266683354,154597.0
63483.8427607016,154622.0
63483.85285456965,154620.0
63483.862948437716,154610.0
63483.87304230577,154655.0
63483.88313617383,154622.0
63483.89323004188,154637.0
63483.903323909944,154662.0
63483.913417778,154639.0
63483.923511646055,154686.0
63483.93360551411,154688.0
63483.94369938217,154656.0
63483.95379325023,154639.0
63483.96388711828,154707.0
63483.97398098634,154694.0
63483.984074854394,154675.0
63483.99416872246,154719.0
63484.00426259051,154684.0
63484.01435645857,154717.0
63484.02445032662,154686.0
63484.034544194685,154691.0
63484.04463806274,154722.0
63484.054731930795,154734.0
63484.06482579885,154705.0
63484.07491966691,154703.0
63484.08501353497,154712.0
63484.09510740302,154738.0
63484.10520127108,154777.0
63484.11529513914,154742.0
63484.1253890072,154742.0
63484.13548287525,154758.0
63484.14557674331,154731.0
63484.15567061136,154772.0
63484.165764479425,154750.0
63484.17585834748,154760.0
63484.185952215536,154777.0
63484.19604608359,154761.0
63484.20613995165,154773.0
63484.21623381971,154779.0
63484.226327687764,154795.0
63484.23642155582,154783.0
63484.24651542388,154780.0
63484.25660929194,154808.0
63484.26670315999,154782.0
63484.27679702805,154807.0
63484.28689089611,154844.0
63484.296984764165,154791.0
63484.30707863222,154837.0
63484.317172500276,154851.0
63484.32726636833,154810.0
63484.33736023639,154821.0
63484.34745410445,154844.0
63484.357547972504,154851.0
63484.36764184056,154837.0
63484.37773570862,154884.0
63484.38782957668,154869.0
63484.39792344473,154870.0
63484.40801731279,154883.0
63484.41811118085,154905.0
63484.428205048906,154887.0
63484.43829891696,154881.0
63484.448392785016,154872.0
63484.45848665308,154878.0
63484.468580521134,154810.0
63484.47867438919,154789.0
63484.488768257244,154753.0
63484.4988621253,154670.0
63484.50895599336,154667.0
63484.51904986142,154672.0
63484.52914372947,154589.0
63484.53923759753,154631.0
63484.54933146559,154591.0
63484.559425333646,154567.0
63484.5695192017,154595.0
63484.579613069756,154572.0
63484.58970693782,154617.0
63484.599800805874,154604.0
63484.60989467393,154638.0
63484.619988541985,154603.0
63484.63008241005,154635.0
63484.6401762781,154645.0
63484.65027014616,154612.0
63484.66036401421,154617.0
63484.67045788227,154663.0
63484.68055175033,154693.0
63484.690645618386,154646.0
63484.70073948644,154658.0
63484.7108333545,154664.0
63484.72092722256,154696.0
63484.731021090614,154635.0
63484.74111495867,154622.0
63484.751208826725,154640.0
63484.76130269479,154629.0
63484.77139656284,154664.0
63484.7814904309,154626.0
63484.79158429895,154631.0
63484.801678167016,154602.0
63484.81177203507,154646.0
63484.821865903126,154613.0
63484.83195977118,154636.0
63484.84205363924,154635.0
63484.8521475073,154618.0
63484.862241375355,154620.0
63484.87233524341,154696.0
63484.882429111465,154659.0
63484.89252297953,154647.0
63484.90261684758,154702.0
63484.91271071564,154682.0
63484.92280458369,154682.0
63484.932898451756,154660.0
63484.94299231981,154682.0
63484.95308618787,154706.0
63484.96318005592,154706.0
63484.97327392398,154696.0
63484.98336779204,154690.0
63484.993461660095,154718.0
63485.00355552815,154711.0
63485.013649396205,154716.0
63485.02374326427,154733.0
63485.03383713232,154760.0
63485.04393100038,154741.0
63485.054024868434,154747.0
63485.064118736496,154762.0
63485.07421260455,154727.0
63485.08430647261,154741.0
63485.09440034066,154740.0
63485.104494208725,154781.0
63485.11458807678,154725.0
63485.124681944835,154767.0
63485.13477581289,154744.0
63485.144869680946,154766.0
63485.15496354901,154765.0
63485.16505741706,154766.0
63485.17515128512,154750.0
63485.185245153174,154766.0
63485.19533902124,154773.0
63485.20543288929,154791.0
63485.21552675735,154777.0
63485.2256206254,154819.0
63485.235714493465,154830.0
63485.24580836152,154822.0
63485.255902229575,154852.0
63485.26599609763,154795.0
63485.27608996569,154803.0
63485.28618383375,154829.0
63485.296277701804,154865.0
63485.30637156986,154840.0
63485.316465437914,154851.0
63485.32655930598,154861.0
63485.33665317403,154864.0
63485.34674704209,154832.0
63485.35684091014,154867.0
63485.366934778205,154821.0
63485.37702864626,154737.0
63485.387122514316,154735.0
63485.39721638237,154712.0
63485.40731025043,154617.0
63485.41740411849,154592.0
63485.427497986544,154610.0
63485.4375918546,154592.0
63485.44768572266,154595.0
63485.45777959072,154571.0
63485.46787345877,154578.0
63485.47796732683,154611.0
63485.48806119488,154598.0
63485.498155062945,154623.0
63485.508248931,154601.0
63485.518342799056,154625.0
63485.52843666711,154625.0
63485.538530535174,154598.0
63485.54862440323,154616.0
63485.558718271284,154585.0
63485.56881213934,154640.0
63485.5789060074,154660.0
63485.58899987546,154691.0
63485.59909374351,154647.0
63485.60918761157,154680.0
63485.61928147962,154658.0
63485.629375347686,154694.0
63485.63946921574,154670.0
63485.649563083796,154678.0
63485.65965695185,154634.0
63485.669750819914,154591.0
63485.67984468797,154620.0
63485.689938556025,154606.0
63485.70003242408,154616.0
63485.71012629214,154623.0
63485.7202201602,154639.0
63485.73031402825,154608.0
63485.74040789631,154633.0
63485.75050176437,154645.0
63485.760595632426,154625.0
63485.77068950048,154645.0
63485.78078336854,154660.0
63485.79087723659,154685.0
63485.800971104654,154685.0
63485.81106497271,154706.0
63485.821158840765,154691.0
63485.83125270882,154720.0
63485.84134657688,154680.0
63485.85144044494,154735.0
63485.86153431299,154714.0
63485.87162818105,154710.0
63485.88172204911,154703.0
63485.891815917166,154699.0
63485.90190978522,154744.0
63485.91200365328,154716.0
63485.92209752134,154743.0
63485.932191389395,154765.0
63485.94228525745,154747.0
63485.952379125505,154740.0
63485.96247299356,154767.0
63485.97256686162,154732.0
63485.98266072968,154734.0
63485.99275459773,154754.0
63486.00284846579,154767.0
63486.01294233385,154746.0
63486.02303620191,154750.0
63486.03313006996,154777.0
63486.04322393802,154789.0
63486.05331780608,154799.0
63486.063411674135,154803.0
63486.07350554219,154797.0
63486.083599410245,154798.0
63486.09369327831,154797.0
63486.10378714636,154793.0
63486.11388101442,154810.0
63486.123974882474,154849.0
63486.13406875053,154843.0
63486.14416261859,154848.0
63486.15425648665,154853.0
63486.1643503547,154822.0
63486.17444422276,154835.0
63486.18453809082,154802.0
63486.194631958875,154762.0
63486.20472582693,154720.0
63486.214819694986,154688.0
63486.22491356305,154607.0
63486.2350074311,154588.0
63486.24510129916,154542.0
63486.255195167214,154543.0
63486.26528903528,154551.0
63486.27538290333,154537.0
63486.28547677139,154526.0
63486.29557063944,154560.0
63486.3056645075,154522.0
63486.31575837556,154548.0
63486.325852243615,154573.0
63486.33594611167,154570.0
63486.346039979726,154566.0
63486.35613384779,154557.0
63486.366227715844,154529.0
63486.3763215839,154532.0
63486.386415451954,154548.0
63486.39650932002,154554.0
63486.40660318807,154554.0
63486.41669705613,154568.0
63486.42679092418,154547.0
63486.436884792245,154560.0
63486.4469786603,154538.0
63486.457072528356,154543.0
63486.46716639641,154580.0
63486.477260264466,154534.0
63486.48735413253,154548.0
63486.497448000584,154525.0
63486.50754186864,154556.0
63486.517635736695,154529.0
63486.52772960476,154562.0
63486.53782347281,154550.0
63486.54791734087,154541.0
63486.55801120892,154551.0
63486.568105076985,154564.0
63486.57819894504,154557.0
63486.588292813096,154560.0
63486.59838668115,154562.0
63486.60848054921,154559.0
63486.61857441727,154563.0
63486.628668285324,154591.0
63486.63876215338,154619.0
63486.648856021435,154616.0
63486.6589498895,154607.0
63486.66904375755,154644.0
63486.67913762561,154649.0
63486.68923149366,154647.0
63486.699325361726,154630.0
63486.70941922978,154661.0
63486.719513097836,154630.0
63486.72960696589,154656.0
63486.739700833954,154648.0
63486.74979470201,154623.0
63486.759888570065,154677.0
63486.76998243812,154671.0
63486.780076306175,154681.0
63486.79017017424,154681.0
63486.80026404229,154668.0
63486.81035791035,154687.0
63486.8204517784,154653.0
63486.830545646466,154716.0
63486.84063951452,154706.0
63486.85073338258,154707.0
63486.86082725063,154690.0
63486.870921118694,154666.0
63486.88101498675,154695.0
63486.891108854805,154704.0
63486.90120272286,154748.0
63486.91129659092,154705.0
63486.92139045898,154759.0
63486.93148432703,154740.0
63486.94157819509,154751.0
63486.95167206314,154708.0
63486.961765931206,154787.0
63486.97185979926,154760.0
63486.98195366732,154756.0
63486.99204753537,154802.0
63487.002141403435,154779.0
63487.01223527149,154746.0
63487.022329139545,154802.0
63487.0324230076,154801.0
63487.04251687566,154794.0
63487.05261074372,154808.0
63487.06270461177,154812.0
63487.07279847983,154761.0
63487.08289234789,154718.0
63487.09298621595,154664.0
63487.103080084,154629.0
63487.11317395206,154577.0
63487.12326782011,154574.0
63487.133361688175,154488.0
63487.14345555623,154487.0
63487.153549424285,154498.0
63487.16364329234,154450.0
63487.1737371604,154472.0
63487.18383102846,154473.0
63487.19392489651,154434.0
63487.20401876457,154474.0
63487.21411263263,154495.0
63487.22420650069,154497.0
63487.23430036874,154472.0
63487.2443942368,154483.0
63487.25448810485,154459.0
63487.264581972915,154472.0
63487.27467584097,154446.0
63487.284769709026,154450.0
63487.29486357708,154429.0
63487.30495744514,154439.0
63487.3150513132,154422.0
63487.325145181254,154446.0
63487.33523904931,154443.0
63487.34533291737,154461.0
63487.35542678543,154461.0
63487.36552065348,154435.0
63487.37561452154,154475.0
63487.3857083896,154469.0
63487.395802257655,154439.0
63487.40589612571,154454.0
63487.415989993766,154414.0
63487.42608386182,154437.0
63487.436177729884,154408.0
63487.44627159794,154480.0
63487.456365465994,154439.0
63487.46645933405,154449.0
63487.47655320211,154536.0
63487.48664707017,154509.0
63487.49674093822,154570.0
63487.50683480628,154531.0
63487.51692867434,154550.0
63487.527022542396,154564.0
63487.53711641045,154587.0
63487.547210278506,154540.0
63487.55730414657,154585.0
63487.567398014624,154553.0
63487.57749188268,154546.0
63487.587585750734,154579.0
63487.59767961879,154606.0
63487.60777348685,154572.0
63487.61786735491,154552.0
63487.62796122296,154629.0
63487.63805509102,154582.0
63487.64814895908,154598.0
63487.658242827136,154599.0
63487.66833669519,154592.0
63487.67843056325,154591.0
63487.68852443131,154612.0
63487.698618299364,154623.0
63487.70871216742,154628.0
63487.718806035475,154648.0
63487.72889990354,154643.0
63487.73899377159,154653.0
63487.74908763965,154631.0
63487.7591815077,154683.0
63487.76927537576,154666.0
63487.77936924382,154637.0
63487.789463111876,154688.0
63487.79955697993,154663.0
63487.80965084799,154694.0
63487.81974471605,154686.0
63487.829838584104,154724.0
63487.83993245216,154706.0
63487.850026320215,154712.0
63487.86012018828,154728.0
63487.87021405633,154716.0
63487.88030792439,154738.0
63487.89040179244,154749.0
63487.900495660506,154738.0
63487.91058952856,154763.0
63487.92068339662,154717.0
63487.93077726467,154708.0
63487.94087113273,154636.0
63487.95096500079,154585.0
63487.961058868845,154545.0
63487.9711527369,154509.0
63487.981246604955,154502.0
63487.99134047302,154460.0
63488.00143434107,154438.0
63488.01152820913,154425.0
63488.02162207718,154438.0
63488.031715945246,154415.0
63488.0418098133,154438.0
63488.05190368136,154423.0
63488.06199754941,154408.0
63488.072091417474,154397.0
63488.08218528553,154406.0
63488.092279153585,154412.0
63488.10237302164,154412.0
63488.112466889695,154443.0
63488.12256075776,154395.0
63488.13265462581,154398.0
63488.14274849387,154398.0
63488.152842361924,154421.0
63488.16293622999,154388.0
63488.17303009804,154417.0
63488.1831239661,154421.0
63488.19321783415,154399.0
63488.203311702215,154440.0
63488.21340557027,154388.0
63488.223499438325,154424.0
63488.23359330638,154397.0
63488.243687174436,154433.0
63488.2537810425,154394.0
63488.26387491055,154409.0
63488.27396877861,154413.0
63488.284062646664,154437.0
63488.29415651473,154385.0
63488.30425038278,154425.0
63488.31434425084,154410.0
63488.32443811889,154396.0
63488.334531986955,154425.0
63488.34462585501,154446.0
63488.354719723066,154448.0
63488.36481359112,154420.0
63488.37490745918,154500.0
63488.38500132724,154443.0
63488.395095195294,154459.0
63488.40518906335,154491.0
63488.415282931404,154456.0
63488.42537679947,154499.0
63488.43547066752,154485.0
63488.44556453558,154501.0
63488.45565840363,154479.0
63488.465752271695,154503.0
63488.47584613975,154508.0
63488.485940007806,154498.0
63488.49603387586,154529.0
63488.50612774392,154542.0
63488.51622161198,154484.0
63488.526315480034,154514.0
63488.53640934809,154560.0
63488.54650321615,154538.0
63488.55659708421,154515.0
63488.56669095226,154549.0
63488.57678482032,154529.0
63488.58687868837,154553.0
63488.596972556436,154537.0
63488.60706642449,154584.0
63488.617160292546,154552.0
63488.6272541606,154576.0
63488.637348028664,154544.0
63488.64744189672,154541.0
63488.657535764774,154549.0
63488.66762963283,154628.0
63488.67772350089,154606.0
63488.68781736895,154573.0
63488.697911237,154653.0
63488.70800510506,154614.0
63488.71809897312,154621.0
63488.728192841176,154590.0
63488.73828670923,154626.0
63488.748380577286,154613.0
63488.75847444534,154648.0
63488.768568313404,154623.0
63488.77866218146,154633.0
63488.788756049515,154643.0
63488.79884991757,154661.0
63488.80894378563,154689.0
63488.81903765369,154714.0
63488.82913152174,154673.0
63488.8392253898,154696.0
63488.84931925786,154679.0
63488.859413125916,154712.0
63488.86950699397,154726.0
63488.87960086203,154722.0
63488.88969473008,154734.0
63488.899788598144,154738.0
63488.9098824662,154701.0
63488.919976334255,154734.0
63488.93007020231,154725.0
63488.94016407037,154735.0
63488.95025793843,154713.0
63488.96035180648,154658.0
63488.97044567454,154587.0
63488.9805395426,154562.0
63488.990633410656,154504.0
63489.00072727871,154471.0
63489.01082114677,154426.0
63489.02091501483,154415.0
63489.031008882885,154423.0
63489.04110275094,154390.0
63489.051196618995,154405.0
63489.06129048705,154372.0
63489.07138435511,154433.0
63489.08147822317,154432.0
63489.09157209122,154429.0
63489.10166595928,154442.0
63489.11175982734,154402.0
63489.1218536954,154429.0
63489.13194756345,154440.0
63489.14204143151,154407.0
63489.15213529957,154377.0
63489.162229167625,154416.0
63489.17232303568,154425.0
63489.182416903735,154447.0
63489.1925107718,154435.0
63489.20260463985,154392.0
63489.21269850791,154453.0
63489.222792375964,154465.0
63489.23288624402,154436.0
63489.24298011208,154412.0
63489.25307398014,154435.0
63489.26316784819,154426.0
63489.27326171625,154437.0
63489.28335558431,154448.0
63489.293449452365,154420.0
63489.30354332042,154390.0
63489.313637188476,154422.0
63489.32373105654,154444.0
63489.33382492459,154435.0
63489.34391879265,154420.0
63489.354012660704,154422.0
63489.36410652877,154407.0
63489.37420039682,154458.0
63489.38429426488,154443.0
63489.39438813293,154462.0
63489.40448200099,154482.0
63489.41457586905,154484.0
63489.424669737105,154515.0
63489.43476360516,154526.0
63489.444857473216,154533.0
63489.45495134128,154511.0
63489.465045209334,154517.0
63489.47513907739,154504.0
63489.485232945444,154514.0
63489.49532681351,154515.0
63489.50542068156,154517.0
63489.51551454962,154504.0
63489.52560841767,154543.0
63489.535702285735,154551.0
63489.54579615379,154536.0
63489.555890021846,154554.0
63489.5659838899,154540.0
63489.576077757956,154577.0
63489.58617162602,154552.0
63489.596265494074,154518.0
63489.60635936213,154577.0
63489.616453230185,154576.0
63489.62654709825,154573.0
63489.6366409663,154570.0
63489.64673483436,154630.0
63489.65682870241,154590.0
63489.666922570475,154617.0
63489.67701643853,154610.0
63489.687110306586,154621.0
63489.69720417464,154617.0
63489.707298042704,154634.0
63489.71739191076,154637.0
63489.727485778814,154609.0
63489.73757964687,154639.0
63489.747673514925,154647.0
63489.75776738299,154625.0
63489.76786125104,154660.0
63489.7779551191,154662.0
63489.78804898715,154666.0
63489.798142855216,154663.0
63489.80823672327,154703.0
63489.818330591326,154676.0
63489.82842445938,154698.0
63489.838518327444,154665.0
63489.8486121955,154674.0
63489.858706063555,154689.0
63489.86879993161,154717.0
63489.878893799665,154704.0
63489.88898766773,154747.0
63489.89908153578,154759.0
63489.90917540384,154751.0
63489.91926927189,154736.0
63489.929363139956,154748.0
63489.93945700801,154755.0
63489.94955087607,154728.0
63489.95964474412,154693.0
63489.969738612184,154629.0
63489.97983248024,154551.0
63489.989926348295,154560.0
63490.00002021635,154507.0
63490.01011408441,154503.0
63490.02020795247,154449.0
63490.03030182052,154430.0
63490.04039568858,154440.0
63490.050489556634,154421.0
63490.060583424696,154464.0
63490.07067729275,154432.0
63490.08077116081,154411.0
63490.09086502886,154433.0
63490.100958896925,154466.0
63490.11105276498,154429.0
63490.121146633035,154441.0
63490.13124050109,154475.0
63490.14133436915,154452.0
63490.15142823721,154456.0
63490.16152210526,154428.0
63490.17161597332,154461.0
63490.18170984138,154436.0
63490.19180370944,154462.0
63490.20189757749,154475.0
63490.21199144555,154439.0
63490.2220853136,154503.0
63490.232179181665,154474.0
63490.24227304972,154443.0
63490.252366917775,154451.0
63490.26246078583,154448.0
63490.27255465389,154472.0
63490.28264852195,154445.0
63490.292742390004,154479.0
63490.30283625806,154431.0
63490.31293012612,154456.0
63490.32302399418,154451.0
63490.33311786223,154471.0
63490.34321173029,154438.0
63490.35330559835,154483.0
63490.363399466405,154480.0
63490.37349333446,154469.0
63490.383587202516,154520.0
63490.39368107057,154492.0
63490.40377493863,154513.0
63490.41386880669,154472.0
63490.423962674744,154532.0
63490.4340565428,154507.0
63490.44415041086,154533.0
63490.45424427892,154531.0
63490.46433814697,154528.0
63490.47443201503,154531.0
63490.48452588309,154567.0
63490.494619751145,154545.0
63490.5047136192,154560.0
63490.514807487256,154617.0
63490.52490135531,154556.0
63490.534995223374,154550.0
63490.54508909143,154577.0
63490.555182959484,154561.0
63490.56527682754,154594.0
63490.5753706956,154595.0
63490.58546456366,154583.0
63490.59555843171,154590.0
63490.60565229977,154594.0
63490.61574616783,154617.0
63490.625840035886,154590.0
63490.63593390394,154623.0
63490.646027771996,154643.0
63490.65612164006,154609.0
63490.666215508114,154618.0
63490.67630937617,154630.0
63490.686403244224,154646.0
63490.69649711228,154652.0
63490.70659098034,154623.0
63490.7166848484,154667.0
63490.72677871645,154667.0
63490.73687258451,154671.0
63490.74696645257,154702.0
63490.757060320626,154666.0
63490.76715418868,154687.0
63490.77724805674,154728.0
63490.7873419248,154675.0
63490.797435792854,154700.0
63490.80752966091,154708.0
63490.817623528965,154729.0
63490.82771739703,154724.0
63490.83781126508,154741.0
63490.84790513314,154735.0
63490.85799900119,154732.0
63490.86809286925,154750.0
63490.87818673731,154770.0
63490.888280605366,154757.0
63490.89837447342,154753.0
63490.90846834148,154732.0
63490.91856220954,154744.0
63490.928656077594,154804.0
63490.93874994565,154786.0
63490.948843813705,154797.0
63490.95893768177,154783.0
63490.96903154982,154761.0
63490.97912541788,154732.0
63490.98921928593,154658.0
63490.999313153996,154652.0
63491.00940702205,154582.0
63491.01950089011,154555.0
63491.02959475816,154491.0
63491.03968862622,154513.0
63491.04978249428,154432.0
63491.059876362335,154467.0
63491.06997023039,154491.0
63491.080064098445,154449.0
63491.09015796651,154499.0
63491.10025183456,154484.0
63491.11034570262,154457.0
63491.12043957067,154478.0
63491.130533438736,154509.0
63491.14062730679,154493.0
63491.15072117485,154480.0
63491.1608150429,154519.0
63491.170908910964,154476.0
63491.18100277902,154469.0
63491.191096647075,154480.0
63491.20119051513,154481.0
63491.211284383186,154520.0
63491.22137825125,154510.0
63491.2314721193,154518.0
63491.24156598736,154487.0
63491.251659855414,154489.0
63491.26175372348,154516.0
63491.27184759153,154528.0
63491.28194145959,154504.0
63491.29203532764,154519.0
63491.302129195705,154509.0
63491.31222306376,154456.0
63491.322316931815,154504.0
63491.33241079987,154506.0
63491.34250466793,154502.0
63491.35259853599,154509.0
63491.36269240404,154517.0
63491.3727862721,154499.0
63491.382880140154,154542.0
63491.39297400822,154538.0
63491.40306787627,154534.0
63491.41316174433,154572.0
63491.42325561238,154559.0
63491.433349480445,154570.0
63491.4434433485,154582.0
63491.453537216556,154599.0
63491.46363108461,154564.0
63491.47372495267,154578.0
63491.48381882073,154590.0
63491.493912688784,154583.0
63491.50400655684,154599.0
63491.514100424894,154601.0
63491.52419429296,154633.0
63491.53428816101,154601.0
63491.54438202907,154630.0
63491.55447589712,154626.0
63491.564569765185,154616.0
63491.57466363324,154635.0
63491.584757501296,154665.0
63491.59485136935,154635.0
63491.60494523741,154617.0
63491.61503910547,154647.0
63491.625132973524,154617.0
63491.63522684158,154646.0
63491.64532070964,154651.0
63491.6554145777,154679.0
63491.66550844575,154634.0
63491.67560231381,154674.0
63491.68569618186,154704.0
63491.695790049926,154684.0
63491.70588391798,154710.0
63491.715977786036,154666.0
63491.72607165409,154683.0
63491.736165522154,154667.0
63491.74625939021,154728.0
63491.756353258264,154732.0
63491.76644712632,154715.0
63491.77654099438,154748.0
63491.78663486244,154734.0
63491.79672873049,154743.0
63491.80682259855,154731.0
63491.81691646661,154719.0
63491.827010334666,154740.0
63491.83710420272,154765.0
63491.847198070776,154774.0
63491.85729193883,154758.0
63491.867385806894,154769.0
63491.87747967495,154803.0
63491.887573543005,154826.0
63491.89766741106,154786.0
63491.90776127912,154788.0
63491.91785514718,154829.0
63491.92794901523,154816.0
63491.93804288329,154827.0
63491.94813675135,154801.0
63491.958230619406,154819.0
63491.96832448746,154769.0
63491.97841835552,154732.0
63491.98851222358,154665.0
63491.998606091634,154644.0
63492.00869995969,154604.0
63492.018793827745,154559.0
63492.0288876958,154561.0
63492.03898156386,154545.0
63492.04907543192,154507.0
63492.05916929997,154488.0
63492.06926316803,154523.0
63492.07935703609,154468.0
63492.089450904146,154513.0
63492.0995447722,154478.0
63492.10963864026,154488.0
63492.11973250832,154507.0
63492.129826376375,154530.0
63492.13992024443,154527.0
63492.150014112485,154508.0
63492.16010798054,154562.0
63492.1702018486,154533.0
63492.18029571666,154568.0
63492.19038958471,154537.0
63492.20048345277,154535.0
63492.21057732083,154552.0
63492.22067118889,154558.0
63492.23076505694,154548.0
63492.240858925,154531.0
63492.25095279306,154551.0
63492.261046661115,154549.0
63492.27114052917,154529.0
63492.281234397225,154509.0
63492.29132826529,154533.0
63492.30142213334,154509.0
63492.3115160014,154521.0
63492.321609869454,154546.0
63492.33170373751,154537.0
63492.34179760557,154511.0
63492.35189147363,154531.0
63492.36198534168,154502.0
63492.37207920974,154568.0
63492.3821730778,154535.0
63492.392266945855,154547.0
63492.40236081391,154600.0
63492.412454681966,154587.0
63492.42254855003,154614.0
63492.43264241808,154601.0
63492.44273628614,154606.0
63492.452830154194,154620.0
63492.46292402226,154586.0
63492.47301789031,154631.0
63492.48311175837,154601.0
63492.49320562642,154634.0
63492.50329949448,154647.0
63492.51339336254,154634.0
63492.523487230595,154613.0
63492.53358109865,154650.0
63492.543674966706,154646.0
63492.55376883477,154670.0
63492.563862702824,154651.0
63492.57395657088,154654.0
63492.584050438934,154654.0
63492.594144307,154686.0
63492.60423817505,154686.0
63492.61433204311,154672.0
63492.62442591116,154687.0
63492.634519779225,154674.0
63492.64461364728,154700.0
63492.654707515336,154744.0
63492.66480138339,154692.0
63492.674895251446,154690.0
63492.68498911951,154696.0
63492.695082987564,154679.0
63492.70517685562,154715.0
63492.715270723675,154700.0
63492.72536459174,154719.0
63492.73545845979,154748.0
63492.74555232785,154735.0
63492.7556461959,154727.0
63492.765740063965,154769.0
63492.77583393202,154727.0
63492.785927800076,154763.0
63492.79602166813,154737.0
63492.806115536194,154750.0
63492.81620940425,154770.0
63492.826303272304,154776.0
63492.83639714036,154783.0
63492.846491008415,154758.0
63492.85658487648,154820.0
63492.86667874453,154804.0
63492.87677261259,154797.0
63492.88686648064,154818.0
63492.896960348706,154817.0
63492.90705421676,154826.0
63492.917148084816,154823.0
63492.92724195287,154821.0
63492.937335820934,154800.0
63492.94742968899,154791.0
63492.957523557045,154724.0
63492.9676174251,154721.0
63492.97771129316,154655.0
63492.98780516122,154618.0
63492.99789902927,154604.0
63493.00799289733,154541.0
63493.01808676538,154558.0
63493.028180633446,154529.0
63493.0382745015,154537.0
63493.04836836956,154454.0
63493.05846223761,154484.0
63493.068556105674,154531.0
63493.07864997373,154504.0
63493.088743841785,154560.0
63493.09883770984,154555.0
63493.1089315779,154560.0
63493.11902544596,154557.0
63493.12911931401,154575.0
63493.13921318207,154533.0
63493.149307050124,154550.0
63493.159400918186,154574.0
63493.16949478624,154582.0
63493.1795886543,154600.0
63493.18968252235,154570.0
63493.199776390415,154578.0
63493.20987025847,154564.0
63493.219964126525,154584.0
63493.23005799458,154581.0
63493.24015186264,154573.0
63493.2502457307,154554.0
63493.26033959875,154532.0
63493.27043346681,154518.0
63493.28052733487,154538.0
63493.29062120293,154578.0
63493.30071507098,154533.0
63493.31080893904,154568.0
63493.32090280709,154516.0
63493.330996675155,154522.0
63493.34109054321,154592.0
63493.351184411265,154580.0
63493.36127827932,154595.0
63493.37137214738,154588.0
63493.38146601544,154610.0
63493.391559883494,154618.0
63493.40165375155,154607.0
63493.41174761961,154629.0
63493.42184148767,154599.0
63493.43193535572,154614.0
63493.44202922378,154634.0
63493.45212309184,154658.0
63493.462216959895,154642.0
63493.47231082795,154647.0
63493.482404696006,154650.0
63493.49249856406,154628.0
63493.50259243212,154683.0
63493.51268630018,154661.0
63493.522780168234,154662.0
63493.53287403629,154659.0
63493.54296790435,154690.0
63493.55306177241,154718.0
63493.56315564046,154689.0
63493.57324950852,154708.0
63493.58334337658,154674.0
63493.593437244635,154695.0
63493.60353111269,154670.0
63493.613624980746,154678.0
63493.62371884881,154665.0
63493.633812716864,154721.0
63493.64390658492,154696.0
63493.654000452974,154686.0
63493.66409432103,154738.0
63493.67418818909,154710.0
63493.68428205715,154713.0
63493.6943759252,154726.0
63493.70446979326,154753.0
63493.71456366132,154712.0
63493.724657529376,154752.0
63493.73475139743,154737.0
63493.744845265486,154722.0
63493.75493913355,154789.0
63493.765033001604,154747.0
63493.77512686966,154763.0
63493.785220737715,154755.0
63493.79531460577,154805.0
63493.80540847383,154762.0
63493.81550234189,154796.0
63493.82559620994,154798.0
63493.835690078,154783.0
63493.84578394606,154784.0
63493.855877814116,154823.0
63493.86597168217,154782.0
63493.87606555023,154786.0
63493.88615941829,154820.0
63493.896253286344,154766.0
63493.9063471544,154678.0
63493.916441022455,154633.0
63493.92653489052,154647.0
63493.93662875857,154585.0
63493.94672262663,154522.0
63493.95681649468,154556.0
63493.96691036274,154526.0
63493.9770042308,154509.0
63493.987098098856,154487.0
63493.99719196691,154522.0
63494.00728583497,154492.0
63494.01737970303,154522.0
63494.027473571085,154515.0
63494.03756743914,154523.0
63494.047661307195,154530.0
63494.05775517526,154570.0
63494.06784904331,154599.0
63494.07794291137,154567.0
63494.08803677942,154565.0
63494.098130647486,154576.0
63494.10822451554,154604.0
63494.1183183836,154559.0
63494.12841225165,154555.0
63494.13850611971,154571.0
63494.14859998777,154581.0
63494.158693855825,154609.0
63494.16878772388,154582.0
63494.178881591935,154582.0
63494.18897546,154574.0
63494.19906932805,154543.0
63494.20916319611,154572.0
63494.219257064164,154539.0
63494.229350932226,154534.0
63494.23944480028,154544.0
63494.24953866834,154575.0
63494.25963253639,154498.0
63494.269726404455,154553.0
63494.27982027251,154586.0
63494.289914140565,154557.0
63494.30000800862,154582.0
63494.310101876676,154596.0
63494.32019574474,154603.0
63494.33028961279,154582.0
63494.34038348085,154635.0
63494.350477348904,154624.0
63494.36057121697,154619.0
63494.37066508502,154629.0
63494.38075895308,154654.0
63494.39085282113,154598.0
63494.400946689195,154629.0
63494.41104055725,154622.0
63494.421134425305,154650.0
63494.43122829336,154671.0
63494.44132216142,154649.0
63494.45141602948,154648.0
63494.461509897534,154678.0
63494.47160376559,154674.0
63494.481697633644,154660.0
63494.49179150171,154662.0
63494.50188536976,154682.0
63494.51197923782,154678.0
63494.52207310587,154655.0
63494.532166973935,154706.0
63494.54226084199,154715.0
63494.552354710046,154685.0
63494.5624485781,154687.0
63494.57254244616,154730.0
63494.58263631422,154688.0
63494.592730182274,154721.0
63494.60282405033,154740.0
63494.61291791839,154698.0
63494.62301178645,154713.0
63494.6331056545,154760.0
63494.64319952256,154771.0
63494.65329339061,154716.0
63494.663387258675,154783.0
63494.67348112673,154759.0
63494.683574994786,154744.0
63494.69366886284,154790.0
63494.703762730904,154813.0
63494.71385659896,154795.0
63494.723950467014,154796.0
63494.73404433507,154803.0
63494.74413820313,154734.0
63494.75423207119,154729.0
63494.76432593924,154642.0
63494.7744198073,154619.0
63494.78451367535,154594.0
63494.794607543416,154587.0
63494.80470141147,154505.0
63494.814795279526,154502.0
63494.82488914758,154469.0
63494.834983015644,154463.0
63494.8450768837,154475.0
63494.855170751754,154466.0
63494.86526461981,154503.0
63494.87535848787,154472.0
63494.88545235593,154501.0
63494.89554622398,154502.0
63494.90564009204,154494.0
63494.9157339601,154559.0
63494.925827828156,154536.0
63494.93592169621,154512.0
63494.94601556427,154491.0
63494.95610943232,154535.0
63494.966203300384,154525.0
63494.97629716844,154539.0
63494.986391036495,154548.0
63494.99648490455,154558.0
63495.00657877261,154551.0
63495.01667264067,154548.0
63495.02676650872,154567.0
63495.03686037678,154528.0
63495.04695424484,154541.0
63495.057048112896,154547.0
63495.06714198095,154521.0
63495.07723584901,154500.0
63495.08732971707,154508.0
63495.097423585124,154503.0
63495.10751745318,154527.0
63495.117611321235,154550.0
63495.12770518929,154531.0
63495.13779905735,154507.0
63495.14789292541,154537.0
63495.15798679346,154543.0
63495.16808066152,154566.0
63495.17817452958,154539.0
63495.18826839764,154619.0
63495.19836226569,154552.0
63495.20845613375,154588.0
63495.21855000181,154592.0
63495.228643869865,154587.0
63495.23873773792,154578.0
63495.248831605975,154604.0
63495.25892547404,154624.0
63495.26901934209,154596.0
63495.27911321015,154628.0
63495.2892070782,154623.0
63495.29930094626,154616.0
63495.30939481432,154660.0
63495.31948868238,154606.0
63495.32958255043,154615.0
63495.33967641849,154637.0
63495.34977028655,154648.0
63495.359864154605,154675.0
63495.36995802266,154664.0
63495.380051890716,154656.0
63495.39014575878,154689.0
63495.40023962683,154653.0
63495.41033349489,154685.0
63495.420427362944,154684.0
63495.430521231,154676.0
63495.44061509906,154678.0
63495.45070896712,154724.0
63495.46080283517,154692.0
63495.47089670323,154688.0
63495.48099057129,154703.0
63495.491084439345,154690.0
63495.5011783074,154728.0
63495.511272175456,154711.0
63495.52136604352,154729.0
63495.53145991157,154724.0
63495.54155377963,154752.0
63495.551647647684,154773.0
63495.56174151575,154729.0
63495.5718353838,154760.0
63495.58192925186,154776.0
63495.59202311991,154773.0
63495.60211698797,154752.0
63495.61221085603,154755.0
63495.622304724086,154753.0
63495.63239859214,154728.0
63495.642492460196,154707.0
63495.65258632826,154646.0
63495.662680196314,154574.0
63495.67277406437,154490.0
63495.682867932424,154516.0
63495.69296180049,154446.0
63495.70305566854,154446.0
63495.7131495366,154443.0
63495.72324340465,154402.0
63495.733337272715,154426.0
63495.74343114077,154436.0
63495.753525008826,154456.0
63495.76361887688,154473.0
63495.773712744936,154452.0
63495.783806613,154456.0
63495.793900481054,154427.0
63495.80399434911,154441.0
63495.814088217165,154426.0
63495.82418208523,154448.0
63495.83427595328,154434.0
63495.84436982134,154461.0
63495.85446368939,154412.0
63495.864557557456,154426.0
63495.87465142551,154432.0
63495.884745293566,154449.0
63495.89483916162,154462.0
63495.904933029684,154455.0
63495.91502689774,154458.0
63495.925120765794,154461.0
63495.93521463385,154464.0
63495.945308501905,154432.0
63495.95540236997,154451.0
63495.96549623802,154444.0
63495.97559010608,154448.0
63495.98568397413,154416.0
63495.995777842196,154442.0
63496.00587171025,154444.0
63496.015965578306,154445.0
63496.02605944636,154447.0
63496.036153314424,154463.0
63496.04624718248,154454.0
63496.056341050535,154447.0
63496.06643491859,154444.0
63496.07652878665,154493.0
63496.08662265471,154517.0
63496.09671652276,154506.0
63496.10681039082,154514.0
63496.11690425887,154517.0
63496.126998126936,154516.0
63496.13709199499,154506.0
63496.14718586305,154546.0
63496.1572797311,154539.0
63496.167373599164,154525.0
63496.17746746722,154544.0
63496.187561335275,154527.0
63496.19765520333,154545.0
63496.20774907139,154530.0
63496.21784293945,154531.0
63496.2279368075,154592.0
63496.23803067556,154571.0
63496.24812454362,154558.0
63496.258218411676,154544.0
63496.26831227973,154556.0
63496.27840614779,154572.0
63496.28850001584,154565.0
63496.298593883905,154583.0
63496.30868775196,154585.0
63496.318781620015,154605.0
63496.32887548807,154636.0
63496.33896935613,154620.0
63496.34906322419,154585.0
63496.35915709224,154632.0
63496.3692509603,154642.0
63496.37934482836,154639.0
63496.38943869642,154645.0
63496.39953256447,154647.0
63496.40962643253,154659.0
63496.41972030058,154629.0
63496.429814168645,154635.0
63496.4399080367,154676.0
63496.450001904755,154714.0
63496.46009577281,154711.0
63496.47018964087,154709.0
63496.48028350893,154681.0
63496.490377376984,154707.0
63496.50047124504,154685.0
63496.5105651131,154700.0
63496.52065898116,154707.0
63496.53075284921,154713.0
63496.54084671727,154716.0
63496.55094058533,154739.0
63496.561034453385,154750.0
63496.57112832144,154717.0
63496.581222189496,154686.0
63496.59131605755,154646.0
63496.60140992561,154574.0
63496.61150379367,154531.0
63496.621597661724,154487.0
63496.63169152978,154442.0
63496.64178539784,154471.0
63496.6518792659,154400.0
63496.66197313395,154414.0
63496.67206700201,154383.0
63496.68216087007,154387.0
63496.692254738125,154382.0
63496.70234860618,154424.0
63496.712442474236,154379.0
63496.7225363423,154426.0
63496.732630210354,154414.0
63496.74272407841,154422.0
63496.752817946464,154406.0
63496.76291181452,154397.0
63496.77300568258,154400.0
63496.78309955064,154381.0
63496.79319341869,154415.0
63496.80328728675,154357.0
63496.81338115481,154386.0
63496.823475022866,154402.0
63496.83356889092,154436.0
63496.843662758976,154386.0
63496.85375662704,154420.0
63496.863850495094,154388.0
63496.87394436315,154422.0
63496.884038231205,154437.0
63496.89413209927,154410.0
63496.90422596732,154381.0
63496.91431983538,154401.0
63496.92441370343,154392.0
63496.93450757149,154419.0
63496.94460143955,154412.0
63496.954695307606,154401.0
63496.96478917566,154392.0
63496.97488304372,154423.0
63496.98497691178,154440.0
63496.995070779834,154407.0
63497.00516464789,154446.0
63497.015258515945,154458.0
63497.02535238401,154448.0
63497.03544625206,154453.0
63497.04554012012,154464.0
63497.05563398817,154444.0
63497.06572785623,154482.0
63497.07582172429,154500.0
63497.085915592346,154476.0
63497.0960094604,154482.0
63497.10610332846,154511.0
63497.11619719652,154515.0
63497.126291064575,154483.0
63497.13638493263,154499.0
63497.146478800685,154521.0
63497.15657266875,154516.0
63497.1666665368,154525.0
63497.17676040486,154535.0
63497.18685427291,154525.0
63497.196948140976,154501.0
63497.20704200903,154552.0
63497.21713587709,154529.0
63497.22722974514,154551.0
63497.2373236132,154545.0
63497.24741748126,154571.0
63497.257511349315,154577.0
63497.26760521737,154579.0
63497.277699085425,154584.0
63497.28779295349,154573.0
63497.29788682154,154578.0
63497.3079806896,154590.0
63497.318074557654,154582.0
63497.328168425716,154590.0
63497.33826229377,154606.0
63497.34835616183,154609.0
63497.35845002988,154590.0
63497.368543897945,154651.0
63497.378637766,154617.0
63497.388731634055,154648.0
63497.39882550211,154623.0
63497.408919370166,154634.0
63497.41901323823,154633.0
63497.42910710628,154672.0
63497.43920097434,154696.0
63497.449294842394,154649.0
63497.45938871046,154674.0
63497.46948257851,154711.0
63497.47957644657,154661.0
63497.48967031462,154683.0
63497.499764182685,154727.0
63497.50985805074,154711.0
63497.519951918795,154723.0
63497.53004578685,154757.0
63497.54013965491,154702.0
63497.55023352297,154732.0
63497.560327391024,154718.0
63497.57042125908,154675.0
63497.580515127134,154681.0
63497.5906089952,154637.0
63497.60070286325,154593.0
63497.61079673131,154497.0
63497.62089059936,154483.0
63497.630984467425,154475.0
63497.64107833548,154419.0
63497.651172203536,154405.0
63497.66126607159,154428.0
63497.67135993965,154394.0
63497.68145380771,154394.0
63497.691547675764,154368.0
63497.70164154382,154405.0
63497.71173541188,154428.0
63497.72182927994,154413.0
63497.73192314799,154392.0
63497.74201701605,154388.0
63497.7521108841,154432.0
63497.762204752165,154426.0
63497.77229862022,154402.0
63497.782392488276,154410.0
63497.79248635633,154415.0
63497.802580224394,154416.0
63497.81267409245,154387.0
63497.822767960504,154387.0
63497.83286182856,154411.0
63497.84295569662,154418.0
63497.85304956468,154449.0
63497.86314343273,154425.0
63497.87323730079,154419.0
63497.88333116885,154412.0
63497.893425036906,154421.0
63497.90351890496,154386.0
63497.913612773016,154423.0
63497.92370664107,154413.0
63497.933800509134,154358.0
63497.94389437719,154409.0
63497.953988245245,154396.0
63497.9640821133,154434.0
63497.97417598136,154408.0
63497.98426984942,154448.0
63497.99436371747,154426.0
63498.00445758553,154435.0
63498.01455145359,154458.0
63498.024645321646,154479.0
63498.0347391897,154433.0
63498.04483305776,154475.0
63498.05492692581,154504.0
63498.065020793874,154474.0
63498.07511466193,154500.0
63498.085208529985,154485.0
63498.09530239804,154503.0
63498.1053962661,154477.0
63498.11549013416,154485.0
63498.12558400221,154516.0
63498.13567787027,154463.0
63498.14577173833,154533.0
63498.155865606386,154518.0
63498.16595947444,154525.0
63498.1760533425,154523.0
63498.18614721056,154515.0
63498.196241078615,154528.0
63498.20633494667,154585.0
63498.216428814725,154550.0
63498.22652268278,154529.0
63498.23661655084,154576.0
63498.2467104189,154565.0
63498.25680428695,154566.0
63498.26689815501,154562.0
63498.27699202307,154553.0
63498.28708589113,154552.0
63498.29717975918,154589.0
63498.30727362724,154592.0
63498.3173674953,154579.0
63498.327461363355,154586.0
63498.33755523141,154607.0
63498.347649099465,154636.0
63498.35774296753,154649.0
63498.36783683558,154648.0
63498.37793070364,154635.0
63498.388024571694,154643.0
63498.39811843975,154665.0
63498.40821230781,154633.0
63498.41830617587,154658.0
63498.42840004392,154662.0
63498.43849391198,154698.0
63498.44858778004,154646.0
63498.458681648095,154693.0
63498.46877551615,154694.0
63498.478869384206,154693.0
63498.48896325227,154703.0
63498.49905712032,154717.0
63498.50915098838,154719.0
63498.519244856434,154733.0
63498.5293387245,154740.0
63498.53943259255,154750.0
63498.54952646061,154773.0
63498.55962032866,154735.0
63498.56971419672,154738.0
63498.57980806478,154727.0
63498.589901932835,154719.0
63498.59999580089,154691.0
63498.610089668946,154588.0
63498.62018353701,154570.0
63498.630277405064,154531.0
63498.64037127312,154478.0
63498.650465141174,154435.0
63498.66055900924,154416.0
63498.67065287729,154387.0
63498.68074674535,154371.0
63498.6908406134,154433.0
63498.70093448146,154401.0
63498.71102834952,154393.0
63498.721122217576,154442.0
63498.73121608563,154441.0
63498.741309953686,154416.0
63498.75140382175,154437.0
63498.761497689804,154463.0
63498.77159155786,154420.0
63498.781685425914,154479.0
63498.79177929398,154436.0
63498.80187316203,154417.0
63498.81196703009,154406.0
63498.82206089814,154442.0
63498.832154766205,154438.0
63498.84224863426,154418.0
63498.852342502316,154461.0
63498.86243637037,154465.0
63498.87253023843,154444.0
63498.88262410649,154415.0
63498.892717974544,154416.0
63498.9028118426,154426.0
63498.912905710655,154429.0
63498.92299957872,154436.0
63498.93309344677,154437.0
63498.94318731483,154407.0
63498.95328118288,154424.0
63498.963375050946,154467.0
63498.973468919,154415.0
63498.983562787056,154455.0
63498.99365665511,154452.0
63499.003750523174,154491.0
63499.01384439123,154472.0
63499.023938259284,154485.0
63499.03403212734,154494.0
63499.044125995395,154487.0
63499.05421986346,154521.0
63499.06431373151,154493.0
63499.07440759957,154506.0
63499.08450146762,154496.0
63499.094595335686,154486.0
63499.10468920374,154538.0
63499.1147830718,154539.0
63499.12487693985,154526.0
63499.134970807914,154546.0
63499.14506467597,154521.0
63499.155158544025,154550.0
63499.16525241208,154565.0
63499.17534628014,154555.0
63499.1854401482,154563.0
63499.19553401625,154561.0
63499.20562788431,154553.0
63499.21572175236,154560.0
63499.225815620426,154564.0
63499.23590948848,154575.0
63499.24600335654,154600.0
63499.25609722459,154608.0
63499.266191092654,154605.0
63499.27628496071,154600.0
63499.286378828765,154609.0
63499.29647269682,154576.0
63499.30656656488,154596.0
63499.31666043294,154602.0
63499.32675430099,154619.0
63499.33684816905,154642.0
63499.34694203711,154621.0
63499.35703590517,154631.0
63499.36712977322,154643.0
63499.37722364128,154622.0
63499.38731750933,154662.0
63499.397411377395,154634.0
63499.40750524545,154663.0
63499.417599113505,154661.0
63499.42769298156,154649.0
63499.43778684962,154695.0
63499.44788071768,154699.0
63499.45797458573,154681.0
63499.46806845379,154706.0
63499.47816232185,154741.0
63499.48825618991,154704.0
63499.49835005796,154692.0
63499.50844392602,154708.0
63499.51853779408,154731.0
63499.528631662135,154736.0
63499.53872553019,154721.0
63499.548819398246,154734.0
63499.5589132663,154727.0
63499.56900713436,154753.0
63499.57910100242,154733.0
63499.589194870474,154777.0
63499.59928873853,154736.0
63499.60938260659,154738.0
63499.61947647465,154653.0
63499.6295703427,154601.0
63499.63966421076,154577.0
63499.64975807882,154544.0
63499.659851946875,154536.0
63499.66994581493,154460.0
63499.680039682986,154463.0
63499.69013355104,154427.0
63499.7002274191,154391.0
63499.71032128716,154410.0
63499.720415155214,154439.0
63499.73050902327,154442.0
63499.74060289133,154427.0
63499.75069675939,154452.0
63499.76079062744,154434.0
63499.7708844955,154459.0
63499.78097836356,154440.0
63499.791072231616,154437.0
63499.80116609967,154453.0
63499.811259967726,154468.0
63499.82135383579,154439.0
63499.831447703844,154496.0
63499.8415415719,154477.0
63499.851635439954,154462.0
63499.86172930801,154469.0
63499.87182317607,154511.0
63499.88191704413,154446.0
63499.89201091218,154467.0
63499.90210478024,154468.0
63499.9121986483,154465.0
63499.922292516356,154488.0
63499.93238638441,154463.0
63499.942480252466,154461.0
63499.95257412053,154439.0
63499.962667988584,154448.0
63499.97276185664,154465.0
63499.982855724695,154454.0
63499.99294959276,154452.0
63500.00304346081,154488.0
63500.01313732887,154424.0
63500.02323119692,154475.0
63500.03332506498,154498.0
63500.04341893304,154488.0
63500.053512801096,154475.0
63500.06360666915,154512.0
63500.07370053721,154542.0
63500.08379440527,154507.0
63500.093888273324,154552.0
63500.10398214138,154543.0
63500.114076009435,154554.0
63500.1241698775,154548.0
63500.13426374555,154529.0
63500.14435761361,154510.0
63500.15445148166,154518.0
63500.164545349726,154588.0
63500.17463921778,154544.0
63500.184733085836,154572.0
63500.19482695389,154558.0
63500.20492082195,154549.0
63500.21501469001,154554.0
63500.225108558065,154584.0
63500.23520242612,154555.0
63500.245296294175,154579.0
63500.25539016224,154604.0
63500.26548403029,154593.0
63500.27557789835,154543.0
63500.2856717664,154560.0
63500.295765634466,154613.0
63500.30585950252,154596.0
63500.31595337058,154597.0
63500.32604723863,154632.0
63500.33614110669,154581.0
63500.34623497475,154626.0
63500.356328842805,154603.0
63500.36642271086,154663.0
63500.376516578915,154635.0
63500.38661044698,154639.0
63500.39670431503,154661.0
63500.40679818309,154606.0
63500.416892051144,154658.0
63500.426985919206,154638.0
63500.43707978726,154674.0
63500.44717365532,154670.0
63500.45726752337,154692.0
63500.467361391435,154672.0
63500.47745525949,154700.0
63500.487549127545,154708.0
63500.4976429956,154678.0
63500.507736863656,154712.0
63500.51783073172,154718.0
63500.52792459977,154695.0
63500.53801846783,154707.0
63500.548112335884,154740.0
63500.55820620395,154731.0
63500.568300072,154718.0
63500.57839394006,154741.0
63500.58848780811,154678.0
63500.598581676175,154649.0
63500.60867554423,154587.0
63500.618769412285,154566.0
63500.62886328034,154496.0
63500.6389571484,154483.0
63500.64905101646,154464.0
63500.659144884514,154454.0
63500.66923875257,154435.0
63500.679332620624,154447.0
63500.68942648869,154439.0
63500.69952035674,154426.0
63500.7096142248,154468.0
63500.71970809285,154465.0
63500.729801960915,154457.0
63500.73989582897,154476.0
63500.749989697026,154494.0
63500.76008356508,154489.0
63500.77017743314,154469.0
63500.7802713012,154508.0
63500.790365169254,154471.0
63500.80045903731,154500.0
63500.81055290537,154511.0
63500.82064677343,154502.0
63500.83074064148,154501.0
63500.84083450954,154515.0
63500.85092837759,154501.0
63500.861022245655,154486.0
63500.87111611371,154518.0
63500.881209981766,154491.0
63500.89130384982,154496.0
63500.901397717884,154471.0
63500.91149158594,154492.0
63500.921585453994,154471.0
63500.93167932205,154475.0
63500.94177319011,154486.0
63500.95186705817,154436.0
63500.96196092622,154469.0
63500.97205479428,154467.0
63500.98214866234,154503.0
63500.992242530396,154489.0
63501.00233639845,154521.0
63501.012430266506,154522.0
63501.02252413456,154498.0
63501.032618002624,154523.0
63501.04271187068,154510.0
63501.052805738735,154548.0
63501.06289960679,154524.0
63501.07299347485,154568.0
63501.08308734291,154502.0
63501.09318121096,154556.0
63501.10327507902,154536.0
63501.11336894708,154599.0
63501.123462815136,154557.0
63501.13355668319,154568.0
63501.14365055125,154608.0
63501.15374441931,154566.0
63501.163838287364,154554.0
63501.17393215542,154584.0
63501.184026023475,154559.0
63501.19411989153,154579.0
63501.20421375959,154604.0
63501.21430762765,154576.0
63501.2244014957,154583.0
63501.23449536376,154611.0
63501.24458923182,154573.0
63501.254683099876,154605.0
63501.26477696793,154590.0
63501.27487083599,154592.0
63501.28496470405,154609.0
63501.295058572105,154621.0
63501.30515244016,154619.0
63501.315246308215,154621.0
63501.32534017627,154613.0
63501.33543404433,154642.0
63501.34552791239,154656.0
63501.35562178044,154647.0
63501.3657156485,154648.0
63501.37580951656,154673.0
63501.38590338462,154642.0
63501.39599725267,154668.0
63501.40609112073,154718.0
63501.41618498879,154685.0
63501.426278856845,154674.0
63501.4363727249,154693.0
63501.446466592955,154661.0
63501.45656046102,154679.0
63501.46665432907,154676.0
63501.47674819713,154596.0
63501.486842065184,154563.0
63501.49693593324,154538.0
63501.5070298013,154496.0
63501.51712366936,154442.0
63501.52721753741,154452.0
63501.53731140547,154407.0
63501.54740527353,154422.0
63501.557499141585,154387.0
63501.56759300964,154398.0
63501.577686877696,154417.0
63501.58778074576,154426.0
63501.59787461381,154439.0
63501.60796848187,154421.0
63501.618062349924,154445.0
63501.62815621799,154440.0
63501.63825008604,154446.0
63501.6483439541,154450.0
63501.65843782215,154456.0
63501.66853169021,154474.0
63501.67862555827,154475.0
63501.688719426325,154514.0
63501.69881329438,154501.0
63501.708907162436,154491.0
63501.7190010305,154489.0
63501.729094898554,154491.0
63501.73918876661,154465.0
63501.749282634664,154476.0
63501.75937650273,154432.0
63501.76947037078,154453.0
63501.77956423884,154482.0
63501.78965810689,154440.0
63501.799751974955,154450.0
63501.80984584301,154403.0
63501.819939711066,154465.0
63501.83003357912,154444.0
63501.840127447176,154438.0
63501.85022131524,154464.0
63501.860315183294,154470.0
63501.87040905135,154475.0
63501.880502919405,154519.0
63501.89059678747,154506.0
63501.90069065552,154478.0
63501.91078452358,154511.0
63501.92087839163,154516.0
63501.930972259695,154530.0
63501.94106612775,154509.0
63501.951159995806,154520.0
63501.96125386386,154510.0
63501.97134773192,154523.0
63501.98144159998,154520.0
63501.991535468034,154551.0
63502.00162933609,154545.0
63502.011723204145,154594.0
63502.02181707221,154535.0
63502.03191094026,154552.0
63502.04200480832,154507.0
63502.05209867637,154585.0
63502.062192544436,154561.0
63502.07228641249,154571.0
63502.082380280546,154589.0
63502.0924741486,154547.0
63502.102568016664,154537.0
63502.11266188472,154598.0
63502.122755752775,154573.0
63502.13284962083,154542.0
63502.142943488885,154589.0
63502.15303735695,154550.0
63502.163131225,154588.0
63502.17322509306,154620.0
63502.18331896111,154575.0
63502.193412829176,154628.0
63502.20350669723,154617.0
63502.21360056529,154640.0
63502.22369443334,154590.0
63502.233788301404,154645.0
63502.24388216946,154633.0
63502.253976037515,154644.0
63502.26406990557,154618.0
63502.27416377363,154591.0
63502.28425764169,154539.0
63502.29435150974,154508.0
63502.3044453778,154447.0
63502.314539245854,154470.0
63502.324633113916,154423.0
63502.33472698197,154412.0
63502.34482085003,154406.0
63502.35491471808,154349.0
63502.365008586145,154362.0
63502.3751024542,154372.0
63502.385196322255,154374.0
63502.39529019031,154369.0
63502.40538405837,154383.0
63502.41547792643,154343.0
63502.42557179448,154365.0
63502.43566566254,154405.0
63502.4457595306,154398.0
63502.45585339866,154421.0
63502.46594726671,154432.0
63502.47604113477,154399.0
63502.48613500282,154431.0
63502.496228870885,154471.0
63502.50632273894,154452.0
63502.516416606995,154472.0
63502.52651047505,154426.0
63502.53660434311,154462.0
63502.54669821117,154391.0
63502.556792079224,154422.0
63502.56688594728,154413.0
63502.57697981534,154372.0
63502.5870736834,154428.0
63502.59716755145,154412.0
63502.60726141951,154388.0
63502.61735528757,154395.0
63502.627449155625,154383.0
63502.63754302368,154369.0
63502.647636891736,154390.0
63502.65773075979,154411.0
63502.66782462785,154414.0
63502.67791849591,154410.0
63502.688012363964,154457.0
63502.69810623202,154429.0
63502.70820010008,154432.0
63502.71829396814,154461.0
63502.72838783619,154443.0
63502.73848170425,154462.0
63502.74857557231,154471.0
63502.758669440365,154458.0
63502.76876330842,154481.0
63502.778857176476,154491.0
63502.78895104454,154494.0
63502.799044912594,154469.0
63502.80913878065,154520.0
63502.819232648704,154502.0
63502.82932651676,154482.0
63502.83942038482,154492.0
63502.84951425288,154491.0
63502.85960812093,154498.0
63502.86970198899,154493.0
63502.87979585705,154505.0
63502.889889725106,154505.0
63502.89998359316,154533.0
63502.910077461216,154563.0
63502.92017132928,154517.0
63502.930265197334,154573.0
63502.94035906539,154538.0
63502.950452933444,154555.0
63502.9605468015,154549.0
63502.97064066956,154552.0
63502.98073453762,154554.0
63502.99082840567,154569.0
63503.00092227373,154532.0
63503.01101614179,154557.0
63503.021110009846,154538.0
63503.0312038779,154526.0
63503.04129774596,154460.0
63503.05139161402,154399.0
63503.061485482074,154381.0
63503.07157935013,154367.0
63503.081673218185,154343.0
63503.09176708625,154283.0
63503.1018609543,154291.0
63503.11195482236,154270.0
63503.12204869041,154285.0
63503.13214255847,154322.0
63503.14223642653,154296.0
63503.152330294586,154275.0
63503.16242416264,154338.0
63503.1725180307,154325.0
63503.18261189876,154312.0
63503.192705766814,154306.0
63503.20279963487,154345.0
63503.212893502925,154304.0
63503.22298737099,154305.0
63503.23308123904,154337.0
63503.2431751071,154318.0
63503.25326897515,154344.0
63503.263362843216,154363.0
63503.27345671127,154332.0
63503.28355057933,154348.0
63503.29364444738,154361.0
63503.30373831544,154321.0
63503.3138321835,154344.0
63503.323926051555,154332.0
63503.33401991961,154298.0
63503.344113787665,154290.0
63503.35420765573,154331.0
63503.36430152378,154340.0
63503.37439539184,154307.0
63503.38448925989,154304.0
63503.394583127956,154336.0
63503.40467699601,154364.0
63503.41477086407,154322.0
63503.42486473212,154334.0
63503.434958600184,154371.0
63503.44505246824,154362.0
63503.455146336295,154398.0
63503.46524020435,154372.0
63503.475334072406,154389.0
63503.48542794047,154345.0
63503.49552180852,154365.0
63503.50561567658,154402.0
63503.515709544634,154408.0
63503.5258034127,154407.0
63503.53589728075,154443.0
63503.54599114881,154422.0
63503.55608501686,154419.0
63503.566178884925,154405.0
63503.57627275298,154437.0
63503.586366621035,154447.0
63503.59646048909,154455.0
63503.606554357146,154441.0
63503.61664822521,154415.0
63503.62674209326,154433.0
63503.63683596132,154456.0
63503.646929829374,154476.0
63503.65702369744,154481.0
63503.66711756549,154474.0
63503.67721143355,154483.0
63503.6873053016,154498.0
63503.697399169665,154469.0
63503.70749303772,154519.0
63503.717586905776,154506.0
63503.72768077383,154512.0
63503.73777464189,154525.0
63503.74786850995,154541.0
63503.757962378004,154488.0
63503.76805624606,154520.0
63503.778150114114,154556.0
63503.78824398218,154509.0
63503.79833785023,154533.0
63503.80843171829,154491.0
63503.81852558634,154458.0
63503.828619454405,154395.0
63503.83871332246,154368.0
63503.848807190516,154317.0
63503.85890105857,154283.0
63503.86899492663,154282.0
63503.87908879469,154224.0
63503.889182662744,154233.0
63503.8992765308,154216.0
63503.90937039886,154182.0
63503.91946426692,154191.0
63503.92955813497,154221.0
63503.93965200303,154247.0
63503.94974587108,154214.0
63503.959839739146,154243.0
63503.9699336072,154228.0
63503.980027475256,154219.0
63503.99012134331,154224.0
63504.000215211374,154240.0
63504.01030907943,154222.0
63504.020402947484,154207.0
63504.03049681554,154208.0
63504.0405906836,154196.0
63504.05068455166,154207.0
63504.06077841971,154194.0
63504.07087228777,154244.0
63504.08096615583,154219.0
63504.091060023886,154238.0
63504.10115389194,154228.0
63504.111247759996,154198.0
63504.12134162805,154217.0
63504.131435496114,154242.0
63504.14152936417,154254.0
63504.151623232225,154218.0
63504.16171710028,154226.0
63504.17181096834,154225.0
63504.1819048364,154197.0
63504.19199870445,154225.0
63504.20209257251,154215.0
63504.21218644057,154253.0
63504.222280308626,154239.0
63504.23237417668,154259.0
63504.24246804474,154247.0
63504.2525619128,154286.0
63504.262655780854,154254.0
63504.27274964891,154320.0
63504.282843516965,154296.0
63504.29293738502,154312.0
63504.30303125308,154305.0
63504.31312512114,154291.0
63504.32321898919,154284.0
63504.33331285725,154328.0
63504.34340672531,154350.0
63504.353500593366,154369.0
63504.36359446142,154343.0
63504.37368832948,154345.0
63504.38378219754,154356.0
63504.393876065595,154384.0
63504.40396993365,154339.0
63504.414063801705,154377.0
63504.42415766977,154410.0
63504.43425153782,154366.0
63504.44434540588,154396.0
63504.45443927393,154406.0
63504.46453314199,154404.0
63504.47462701005,154405.0
63504.48472087811,154429.0
63504.49481474616,154393.0
63504.50490861422,154419.0
63504.51500248228,154422.0
63504.525096350335,154448.0
63504.53519021839,154448.0
63504.545284086445,154455.0
63504.55537795451,154447.0
63504.56547182256,154435.0
63504.57556569062,154459.0
63504.585659558674,154480.0
63504.59575342673,154484.0
63504.60584729479,154490.0
63504.61594116285,154495.0
63504.6260350309,154509.0
63504.63612889896,154525.0
63504.64622276702,154545.0
63504.656316635075,154517.0
63504.66641050313,154540.0
63504.676504371186,154512.0
63504.68659823925,154534.0
63504.6966921073,154470.0
63504.70678597536,154439.0
63504.716879843414,154394.0
63504.72697371148,154361.0
63504.73706757953,154324.0
63504.74716144759,154266.0
63504.75725531564,154242.0
63504.7673491837,154222.0
63504.77744305176,154206.0
63504.787536919815,154192.0
63504.79763078787,154170.0
63504.807724655926,154188.0
63504.81781852399,154161.0
63504.827912392044,154172.0
63504.8380062601,154169.0
63504.848100128154,154154.0
63504.85819399622,154221.0
63504.86828786427,154174.0
63504.87838173233,154173.0
63504.88847560038,154145.0
63504.898569468445,154125.0
63504.9086633365,154182.0
63504.918757204556,154152.0
63504.92885107261,154124.0
63504.938944940666,154185.0
63504.94903880873,154123.0
63504.959132676784,154133.0
63504.96922654484,154170.0
63504.979320412895,154196.0
63504.98941428096,154162.0
63504.99950814901,154196.0
63505.00960201707,154196.0
63505.01969588512,154146.0
63505.029789753185,154184.0
63505.03988362124,154182.0
63505.049977489296,154156.0
63505.06007135735,154187.0
63505.070165225414,154198.0
63505.08025909347,154184.0
63505.090352961524,154186.0
63505.10044682958,154197.0
63505.110540697635,154213.0
63505.1206345657,154207.0
63505.13072843375,154218.0
63505.14082230181,154226.0
63505.15091616986,154226.0
63505.161010037926,154243.0
63505.17110390598,154225.0
63505.181197774036,154241.0
63505.19129164209,154288.0
63505.201385510154,154271.0
63505.21147937821,154265.0
63505.221573246265,154276.0
63505.23166711432,154314.0
63505.241760982375,154278.0
63505.25185485044,154255.0
63505.26194871849,154312.0
63505.27204258655,154293.0
63505.2821364546,154317.0
63505.292230322666,154318.0
63505.30232419072,154339.0
63505.31241805878,154304.0
63505.32251192683,154330.0
63505.332605794894,154349.0
63505.34269966295,154349.0
63505.352793531005,154370.0
63505.36288739906,154365.0
63505.37298126712,154351.0
63505.38307513518,154342.0
63505.39316900323,154390.0
63505.40326287129,154383.0
63505.413356739344,154381.0
63505.423450607406,154392.0
63505.43354447546,154411.0
63505.44363834352,154372.0
63505.45373221157,154411.0
63505.463826079635,154412.0
63505.47391994769,154396.0
63505.484013815745,154432.0
63505.4941076838,154393.0
63505.50420155186,154416.0
63505.51429541992,154406.0
63505.52438928797,154467.0
63505.53448315603,154465.0
63505.54457702409,154461.0
63505.55467089215,154502.0
63505.5647647602,154470.0
63505.57485862826,154498.0
63505.58495249631,154489.0
63505.595046364375,154516.0
63505.60514023243,154525.0
63505.615234100485,154528.0
63505.62532796854,154529.0
63505.6354218366,154530.0
63505.64551570466,154520.0
63505.655609572714,154543.0
63505.66570344077,154526.0
63505.67579730883,154552.0
63505.68589117689,154556.0
63505.69598504494,154549.0
63505.706078913,154491.0
63505.71617278106,154449.0
63505.726266649115,154443.0
63505.73636051717,154370.0
63505.746454385226,154319.0
63505.75654825328,154273.0
63505.76664212134,154219.0
63505.7767359894,154223.0
63505.786829857454,154201.0
63505.79692372551,154177.0
63505.80701759357,154169.0
63505.81711146163,154202.0
63505.82720532968,154249.0
63505.83729919774,154227.0
63505.8473930658,154223.0
63505.857486933855,154209.0
63505.86758080191,154223.0
63505.877674669966,154201.0
63505.88776853803,154175.0
63505.897862406084,154180.0
63505.90795627414,154171.0
63505.918050142194,154180.0
63505.92814401025,154144.0
63505.93823787831,154161.0
63505.94833174637,154188.0
63505.95842561442,154227.0
63505.96851948248,154220.0
63505.97861335054,154203.0
63505.988707218596,154182.0
63505.99880108665,154236.0
63506.008894954706,154198.0
63506.01898882277,154194.0
63506.029082690824,154198.0
63506.03917655888,154170.0
63506.049270426935,154173.0
63506.059364295,154214.0
63506.06945816305,154210.0
63506.07955203111,154174.0
63506.08964589916,154181.0
63506.09973976722,154244.0
63506.10983363528,154224.0
63506.119927503336,154216.0
63506.13002137139,154212.0
63506.14011523945,154241.0
63506.15020910751,154252.0
63506.160302975564,154296.0
63506.17039684362,154271.0
63506.180490711675,154212.0
63506.19058457974,154277.0
63506.20067844779,154254.0
63506.21077231585,154272.0
63506.2208661839,154315.0
63506.23096005196,154301.0
63506.24105392002,154287.0
63506.251147788076,154331.0
63506.26124165613,154286.0
63506.27133552419,154322.0
63506.28142939225,154289.0
63506.291523260305,154319.0
63506.30161712836,154368.0
63506.311710996415,154326.0
63506.32180486448,154328.0
63506.33189873253,154332.0
63506.34199260059,154374.0
63506.35208646864,154366.0
63506.362180336706,154353.0
63506.37227420476,154334.0
63506.38236807282,154382.0
63506.39246194087,154375.0
63506.40255580893,154405.0
63506.41264967699,154402.0
63506.422743545045,154379.0
63506.4328374131,154413.0
63506.442931281155,154429.0
63506.45302514922,154388.0
63506.46311901727,154428.0
63506.47321288533,154431.0
63506.483306753384,154430.0
63506.493400621446,154427.0
63506.5034944895,154464.0
63506.51358835756,154460.0
63506.52368222561,154440.0
63506.533776093675,154489.0
63506.54386996173,154438.0
63506.553963829785,154463.0
63506.56405769784,154490.0
63506.574151565896,154439.0
63506.58424543396,154461.0
63506.59433930201,154541.0
63506.60443317007,154511.0
63506.614527038124,154517.0
63506.62462090619,154518.0
63506.63471477424,154530.0
63506.6448086423,154537.0
63506.65490251035,154529.0
63506.664996378415,154561.0
63506.67509024647,154589.0
63506.685184114525,154559.0
63506.69527798258,154571.0
63506.70537185064,154555.0
63506.7154657187,154554.0
63506.725559586754,154578.0
63506.73565345481,154588.0
63506.745747322864,154516.0
63506.75584119093,154501.0
63506.76593505898,154451.0
63506.77602892704,154389.0
63506.78612279509,154328.0
63506.796216663155,154282.0
63506.80631053121,154289.0
63506.816404399266,154239.0
63506.82649826732,154271.0
63506.83659213538,154202.0
63506.84668600344,154241.0
63506.856779871494,154225.0
63506.86687373955,154237.0
63506.876967607604,154237.0
63506.88706147567,154273.0
63506.89715534372,154257.0
63506.90724921178,154261.0
63506.91734307983,154217.0
63506.927436947895,154265.0
63506.93753081595,154254.0
63506.947624684006,154254.0
63506.95771855206,154262.0
63506.967812420124,154221.0
63506.97790628818,154243.0
63506.988000156234,154291.0
63506.99809402429,154258.0
63507.00818789235,154261.0
63507.01828176041,154280.0
63507.02837562846,154283.0
63507.03846949652,154240.0
63507.04856336457,154282.0
63507.058657232636,154288.0
63507.06875110069,154228.0
63507.078844968746,154278.0
63507.0889388368,154259.0
63507.099032704864,154234.0
63507.10912657292,154242.0
63507.119220440974,154274.0
63507.12931430903,154238.0
63507.13940817709,154290.0
63507.14950204515,154322.0
63507.1595959132,154280.0
63507.16968978126,154305.0
63507.17978364932,154319.0
63507.189877517376,154293.0
63507.19997138543,154315.0
63507.21006525349,154314.0
63507.22015912154,154340.0
63507.230252989604,154320.0
63507.24034685766,154346.0
63507.250440725715,154323.0
63507.26053459377,154346.0
63507.27062846183,154355.0
63507.28072232989,154361.0
63507.29081619794,154334.0
63507.300910066,154379.0
63507.31100393406,154408.0
63507.321097802116,154342.0
63507.33119167017,154394.0
63507.34128553823,154383.0
63507.35137940629,154364.0
63507.361473274344,154373.0
63507.3715671424,154429.0
63507.381661010455,154395.0
63507.39175487851,154377.0
63507.40184874657,154443.0
63507.41194261463,154390.0
63507.42203648268,154424.0
63507.43213035074,154417.0
63507.4422242188,154426.0
63507.45231808686,154426.0
63507.46241195491,154434.0
63507.47250582297,154440.0
63507.48259969103,154425.0
63507.492693559085,154460.0
63507.50278742714,154460.0
63507.512881295195,154471.0
63507.52297516326,154490.0
63507.53306903131,154489.0
63507.54316289937,154489.0
63507.55325676742,154485.0
63507.56335063548,154514.0
63507.57344450354,154515.0
63507.5835383716,154496.0
63507.59363223965,154507.0
63507.60372610771,154524.0
63507.61381997577,154531.0
63507.623913843825,154543.0
63507.63400771188,154525.0
63507.644101579936,154500.0
63507.654195448,154552.0
63507.66428931605,154552.0
63507.67438318411,154561.0
63507.684477052164,154540.0
63507.69457092023,154579.0
63507.70466478828,154563.0
63507.71475865634,154571.0
63507.72485252439,154616.0
63507.73494639245,154573.0
63507.74504026051,154588.0
63507.755134128565,154593.0
63507.76522799662,154609.0
63507.775321864676,154526.0
63507.78541573274,154545.0
63507.79550960079,154483.0
63507.80560346885,154429.0
63507.815697336904,154414.0
63507.82579120497,154354.0
63507.83588507302,154340.0
63507.84597894108,154308.0
63507.85607280913,154334.0
63507.86616667719,154285.0
63507.87626054525,154291.0
63507.886354413306,154313.0
63507.89644828136,154317.0
63507.906542149416,154304.0
63507.91663601748,154325.0
63507.926729885534,154315.0
63507.93682375359,154300.0
63507.946917621644,154346.0
63507.95701148971,154325.0
63507.96710535776,154305.0
63507.97719922582,154316.0
63507.98729309387,154332.0
63507.997386961935,154323.0
63508.00748082999,154296.0
63508.017574698046,154357.0
63508.0276685661,154334.0
63508.037762434156,154322.0
63508.04785630222,154329.0
63508.057950170274,154310.0
63508.06804403833,154310.0
63508.078137906385,154335.0
63508.08823177445,154349.0
63508.0983256425,154306.0
63508.10841951056,154302.0
63508.11851337861,154338.0
63508.128607246676,154333.0
63508.13870111473,154297.0
63508.148794982786,154344.0
63508.15888885084,154341.0
63508.168982718904,154334.0
63508.17907658696,154357.0
63508.189170455014,154312.0
63508.19926432307,154360.0
63508.209358191125,154388.0
63508.21945205919,154353.0
63508.22954592724,154414.0
63508.2396397953,154394.0
63508.24973366335,154389.0
63508.259827531416,154382.0
63508.26992139947,154387.0
63508.280015267526,154408.0
63508.29010913558,154415.0
63508.300203003644,154435.0
63508.3102968717,154406.0
63508.320390739755,154419.0
63508.33048460781,154438.0
63508.34057847587,154472.0
63508.35067234393,154428.0
63508.36076621198,154462.0
63508.37086008004,154457.0
63508.38095394809,154439.0
63508.391047816156,154448.0
63508.40114168421,154478.0
63508.41123555227,154468.0
63508.42132942032,154452.0
63508.431423288384,154458.0
63508.44151715644,154459.0
63508.451611024495,154477.0
63508.46170489255,154480.0
63508.47179876061,154502.0
63508.48189262867,154488.0
63508.49198649672,154486.0
63508.50208036478,154515.0
63508.512174232834,154492.0
63508.522268100896,154528.0
63508.53236196895,154521.0
63508.54245583701,154513.0
63508.55254970506,154544.0
63508.562643573125,154551.0
63508.57273744118,154526.0
63508.582831309235,154512.0
63508.59292517729,154560.0
63508.60301904535,154557.0
63508.61311291341,154565.0
63508.62320678146,154553.0
63508.63330064952,154571.0
63508.64339451758,154570.0
63508.65348838564,154591.0
63508.66358225369,154622.0
63508.67367612175,154589.0
63508.6837699898,154644.0
63508.693863857865,154628.0
63508.70395772592,154567.0
63508.714051593975,154587.0
63508.72414546203,154601.0
63508.73423933009,154626.0
63508.74433319815,154626.0
63508.754427066204,154634.0
63508.76452093426,154561.0
63508.77461480232,154550.0
63508.78470867038,154514.0
63508.79480253843,154480.0
63508.80489640649,154426.0
63508.81499027455,154393.0
63508.825084142605,154362.0
63508.83517801066,154326.0
63508.845271878716,154358.0
63508.85536574677,154324.0
63508.86545961483,154364.0
63508.87555348289,154392.0
63508.885647350944,154371.0
63508.895741219,154360.0
63508.90583508706,154405.0
63508.91592895512,154457.0
63508.92602282317,154429.0
63508.93611669123,154425.0
63508.94621055929,154422.0
63508.956304427345,154411.0
63508.9663982954,154418.0
63508.976492163456,154413.0
63508.98658603152,154390.0
63508.996679899574,154406.0
63509.00677376763,154427.0
63509.016867635684,154372.0
63509.02696150374,154381.0
63509.0370553718,154417.0
63509.04714923986,154393.0
63509.05724310791,154429.0
63509.06733697597,154392.0
63509.07743084403,154443.0
63509.087524712086,154430.0
63509.09761858014,154456.0
63509.107712448196,154445.0
63509.11780631626,154476.0
63509.127900184314,154458.0
63509.13799405237,154474.0
63509.148087920425,154485.0
63509.15818178849,154503.0
63509.16827565654,154476.0
63509.1783695246,154492.0
63509.18846339265,154504.0
63509.19855726071,154481.0
63509.20865112877,154536.0
63509.218744996826,154510.0
63509.22883886488,154536.0
63509.23893273294,154509.0
63509.249026601,154532.0
63509.259120469054,154528.0
63509.26921433711,154530.0
63509.279308205165,154520.0
63509.28940207323,154546.0
63509.29949594128,154542.0
63509.30958980934,154532.0
63509.31968367739,154573.0
63509.329777545456,154537.0
63509.33987141351,154570.0
63509.349965281566,154561.0
63509.36005914962,154550.0
63509.37015301768,154561.0
63509.38024688574,154583.0
63509.390340753795,154580.0
63509.40043462185,154570.0
63509.410528489905,154617.0
63509.42062235797,154578.0
63509.43071622602,154595.0
63509.44081009408,154611.0
63509.45090396213,154603.0
63509.460997830196,154644.0
63509.47109169825,154642.0
63509.48118556631,154618.0
63509.49127943436,154632.0
63509.50137330242,154629.0
63509.51146717048,154648.0
63509.521561038535,154636.0
63509.53165490659,154627.0
63509.541748774645,154647.0
63509.55184264271,154681.0
63509.56193651076,154665.0
63509.57203037882,154595.0
63509.582124246874,154641.0
63509.592218114936,154593.0
63509.60231198299,154537.0
63509.61240585105,154483.0
63509.6224997191,154464.0
63509.632593587165,154448.0
63509.64268745522,154421.0
63509.652781323275,154394.0
63509.66287519133,154427.0
63509.672969059386,154407.0
63509.68306292745,154441.0
63509.6931567955,154432.0
63509.70325066356,154421.0
63509.713344531614,154437.0
63509.72343839968,154441.0
63509.73353226773,154466.0
63509.74362613579,154452.0
63509.75372000384,154464.0
63509.763813871905,154484.0
63509.77390773996,154476.0
63509.784001608015,154465.0
63509.79409547607,154500.0
63509.80418934413,154483.0
63509.81428321219,154503.0
63509.824377080244,154508.0
63509.8344709483,154483.0
63509.844564816354,154478.0
63509.85465868442,154506.0
63509.86475255247,154467.0
63509.87484642053,154461.0
63509.88494028858,154456.0
63509.895034156645,154440.0
63509.9051280247,154484.0
63509.915221892756,154475.0
63509.92531576081,154465.0
63509.93540962887,154466.0
63509.94550349693,154477.0
63509.955597364984,154445.0
63509.96569123304,154478.0
63509.9757851011,154459.0
63509.98587896916,154505.0
63509.99597283721,154507.0
63510.00606670527,154517.0
63510.01616057332,154490.0
63510.026254441385,154492.0
63510.03634830944,154505.0
63510.046442177496,154534.0
63510.05653604555,154559.0
63510.066629913614,154536.0
63510.07672378167,154579.0
63510.086817649724,154517.0
63510.09691151778,154543.0
63510.10700538584,154523.0
63510.1170992539,154559.0
63510.12719312195,154570.0
63510.13728699001,154539.0
63510.14738085806,154603.0
63510.157474726126,154558.0
63510.16756859418,154583.0
63510.177662462236,154581.0
63510.18775633029,154575.0
63510.197850198354,154606.0
63510.20794406641,154600.0
63510.218037934465,154581.0
63510.22813180252,154580.0
63510.23822567058,154595.0
63510.24831953864,154602.0
63510.25841340669,154624.0
63510.26850727475,154629.0
63510.27860114281,154628.0
63510.288695010866,154629.0
63510.29878887892,154640.0
63510.30888274698,154658.0
63510.31897661503,154652.0
63510.329070483094,154658.0
63510.33916435115,154681.0
63510.349258219205,154648.0
63510.35935208726,154664.0
63510.36944595532,154683.0
63510.37953982338,154697.0
63510.38963369143,154669.0
63510.39972755949,154701.0
63510.40982142755,154649.0
63510.419915295606,154611.0
63510.43000916366,154604.0
63510.44010303172,154555.0
63510.45019689978,154501.0
63510.460290767835,154491.0
63510.47038463589,154487.0
63510.480478503945,154443.0
63510.490572372,154441.0
63510.50066624006,154434.0
63510.51076010812,154412.0
63510.52085397617,154450.0
63510.53094784423,154453.0
63510.54104171229,154466.0
63510.55113558035,154464.0
63510.5612294484,154506.0
63510.57132331646,154468.0
63510.58141718452,154487.0
63510.591511052575,154506.0
63510.60160492063,154515.0
63510.611698788685,154501.0
63510.62179265675,154538.0
63510.6318865248,154509.0
63510.64198039286,154537.0
63510.652074260914,154576.0
63510.66216812897,154554.0
63510.67226199703,154516.0
63510.68235586509,154539.0
63510.69244973314,154537.0
63510.7025436012,154533.0
63510.71263746926,154522.0
63510.722731337315,154528.0
63510.73282520537,154508.0
63510.742919073426,154516.0
63510.75301294149,154503.0
63510.76310680954,154488.0
63510.7732006776,154507.0
63510.783294545654,154520.0
63510.79338841372,154512.0
63510.80348228177,154538.0
63510.81357614983,154570.0
63510.82367001788,154557.0
63510.83376388594,154552.0
63510.843857754,154593.0
63510.853951622055,154560.0
63510.86404549011,154581.0
63510.874139358166,154582.0
63510.88423322623,154577.0
63510.894327094284,154561.0
63510.90442096234,154596.0
63510.914514830394,154622.0
63510.92460869846,154603.0
63510.93470256651,154643.0
63510.94479643457,154619.0
63510.95489030262,154639.0
63510.964984170685,154616.0
63510.97507803874,154626.0
63510.985171906796,154637.0
63510.99526577485,154620.0
63511.005359642906,154637.0
63511.01545351097,154644.0
63511.025547379024,154620.0
63511.03564124708,154638.0
63511.045735115134,154641.0
63511.0558289832,154662.0
63511.06592285125,154671.0
63511.07601671931,154681.0
63511.08611058736,154663.0
63511.096204455425,154685.0
63511.10629832348,154719.0
63511.116392191536,154704.0
63511.12648605959,154666.0
63511.13657992765,154673.0
63511.14667379571,154694.0
63511.156767663764,154711.0
63511.16686153182,154725.0
63511.176955399875,154690.0
63511.18704926794,154696.0
63511.19714313599,154692.0
63511.20723700405,154678.0
63511.2173308721,154599.0
63511.227424740166,154592.0
63511.23751860822,154532.0
63511.247612476276,154486.0
63511.25770634433,154443.0
63511.267800212394,154473.0
63511.27789408045,154456.0
63511.287987948504,154412.0
63511.29808181656,154460.0
63511.308175684615,154426.0
63511.31826955268,154458.0
63511.32836342073,154474.0
63511.33845728879,154445.0
63511.34855115684,154477.0
63511.358645024906,154485.0
63511.36873889296,154471.0
63511.37883276102,154461.0
63511.38892662907,154489.0
63511.399020497134,154484.0
63511.40911436519,154516.0
63511.419208233245,154520.0
63511.4293021013,154507.0
63511.43939596936,154492.0
63511.44948983742,154495.0
63511.45958370547,154516.0
63511.46967757353,154489.0
63511.47977144158,154500.0
63511.489865309646,154494.0
63511.4999591777,154489.0
63511.51005304576,154484.0
63511.52014691381,154498.0
63511.530240781874,154477.0
63511.54033464993,154470.0
63511.550428517985,154524.0
63511.56052238604,154530.0
63511.5706162541,154477.0
63511.58071012216,154486.0
63511.59080399021,154511.0
63511.60089785827,154492.0
63511.61099172633,154537.0
63511.62108559439,154573.0
63511.63117946244,154545.0
63511.6412733305,154579.0
63511.65136719855,154563.0
63511.661461066615,154582.0
63511.67155493467,154558.0
63511.681648802725,154610.0
63511.69174267078,154596.0
63511.70183653884,154587.0
63511.7119304069,154604.0
63511.72202427495,154603.0
63511.73211814301,154613.0
63511.74221201107,154608.0
63511.75230587913,154584.0
63511.76239974718,154611.0
63511.77249361524,154643.0
63511.78258748329,154668.0
63511.792681351355,154655.0
63511.80277521941,154665.0
63511.812869087466,154661.0
63511.82296295552,154624.0
63511.83305682358,154630.0
63511.84315069164,154637.0
63511.853244559694,154667.0
63511.86333842775,154663.0
63511.87343229581,154686.0
63511.88352616387,154656.0
63511.89362003192,154700.0
63511.90371389998,154655.0
63511.91380776804,154709.0
63511.923901636095,154697.0
63511.93399550415,154708.0
63511.944089372206,154717.0
63511.95418324026,154710.0
63511.96427710832,154737.0
63511.97437097638,154738.0
63511.984464844434,154722.0
63511.99455871249,154754.0
63512.00465258055,154787.0
63512.01474644861,154777.0
63512.02484031666,154751.0
63512.03493418472,154772.0
63512.04502805278,154735.0
63512.055121920836,154715.0
63512.06521578889,154672.0
63512.075309656946,154623.0
63512.08540352501,154525.0
63512.095497393064,154521.0
63512.10559126112,154511.0
63512.115685129174,154444.0
63512.12577899723,154454.0
63512.13587286529,154455.0
63512.14596673335,154424.0
63512.1560606014,154480.0
63512.16615446946,154479.0
63512.17624833752,154451.0
63512.186342205576,154470.0
63512.19643607363,154475.0
63512.206529941686,154470.0
63512.21662380975,154485.0
63512.226717677804,154477.0
63512.23681154586,154447.0
63512.246905413915,154468.0
63512.25699928198,154450.0
63512.26709315003,154468.0
63512.27718701809,154458.0
63512.28728088614,154485.0
63512.2973747542,154467.0
63512.30746862226,154503.0
63512.317562490316,154472.0
63512.32765635837,154520.0
63512.33775022643,154484.0
63512.34784409449,154505.0
63512.357937962544,154521.0
63512.3680318306,154466.0
63512.378125698655,154473.0
63512.38821956672,154488.0
63512.39831343477,154512.0
63512.40840730283,154468.0
63512.41850117088,154505.0
63512.428595038946,154499.0
63512.438688907,154506.0
63512.448782775056,154530.0
63512.45887664311,154529.0
63512.46897051117,154530.0
63512.47906437923,154541.0
63512.489158247285,154578.0
63512.49925211534,154499.0
63512.509345983395,154554.0
63512.51943985146,154534.0
63512.52953371951,154554.0
63512.53962758757,154589.0
63512.54972145562,154576.0
63512.559815323686,154611.0
63512.56990919174,154596.0
63512.5800030598,154603.0
63512.59009692785,154606.0
63512.600190795914,154633.0
63512.61028466397,154625.0
63512.620378532025,154599.0
63512.63047240008,154616.0
63512.640566268135,154592.0
63512.6506601362,154617.0
63512.66075400425,154640.0
63512.67084787231,154642.0
63512.680941740364,154610.0
63512.691035608426,154673.0
63512.70112947648,154648.0
63512.71122334454,154667.0
63512.72131721259,154664.0
63512.731411080655,154648.0
63512.74150494871,154657.0
63512.751598816765,154666.0
63512.76169268482,154676.0
63512.771786552876,154706.0
63512.78188042094,154710.0
63512.79197428899,154701.0
63512.80206815705,154714.0
63512.812162025104,154708.0
63512.82225589317,154746.0
63512.83234976122,154723.0
63512.84244362928,154743.0
63512.85253749733,154706.0
63512.862631365395,154755.0
63512.87272523345,154754.0
63512.882819101505,154778.0
63512.89291296956,154791.0
63512.90300683762,154783.0
63512.91310070568,154795.0
63512.923194573734,154807.0
63512.93328844179,154791.0
63512.943382309844,154815.0
63512.95347617791,154777.0
63512.96357004596,154765.0
63512.97366391402,154694.0
63512.98375778207,154679.0
63512.993851650135,154625.0
63513.00394551819,154580.0
63513.014039386246,154546.0
63513.0241332543,154494.0
63513.03422712236,154539.0
63513.04432099042,154481.0
63513.054414858474,154470.0
63513.06450872653,154475.0
63513.07460259459,154484.0
63513.08469646265,154491.0
63513.0947903307,154493.0
63513.10488419876,154498.0
63513.11497806681,154498.0
63513.125071934875,154499.0
63513.13516580293,154540.0
63513.145259670986,154502.0
63513.15535353904,154524.0
63513.165447407104,154537.0
63513.17554127516,154493.0
63513.185635143214,154479.0
63513.19572901127,154541.0
63513.20582287933,154525.0
63513.21591674739,154508.0
63513.22601061544,154547.0
63513.2361044835,154506.0
63513.24619835156,154537.0
63513.256292219616,154525.0
63513.26638608767,154511.0
63513.276479955726,154574.0
63513.28657382378,154525.0
63513.296667691844,154495.0
63513.3067615599,154482.0
63513.316855427955,154497.0
63513.32694929601,154515.0
63513.33704316407,154526.0
63513.34713703213,154535.0
63513.35723090018,154549.0
63513.36732476824,154536.0
63513.3774186363,154546.0
63513.387512504356,154578.0
63513.39760637241,154551.0
63513.40770024047,154582.0
63513.41779410852,154592.0
63513.427887976584,154535.0
63513.43798184464,154590.0
63513.448075712695,154626.0
63513.45816958075,154620.0
63513.46826344881,154635.0
63513.47835731687,154618.0
63513.48845118492,154634.0
63513.49854505298,154648.0
63513.50863892104,154658.0
63513.518732789096,154654.0
63513.52882665715,154622.0
63513.53892052521,154665.0
63513.54901439327,154689.0
63513.559108261325,154655.0
63513.56920212938,154667.0
63513.579295997435,154672.0
63513.58938986549,154660.0
63513.59948373355,154692.0
63513.60957760161,154673.0
63513.61967146966,154706.0
63513.62976533772,154697.0
63513.63985920578,154713.0
63513.64995307384,154714.0
63513.66004694189,154722.0
63513.67014080995,154704.0
63513.68023467801,154701.0
63513.690328546065,154708.0
63513.70042241412,154765.0
63513.710516282175,154764.0
63513.72061015024,154719.0
63513.73070401829,154766.0
63513.74079788635,154772.0
63513.750891754404,154757.0
63513.76098562246,154764.0
63513.77107949052,154779.0
63513.78117335858,154793.0
63513.79126722663,154782.0
63513.80136109469,154830.0
63513.81145496275,154786.0
63513.821548830805,154822.0
63513.83164269886,154801.0
63513.841736566916,154860.0
63513.85183043498,154819.0
63513.86192430303,154843.0
63513.87201817109,154823.0
63513.882112039144,154840.0
63513.89220590721,154843.0
63513.90229977526,154874.0
63513.91239364332,154859.0
63513.92248751137,154835.0
63513.93258137943,154817.0
63513.94267524749,154743.0
63513.952769115545,154715.0
63513.9628629836,154636.0
63513.972956851656,154609.0
63513.98305071972,154557.0
63513.993144587774,154559.0
63514.00323845583,154543.0
63514.013332323884,154528.0
63514.02342619195,154573.0
63514.03352006,154562.0
63514.04361392806,154568.0
63514.05370779611,154566.0
63514.063801664175,154556.0
63514.07389553223,154586.0
63514.083989400286,154573.0
63514.09408326834,154602.0
63514.104177136396,154544.0
63514.11427100446,154600.0
63514.124364872514,154589.0
63514.13445874057,154583.0
63514.144552608625,154601.0
63514.15464647669,154610.0
63514.16474034474,154633.0
63514.1748342128,154619.0
63514.18492808085,154586.0
63514.195021948915,154612.0
63514.20511581697,154629.0
63514.215209685026,154618.0
63514.22530355308,154629.0
63514.235397421144,154582.0
63514.2454912892,154586.0
63514.255585157254,154624.0
63514.26567902531,154586.0
63514.275772893365,154613.0
63514.28586676143,154625.0
63514.29596062948,154614.0
63514.30605449754,154614.0
63514.31614836559,154620.0
63514.326242233656,154645.0
63514.33633610171,154611.0
63514.346429969766,154640.0
63514.35652383782,154657.0
63514.366617705884,154654.0
63514.37671157394,154680.0
63514.386805441995,154684.0
63514.39689931005,154679.0
63514.406993178105,154670.0
63514.41708704617,154699.0
63514.42718091422,154735.0
63514.43727478228,154683.0
63514.44736865033,154729.0
63514.457462518396,154743.0
63514.46755638645,154711.0
63514.47765025451,154736.0
63514.48774412256,154732.0
63514.497837990624,154759.0
63514.50793185868,154745.0
63514.518025726735,154766.0
63514.52811959479,154752.0
63514.53821346285,154763.0
63514.54830733091,154777.0
63514.55840119896,154764.0
63514.56849506702,154772.0
63514.578588935074,154763.0
63514.588682803136,154752.0
63514.59877667119,154760.0
63514.60887053925,154798.0
63514.6189644073,154829.0
63514.629058275365,154807.0
63514.63915214342,154827.0
63514.649246011475,154824.0
63514.65933987953,154803.0
63514.66943374759,154792.0
63514.67952761565,154852.0
63514.6896214837,154847.0
63514.69971535176,154829.0
63514.70980921982,154839.0
63514.71990308788,154835.0
63514.72999695593,154869.0
63514.74009082399,154864.0
63514.75018469204,154885.0
63514.760278560105,154869.0
63514.77037242816,154879.0
63514.780466296215,154903.0
63514.79056016427,154862.0
63514.80065403233,154904.0
63514.81074790039,154923.0
63514.820841768444,154915.0
63514.8309356365,154936.0
63514.84102950456,154922.0
63514.85112337262,154934.0
63514.86121724067,154906.0
63514.87131110873,154904.0
63514.88140497679,154948.0
63514.891498844845,154929.0
63514.9015927129,154937.0
63514.911686580956,154868.0
63514.92178044901,154826.0
63514.93187431707,154811.0
63514.94196818513,154760.0
63514.952062053184,154682.0
63514.96215592124,154688.0
63514.9722497893,154655.0
63514.98234365736,154635.0
63514.99243752541,154636.0
63515.00253139347,154640.0
63515.01262526153,154616.0
63515.022719129585,154655.0
63515.03281299764,154673.0
63515.042906865696,154664.0
63515.05300073375,154662.0
63515.063094601814,154667.0
63515.07318846987,154693.0
63515.083282337924,154668.0
63515.09337620598,154722.0
63515.10347007404,154701.0
63515.1135639421,154693.0
63515.12365781015,154715.0
63515.13375167821,154721.0
63515.14384554627,154720.0
63515.153939414326,154696.0
63515.16403328238,154752.0
63515.174127150436,154700.0
63515.1842210185,154714.0
63515.194314886554,154708.0
63515.20440875461,154711.0
63515.214502622664,154731.0
63515.22459649072,154703.0
63515.23469035878,154724.0
63515.24478422684,154711.0
63515.25487809489,154702.0
63515.26497196295,154702.0
63515.27506583101,154701.0
63515.285159699066,154685.0
63515.29525356712,154727.0
63515.30534743518,154678.0
63515.31544130324,154711.0
63515.325535171294,154744.0
63515.33562903935,154741.0
63515.345722907405,154754.0
63515.35581677547,154739.0
63515.36591064352,154732.0
63515.37600451158,154745.0
63515.38609837963,154771.0
63515.39619224769,154820.0
63515.40628611575,154771.0
63515.416379983806,154811.0
63515.42647385186,154808.0
63515.43656771992,154792.0
63515.44666158798,154810.0
63515.456755456034,154835.0
63515.46684932409,154814.0
63515.476943192145,154797.0
63515.48703706021,154840.0
63515.49713092826,154800.0
63515.50722479632,154827.0
63515.51731866437,154850.0
63515.527412532436,154837.0
63515.53750640049,154859.0
63515.54760026855,154849.0
63515.5576941366,154849.0
63515.56778800466,154799.0
63515.57788187272,154833.0
63515.587975740775,154872.0
63515.59806960883,154862.0
63515.608163476885,154868.0
63515.61825734495,154842.0
63515.628351213,154842.0
63515.63844508106,154890.0
63515.64853894911,154895.0
63515.658632817176,154900.0
63515.66872668523,154928.0
63515.67882055329,154908.0
63515.68891442134,154905.0
63515.699008289404,154904.0
63515.70910215746,154910.0
63515.719196025515,154915.0
63515.72928989357,154902.0
63515.739383761626,154941.0
63515.74947762969,154933.0
63515.75957149774,154949.0
63515.7696653658,154940.0
63515.779759233854,154954.0
63515.78985310192,155000.0
63515.79994696997,154984.0
63515.81004083803,154956.0
63515.82013470608,154971.0
63515.830228574145,154990.0
63515.8403224422,154981.0
63515.850416310255,154957.0
63515.86051017831,154957.0
63515.87060404637,154926.0
63515.88069791443,154895.0
63515.89079178248,154858.0
63515.90088565054,154778.0
63515.910979518594,154764.0
63515.92107338666,154758.0
63515.93116725471,154716.0
63515.94126112277,154719.0
63515.95135499082,154676.0
63515.961448858885,154704.0
63515.97154272694,154713.0
63515.981636594996,154677.0
63515.99173046305,154675.0
63516.00182433111,154731.0
63516.01191819917,154705.0
63516.022012067224,154753.0
63516.03210593528,154788.0
63516.042199803334,154780.0
63516.0522936714,154773.0
63516.06238753945,154772.0
63516.07248140751,154795.0
63516.08257527556,154803.0
63516.092669143625,154797.0
63516.10276301168,154762.0
63516.112856879736,154818.0
63516.12295074779,154783.0
63516.13304461585,154806.0
63516.14313848391,154797.0
63516.153232351964,154795.0
63516.16332622002,154779.0
63516.17342008808,154789.0
63516.18351395614,154800.0
63516.19360782419,154749.0
63516.20370169225,154789.0
63516.2137955603,154773.0
63516.223889428366,154762.0
63516.23398329642,154788.0
63516.244077164476,154722.0
63516.25417103253,154768.0
63516.264264900594,154782.0
63516.27435876865,154842.0
63516.284452636704,154795.0
63516.29454650476,154828.0
63516.30464037282,154825.0
63516.31473424088,154845.0
63516.32482810893,154829.0
63516.33492197699,154848.0
63516.34501584505,154828.0
63516.355109713106,154882.0
63516.36520358116,154887.0
63516.375297449216,154842.0
63516.38539131727,154889.0
63516.395485185334,154900.0
63516.40557905339,154894.0
63516.415672921445,154897.0
63516.4257667895,154885.0
63516.43586065756,154924.0
63516.44595452562,154898.0
63516.45604839367,154908.0
63516.46614226173,154864.0
63516.47623612979,154941.0
63516.486329997846,154884.0
63516.4964238659,154902.0
63516.50651773396,154924.0
63516.51661160202,154898.0
63516.526705470074,154937.0
63516.53679933813,154918.0
63516.546893206185,154936.0
63516.55698707424,154889.0
63516.5670809423,154964.0
63516.57717481036,154946.0
63516.58726867841,154932.0
63516.59736254647,154957.0
63516.60745641453,154949.0
63516.617550282586,154962.0
63516.62764415064,154953.0
63516.6377380187,154978.0
63516.64783188676,154957.0
63516.657925754815,154973.0
63516.66801962287,154986.0
63516.678113490925,154988.0
63516.68820735898,155004.0
63516.69830122704,155001.0
63516.7083950951,155019.0
63516.71848896315,155007.0
63516.72858283121,155025.0
63516.73867669927,155011.0
63516.74877056733,154995.0
63516.75886443538,154937.0
63516.76895830344,154876.0
63516.7790521715,154880.0
63516.789146039555,154822.0
63516.79923990761,154786.0
63516.809333775665,154766.0
63516.81942764373,154745.0
63516.82952151178,154749.0
63516.83961537984,154747.0
63516.849709247894,154772.0
63516.85980311595,154762.0
63516.86989698401,154751.0
63516.87999085207,154743.0
63516.89008472012,154793.0
63516.90017858818,154768.0
63516.91027245624,154797.0
63516.920366324295,154816.0
63516.93046019235,154787.0
63516.940554060406,154812.0
63516.95064792847,154836.0
63516.96074179652,154863.0
63516.97083566458,154872.0
63516.980929532634,154886.0
63516.9910234007,154856.0
63517.00111726875,154854.0
63517.01121113681,154860.0
63517.02130500486,154883.0
63517.03139887292,154859.0
63517.04149274098,154849.0
63517.051586609035,154816.0
63517.06168047709,154807.0
63517.071774345146,154822.0
63517.08186821321,154833.0
63517.091962081264,154820.0
63517.10205594932,154817.0
63517.112149817374,154821.0
63517.12224368544,154837.0
63517.13233755349,154811.0
63517.14243142155,154865.0
63517.1525252896,154846.0
63517.162619157665,154857.0
63517.17271302572,154894.0
63517.182806893776,154848.0
63517.19290076183,154882.0
63517.202994629886,154862.0
63517.21308849795,154915.0
63517.223182366004,154893.0
63517.23327623406,154940.0
63517.243370102115,154965.0
63517.25346397018,154949.0
63517.26355783823,154959.0
63517.27365170629,154941.0
63517.28374557434,154949.0
63517.293839442405,154923.0
63517.30393331046,154985.0
63517.314027178516,155017.0
63517.32412104657,154964.0
63517.334214914634,155016.0
63517.34430878269,154968.0
63517.354402650744,154965.0
63517.3644965188,154969.0
63517.374590386855,154985.0
63517.38468425492,155029.0
63517.39477812297,155039.0
63517.40487199103,155042.0
63517.41496585908,154995.0
63517.425059727146,155047.0
63517.4351535952,155049.0
63517.445247463256,155019.0
63517.45534133131,155032.0
63517.465435199374,155000.0
63517.47552906743,154925.0
63517.485622935485,154899.0
63517.49571680354,154863.0
63517.5058106716,154812.0
63517.51590453966,154804.0
63517.52599840771,154773.0
63517.53609227577,154764.0
63517.54618614382,154762.0
63517.556280011886,154752.0
63517.56637387994,154791.0
63517.576467748,154759.0
63517.58656161605,154767.0
63517.596655484114,154813.0
63517.60674935217,154771.0
63517.616843220225,154800.0
63517.62693708828,154814.0
63517.63703095634,154812.0
63517.6471248244,154810.0
63517.65721869245,154848.0
63517.66731256051,154837.0
63517.677406428564,154822.0
63517.687500296626,154847.0
63517.69759416468,154858.0
63517.70768803274,154821.0
63517.71778190079,154846.0
63517.727875768855,154838.0
63517.73796963691,154852.0
63517.748063504965,154853.0
63517.75815737302,154840.0
63517.76825124108,154806.0
63517.77834510914,154871.0
63517.78843897719,154824.0
63517.79853284525,154824.0
63517.80862671331,154812.0
63517.81872058137,154812.0
63517.82881444942,154808.0
63517.83890831748,154845.0
63517.84900218553,154821.0
63517.859096053595,154869.0
63517.86918992165,154831.0
63517.879283789705,154867.0
63517.88937765776,154880.0
63517.89947152582,154855.0
63517.90956539388,154890.0
63517.919659261934,154897.0
63517.92975312999,154878.0
63517.93984699805,154896.0
63517.94994086611,154948.0
63517.96003473416,154929.0
63517.97012860222,154925.0
63517.98022247028,154964.0
63517.990316338335,154933.0
63518.00041020639,154944.0
63518.010504074446,154912.0
63518.0205979425,154981.0
63518.03069181056,154943.0
63518.04078567862,154954.0
63518.050879546674,154963.0
63518.06097341473,154941.0
63518.07106728279,154975.0
63518.08116115085,154983.0
63518.0912550189,154973.0
63518.10134888696,154968.0
63518.11144275502,154993.0
63518.121536623075,154987.0
63518.13163049113,154975.0
63518.141724359186,155011.0
63518.15181822725,154962.0
63518.161912095304,155001.0
63518.17200596336,155004.0
63518.182099831414,155019.0
63518.19219369947,155020.0
63518.20228756753,155036.0
63518.21238143559,155008.0
63518.22247530364,155041.0
63518.2325691717,155062.0
63518.24266303976,155061.0
63518.252756907816,155058.0
63518.26285077587,155035.0
63518.272944643926,155091.0
63518.28303851199,155043.0
63518.293132380044,155061.0
63518.3032262481,155038.0
63518.313320116155,155001.0
63518.32341398421,154929.0
63518.33350785227,154882.0
63518.34360172033,154861.0
63518.35369558838,154784.0
63518.36378945644,154802.0
63518.3738833245,154771.0
63518.383977192556,154736.0
63518.39407106061,154784.0
63518.40416492867,154766.0
63518.41425879673,154737.0
63518.424352664784,154714.0
63518.43444653284,154779.0
63518.444540400895,154747.0
63518.45463426896,154780.0
63518.46472813701,154766.0
63518.47482200507,154801.0
63518.48491587312,154787.0
63518.49500974118,154787.0
63518.50510360924,154785.0
63518.515197477296,154783.0
63518.52529134535,154798.0
63518.53538521341,154792.0
63518.54547908147,154789.0
63518.555572949525,154770.0
63518.56566681758,154806.0
63518.575760685635,154790.0
63518.5858545537,154766.0
63518.59594842175,154836.0
63518.60604228981,154796.0
63518.61613615786,154804.0
63518.626230025926,154780.0
63518.63632389398,154814.0
63518.64641776204,154764.0
63518.65651163009,154784.0
63518.66660549815,154792.0
63518.67669936621,154759.0
63518.686793234265,154805.0
63518.69688710232,154785.0
63518.706980970375,154771.0
63518.71707483844,154788.0
63518.72716870649,154832.0
63518.73726257455,154823.0
63518.7473564426,154821.0
63518.757450310666,154840.0
63518.76754417872,154872.0
63518.77763804678,154876.0
63518.78773191483,154838.0
63518.797825782895,154879.0
63518.80791965095,154856.0
63518.818013519005,154856.0
63518.82810738706,154851.0
63518.838201255116,154890.0
63518.84829512318,154851.0
63518.85838899123,154891.0
63518.86848285929,154903.0
63518.878576727344,154877.0
63518.88867059541,154906.0
63518.89876446346,154898.0
63518.90885833152,154908.0
63518.91895219957,154892.0
63518.929046067635,154884.0
63518.93913993569,154936.0
63518.949233803745,154921.0
63518.9593276718,154927.0
63518.96942153986,154945.0
63518.97951540792,154914.0
63518.98960927597,154933.0
63518.99970314403,154949.0
63519.009797012084,154942.0
63519.01989088015,154966.0
63519.0299847482,154966.0
63519.04007861626,154945.0
63519.05017248431,154986.0
63519.060266352375,154958.0
63519.07036022043,154987.0
63519.080454088486,154956.0
63519.09054795654,154998.0
63519.1006418246,154994.0
63519.11073569266,155010.0
63519.120829560714,155006.0
63519.13092342877,155044.0
63519.14101729683,155050.0
63519.15111116489,155034.0
63519.16120503294,155021.0
63519.171298901,155028.0
63519.18139276905,155026.0
63519.191486637115,155005.0
63519.20158050517,154962.0
63519.211674373226,154978.0
63519.22176824128,154871.0
63519.23186210934,154828.0
63519.2419559774,154796.0
63519.252049845454,154785.0
63519.26214371351,154757.0
63519.27223758157,154724.0
63519.28233144963,154692.0
63519.29242531768,154698.0
63519.30251918574,154727.0
63519.31261305379,154736.0
63519.322706921856,154742.0
63519.33280078991,154762.0
63519.342894657966,154730.0
63519.35298852602,154761.0
63519.363082394084,154742.0
63519.37317626214,154726.0
63519.383270130194,154738.0
63519.39336399825,154752.0
63519.40345786631,154747.0
63519.41355173437,154739.0
63519.42364560242,154757.0
63519.43373947048,154764.0
63519.44383333854,154766.0
63519.453927206596,154742.0
63519.46402107465,154796.0
63519.47411494271,154776.0
63519.48420881076,154781.0
63519.494302678824,154750.0
63519.50439654688,154720.0
63519.514490414935,154727.0
63519.52458428299,154759.0
63519.53467815105,154740.0
63519.54477201911,154734.0
63519.55486588716,154714.0
63519.56495975522,154748.0
63519.57505362328,154734.0
63519.585147491336,154750.0
63519.59524135939,154738.0
63519.60533522745,154774.0
63519.61542909551,154818.0
63519.625522963564,154792.0
63519.63561683162,154790.0
63519.645710699675,154804.0
63519.65580456773,154821.0
63519.66589843579,154789.0
63519.67599230385,154838.0
63519.6860861719,154832.0
63519.69618003996,154807.0
63519.70627390802,154845.0
63519.71636777608,154870.0
63519.72646164413,154841.0
63519.73655551219,154833.0
63519.74664938025,154865.0
63519.756743248305,154836.0
63519.76683711636,154866.0
63519.776930984415,154857.0
63519.78702485248,154874.0
63519.79711872053,154865.0
63519.80721258859,154880.0
63519.81730645664,154921.0
63519.8274003247,154872.0
63519.83749419276,154910.0
63519.84758806082,154905.0
63519.85768192887,154910.0
63519.86777579693,154893.0
63519.87786966499,154926.0
63519.887963533045,154875.0
63519.8980574011,154883.0
63519.908151269155,154935.0
63519.91824513722,154926.0
63519.92833900527,154916.0
63519.93843287333,154898.0
63519.948526741384,154957.0
63519.95862060944,154910.0
63519.9687144775,154982.0
63519.97880834556,154936.0
63519.98890221361,154957.0
63519.99899608167,154970.0
63520.00908994973,154943.0
63520.019183817785,154954.0
63520.02927768584,154961.0
63520.039371553896,154958.0
63520.04946542196,155018.0
63520.05955929001,154991.0
63520.06965315807,155010.0
63520.079747026124,155022.0
63520.08984089419,154991.0
63520.09993476224,155027.0
63520.1100286303,155045.0
63520.12012249835,155010.0
63520.13021636641,155018.0
63520.14031023447,154983.0
63520.150404102525,154886.0
63520.16049797058,154893.0
63520.170591838636,154829.0
63520.1806857067,154796.0
63520.190779574754,154750.0
63520.20087344281,154763.0
63520.210967310864,154704.0
63520.22106117893,154707.0
63520.23115504698,154693.0
63520.24124891504,154691.0
63520.25134278309,154716.0
63520.261436651155,154720.0
63520.27153051921,154709.0
63520.281624387266,154705.0
63520.29171825532,154753.0
63520.301812123376,154735.0
63520.31190599144,154737.0
63520.321999859494,154743.0
63520.33209372755,154725.0
63520.342187595605,154758.0
63520.35228146367,154755.0
63520.36237533172,154744.0
63520.37246919978,154725.0
63520.38256306783,154770.0
63520.392656935896,154779.0
63520.40275080395,154736.0
63520.412844672006,154768.0
63520.42293854006,154773.0
63520.433032408124,154769.0
63520.44312627618,154735.0
63520.453220144234,154759.0
63520.46331401229,154743.0
63520.473407880345,154751.0
63520.48350174841,154740.0
63520.49359561646,154710.0
63520.50368948452,154728.0
63520.51378335257,154742.0
63520.523877220636,154774.0
63520.53397108869,154718.0
63520.544064956746,154769.0
63520.5541588248,154761.0
63520.564252692864,154760.0
63520.57434656092,154775.0
63520.584440428975,154807.0
63520.59453429703,154797.0
63520.60462816509,154780.0
63520.61472203315,154832.0
63520.6248159012,154791.0
63520.63490976926,154821.0
63520.64500363731,154810.0
63520.655097505376,154802.0
63520.66519137343,154812.0
63520.67528524149,154832.0
63520.68537910954,154847.0
63520.695472977604,154832.0
63520.70556684566,154836.0
63520.715660713715,154849.0
63520.72575458177,154833.0
63520.73584844983,154876.0
63520.74594231789,154865.0
63520.75603618594,154860.0
63520.766130054,154870.0
63520.77622392206,154889.0
63520.786317790116,154859.0
63520.79641165817,154879.0
63520.80650552623,154851.0
63520.81659939428,154910.0
63520.826693262345,154875.0
63520.8367871304,154886.0
63520.846880998455,154874.0
63520.85697486651,154898.0
63520.86706873457,154888.0
63520.87716260263,154909.0
63520.88725647068,154923.0
63520.89735033874,154915.0
63520.9074442068,154953.0
63520.91753807486,154940.0
63520.92763194291,154902.0
63520.93772581097,154937.0
63520.94781967902,154926.0
63520.957913547085,154934.0
63520.96800741514,154971.0
63520.978101283195,154941.0
63520.98819515125,154973.0
63520.99828901931,154980.0
63521.00838288737,154985.0
63521.018476755424,154970.0
63521.02857062348,154999.0
63521.03866449154,155015.0
63521.0487583596,155005.0
63521.05885222765,155029.0
63521.06894609571,155000.0
63521.07903996377,154984.0
63521.089133831825,154992.0
63521.09922769988,154996.0
63521.109321567936,154920.0
63521.11941543599,154859.0
63521.12950930405,154833.0
63521.13960317211,154811.0
63521.149697040164,154739.0
63521.15979090822,154765.0
63521.16988477628,154721.0
63521.17997864434,154677.0
63521.19007251239,154695.0
63521.20016638045,154731.0
63521.21026024851,154713.0
63521.220354116565,154723.0
63521.23044798462,154729.0
63521.240541852676,154725.0
63521.25063572074,154733.0
63521.260729588794,154774.0
63521.27082345685,154776.0
63521.280917324904,154712.0
63521.29101119296,154761.0
63521.30110506102,154773.0
63521.31119892908,154754.0
63521.32129279713,154765.0
63521.33138666519,154767.0
63521.34148053325,154755.0
63521.351574401306,154780.0
63521.36166826936,154794.0
63521.371762137416,154765.0
63521.38185600548,154726.0
63521.391949873534,154791.0
63521.40204374159,154742.0
63521.412137609645,154764.0
63521.42223147771,154735.0
63521.43232534576,154748.0
63521.44241921382,154723.0
63521.45251308187,154754.0
63521.46260694993,154768.0
63521.47270081799,154743.0
63521.482794686046,154773.0
63521.4928885541,154760.0
63521.50298242216,154740.0
63521.51307629022,154751.0
63521.523170158274,154830.0
63521.53326402633,154812.0
63521.543357894385,154768.0
63521.55345176245,154841.0
63521.5635456305,154824.0
63521.57363949856,154832.0
63521.58373336661,154858.0
63521.59382723467,154827.0
63521.60392110273,154846.0
63521.614014970786,154841.0
63521.62410883884,154826.0
63521.6342027069,154808.0
63521.64429657496,154841.0
63521.654390443015,154873.0
63521.66448431107,154863.0
63521.674578179125,154898.0
63521.68467204719,154857.0
63521.69476591524,154868.0
63521.7048597833,154891.0
63521.71495365135,154888.0
63521.725047519416,154903.0
63521.73514138747,154904.0
63521.74523525553,154892.0
63521.75532912358,154851.0
63521.76542299164,154902.0
63521.7755168597,154883.0
63521.785610727755,154898.0
63521.79570459581,154884.0
63521.805798463865,154898.0
63521.81589233193,154910.0
63521.82598619998,154926.0
63521.83608006804,154931.0
63521.846173936094,154911.0
63521.856267804156,154905.0
63521.86636167221,154939.0
63521.87645554027,154924.0
63521.88654940832,154944.0
63521.896643276385,154948.0
63521.90673714444,154951.0
63521.916831012495,154973.0
63521.92692488055,154933.0
63521.937018748606,154991.0
63521.94711261667,154989.0
63521.95720648472,154958.0
63521.96730035278,154991.0
63521.977394220834,154984.0
63521.9874880889,155001.0
63521.99758195695,155019.0
63522.00767582501,155014.0
63522.01776969306,155049.0
63522.027863561125,155004.0
63522.03795742918,155033.0
63522.048051297235,155020.0
63522.05814516529,154973.0
63522.06823903335,154967.0
63522.07833290141,154916.0
63522.088426769464,154853.0
63522.09852063752,154838.0
63522.108614505574,154794.0
63522.11870837364,154744.0
63522.12880224169,154748.0
63522.13889610975,154754.0
63522.1489899778,154716.0
63522.159083845865,154677.0
63522.16917771392,154717.0
63522.179271581976,154712.0
63522.18936545003,154727.0
63522.19945931809,154724.0
63522.20955318615,154724.0
63522.219647054204,154752.0
63522.22974092226,154790.0
63522.23983479032,154762.0
63522.24992865838,154769.0
63522.26002252643,154774.0
63522.27011639449,154761.0
63522.28021026254,154785.0
63522.290304130605,154739.0
63522.30039799866,154761.0
63522.310491866716,154817.0
63522.32058573477,154799.0
63522.330679602834,154798.0
63522.34077347089,154773.0
63522.350867338944,154806.0
63522.360961207,154775.0
63522.37105507506,154778.0
63522.38114894312,154770.0
63522.39124281117,154756.0
63522.40133667923,154748.0
63522.41143054729,154745.0
63522.421524415346,154730.0
63522.4316182834,154805.0
63522.441712151456,154755.0
63522.45180601951,154777.0
63522.461899887574,154792.0
63522.47199375563,154765.0
63522.482087623684,154794.0
63522.49218149174,154801.0
63522.5022753598,154817.0
63522.51236922786,154780.0
63522.52246309591,154828.0
63522.53255696397,154840.0
63522.54265083203,154803.0
63522.552744700086,154854.0
63522.56283856814,154809.0
63522.5729324362,154827.0
63522.58302630425,154873.0
63522.593120172314,154881.0
63522.60321404037,154866.0
63522.613307908425,154861.0
63522.62340177648,154842.0
63522.63349564454,154874.0
63522.6435895126,154851.0
63522.65368338065,154879.0
63522.66377724871,154880.0
63522.67387111677,154850.0
63522.683964984826,154878.0
63522.69405885288,154873.0
63522.70415272094,154868.0
63522.714246589,154886.0
63522.724340457054,154887.0
63522.73443432511,154883.0
63522.744528193165,154883.0
63522.75462206122,154870.0
63522.76471592928,154878.0
63522.77480979734,154920.0
63522.78490366539,154899.0
63522.79499753345,154888.0
63522.80509140151,154958.0
63522.81518526957,154917.0
63522.82527913762,154884.0
63522.83537300568,154902.0
63522.84546687374,154927.0
63522.855560741795,154940.0
63522.86565460985,154948.0
63522.875748477905,154942.0
63522.88584234597,154937.0
63522.89593621402,154976.0
63522.90603008208,154981.0
63522.91612395013,154954.0
63522.92621781819,154991.0
63522.93631168625,154987.0
63522.94640555431,154973.0
63522.95649942236,154972.0
63522.96659329042,154963.0
63522.97668715848,154951.0
63522.986781026535,154944.0
63522.99687489459,154876.0
63523.006968762646,154824.0
63523.01706263071,154807.0
63523.02715649876,154785.0
63523.03725036682,154711.0
63523.047344234874,154732.0
63523.05743810294,154704.0
63523.06753197099,154684.0
63523.07762583905,154716.0
63523.0877197071,154713.0
63523.09781357516,154676.0
63523.10790744322,154715.0
63523.118001311275,154673.0
63523.12809517933,154714.0
63523.138189047386,154747.0
63523.14828291545,154779.0
63523.1583767835,154773.0
63523.16847065156,154747.0
63523.178564519614,154769.0
63523.18865838768,154790.0
63523.19875225573,154802.0
63523.20884612379,154761.0
63523.21893999184,154795.0
63523.2290338599,154787.0
63523.23912772796,154788.0
63523.249221596016,154795.0
63523.25931546407,154771.0
63523.269409332126,154752.0
63523.27950320019,154780.0
63523.289597068244,154751.0
63523.2996909363,154740.0
63523.309784804354,154733.0
63523.31987867242,154754.0
63523.32997254047,154725.0
63523.34006640853,154754.0
63523.35016027658,154742.0
63523.360254144645,154728.0
63523.3703480127,154754.0
63523.380441880756,154732.0
63523.39053574881,154761.0
63523.400629616866,154765.0
63523.41072348493,154800.0
63523.420817352984,154780.0
63523.43091122104,154794.0
63523.441005089095,154810.0
63523.45109895716,154769.0
63523.46119282521,154782.0
63523.47128669327,154829.0
