time,ppg
63011.66170686454,154704.0
63011.671800732605,154685.0
63011.68189460066,154689.0
63011.691988468716,154701.0
63011.70208233677,154701.0
63011.712176204834,154698.0
63011.72227007289,154710.0
63011.732363940944,154721.0
63011.742457809,154710.0
63011.752551677055,154712.0
63011.76264554512,154743.0
63011.77273941317,154685.0
63011.78283328123,154729.0
63011.79292714928,154719.0
63011.803021017346,154741.0
63011.8131148854,154785.0
63011.823208753456,154754.0
63011.83330262151,154788.0
63011.843396489574,154733.0
63011.85349035763,154744.0
63011.863584225684,154779.0
63011.87367809374,154762.0
63011.8837719618,154792.0
63011.89386582986,154757.0
63011.90395969791,154768.0
63011.91405356597,154724.0
63011.92414743402,154733.0
63011.934241302086,154669.0
63011.94433517014,154650.0
63011.9544290382,154649.0
63011.96452290625,154599.0
63011.974616774314,154593.0
63011.98471064237,154583.0
63011.994804510425,154557.0
63012.00489837848,154547.0
63012.01499224654,154545.0
63012.0250861146,154570.0
63012.03517998265,154544.0
63012.04527385071,154583.0
63012.05536771876,154595.0
63012.065461586826,154569.0
63012.07555545488,154545.0
63012.08564932294,154590.0
63012.09574319099,154597.0
63012.105837059054,154576.0
63012.11593092711,154577.0
63012.126024795165,154560.0
63012.13611866322,154568.0
63012.14621253128,154597.0
63012.15630639934,154580.0
63012.16640026739,154550.0
63012.17649413545,154596.0
63012.18658800351,154588.0
63012.19668187157,154569.0
63012.20677573962,154584.0
63012.21686960768,154579.0
63012.22696347573,154580.0
63012.237057343795,154571.0
63012.24715121185,154578.0
63012.257245079905,154558.0
63012.26733894796,154566.0
63012.27743281602,154528.0
63012.28752668408,154538.0
63012.29762055213,154564.0
63012.30771442019,154578.0
63012.31780828825,154567.0
63012.32790215631,154559.0
63012.33799602436,154566.0
63012.34808989242,154573.0
63012.35818376048,154592.0
63012.368277628535,154617.0
63012.37837149659,154605.0
63012.388465364646,154606.0
63012.3985592327,154608.0
63012.40865310076,154595.0
63012.41874696882,154629.0
63012.428840836874,154620.0
63012.43893470493,154630.0
63012.44902857299,154648.0
63012.45912244105,154615.0
63012.4692163091,154620.0
63012.47931017716,154632.0
63012.48940404522,154622.0
63012.499497913275,154637.0
63012.50959178133,154623.0
63012.519685649386,154657.0
63012.52977951745,154677.0
63012.5398733855,154650.0
63012.54996725356,154598.0
63012.560061121614,154660.0
63012.57015498967,154649.0
63012.58024885773,154673.0
63012.59034272579,154659.0
63012.60043659384,154685.0
63012.6105304619,154669.0
63012.62062432996,154687.0
63012.630718198016,154706.0
63012.64081206607,154695.0
63012.650905934126,154689.0
63012.66099980219,154686.0
63012.671093670244,154705.0
63012.6811875383,154703.0
63012.691281406354,154697.0
63012.70137527441,154725.0
63012.71146914247,154701.0
63012.72156301053,154726.0
63012.73165687858,154703.0
63012.74175074664,154719.0
63012.7518446147,154732.0
63012.761938482756,154737.0
63012.77203235081,154762.0
63012.782126218866,154716.0
63012.79222008693,154718.0
63012.802313954984,154691.0
63012.81240782304,154687.0
63012.822501691095,154643.0
63012.83259555916,154590.0
63012.84268942721,154580.0
63012.85278329527,154583.0
63012.86287716332,154584.0
63012.87297103138,154559.0
63012.88306489944,154549.0
63012.893158767496,154533.0
63012.90325263555,154573.0
63012.91334650361,154571.0
63012.92344037167,154557.0
63012.933534239724,154554.0
63012.94362810778,154551.0
63012.953721975835,154562.0
63012.9638158439,154545.0
63012.97390971195,154577.0
63012.98400358001,154552.0
63012.99409744806,154600.0
63013.004191316126,154607.0
63013.01428518418,154598.0
63013.024379052236,154583.0
63013.03447292029,154613.0
63013.04456678835,154574.0
63013.05466065641,154596.0
63013.064754524465,154577.0
63013.07484839252,154588.0
63013.084942260575,154620.0
63013.09503612864,154598.0
63013.10512999669,154551.0
63013.11522386475,154573.0
63013.1253177328,154587.0
63013.135411600866,154585.0
63013.14550546892,154592.0
63013.15559933698,154576.0
63013.16569320503,154567.0
63013.175787073094,154591.0
63013.18588094115,154608.0
63013.195974809205,154577.0
63013.20606867726,154596.0
63013.216162545315,154598.0
63013.22625641338,154593.0
63013.23635028143,154637.0
63013.24644414949,154620.0
63013.256538017544,154624.0
63013.266631885606,154600.0
63013.27672575366,154644.0
63013.28681962172,154633.0
63013.29691348977,154644.0
63013.307007357835,154646.0
63013.31710122589,154656.0
63013.327195093945,154641.0
63013.337288962,154651.0
63013.34738283006,154632.0
63013.35747669812,154641.0
63013.36757056617,154662.0
63013.37766443423,154669.0
63013.387758302284,154681.0
63013.39785217035,154680.0
63013.4079460384,154702.0
63013.41803990646,154674.0
63013.42813377451,154648.0
63013.438227642575,154710.0
63013.44832151063,154689.0
63013.458415378685,154665.0
63013.46850924674,154671.0
63013.4786031148,154724.0
63013.48869698286,154686.0
63013.498790850914,154704.0
63013.50888471897,154704.0
63013.51897858703,154712.0
63013.52907245509,154692.0
63013.53916632314,154721.0
63013.5492601912,154720.0
63013.55935405925,154678.0
63013.569447927315,154738.0
63013.57954179537,154697.0
63013.589635663426,154720.0
63013.59972953148,154702.0
63013.60982339954,154657.0
63013.6199172676,154612.0
63013.630011135654,154627.0
63013.64010500371,154620.0
63013.65019887177,154591.0
63013.66029273983,154578.0
63013.67038660788,154569.0
63013.68048047594,154573.0
63013.69057434399,154539.0
63013.700668212055,154581.0
63013.71076208011,154560.0
63013.720855948166,154551.0
63013.73094981622,154570.0
63013.741043684284,154549.0
63013.75113755234,154570.0
63013.761231420394,154570.0
63013.77132528845,154555.0
63013.78141915651,154616.0
63013.79151302457,154599.0
63013.80160689262,154588.0
63013.81170076068,154590.0
63013.82179462874,154608.0
63013.831888496796,154609.0
63013.84198236485,154614.0
63013.852076232906,154614.0
63013.86217010096,154612.0
63013.872263969024,154608.0
63013.88235783708,154619.0
63013.892451705135,154625.0
63013.90254557319,154570.0
63013.91263944125,154609.0
63013.92273330931,154611.0
63013.93282717736,154594.0
63013.94292104542,154605.0
63013.95301491348,154598.0
63013.963108781536,154593.0
63013.97320264959,154590.0
63013.98329651765,154590.0
63013.99339038571,154621.0
63014.003484253764,154610.0
63014.01357812182,154638.0
63014.023671989875,154639.0
63014.03376585793,154601.0
63014.04385972599,154627.0
63014.05395359405,154667.0
63014.0640474621,154628.0
63014.07414133016,154648.0
63014.08423519822,154657.0
63014.094329066276,154664.0
63014.10442293433,154652.0
63014.11451680239,154693.0
63014.12461067045,154668.0
63014.134704538505,154655.0
63014.14479840656,154687.0
63014.154892274615,154657.0
63014.16498614268,154697.0
63014.17508001073,154684.0
63014.18517387879,154673.0
63014.19526774684,154684.0
63014.2053616149,154707.0
63014.21545548296,154743.0
63014.22554935102,154696.0
63014.23564321907,154734.0
63014.24573708713,154719.0
63014.25583095519,154704.0
63014.265924823245,154733.0
63014.2760186913,154757.0
63014.286112559355,154717.0
63014.29620642742,154718.0
63014.30630029547,154752.0
63014.31639416353,154723.0
63014.326488031584,154721.0
63014.33658189964,154680.0
63014.3466757677,154653.0
63014.35676963576,154656.0
63014.36686350381,154642.0
63014.37695737187,154606.0
63014.38705123993,154580.0
63014.397145107985,154595.0
63014.40723897604,154575.0
63014.417332844096,154567.0
63014.42742671216,154562.0
63014.43752058021,154568.0
63014.44761444827,154562.0
63014.457708316324,154536.0
63014.46780218439,154586.0
63014.47789605244,154559.0
63014.4879899205,154580.0
63014.49808378855,154575.0
63014.50817765661,154583.0
63014.51827152467,154562.0
63014.528365392725,154593.0
63014.53845926078,154595.0
63014.548553128836,154584.0
63014.5586469969,154627.0
63014.568740864954,154595.0
63014.57883473301,154586.0
63014.588928601064,154615.0
63014.59902246913,154635.0
63014.60911633718,154597.0
63014.61921020524,154618.0
63014.62930407329,154628.0
63014.639397941355,154604.0
63014.64949180941,154606.0
63014.659585677466,154601.0
63014.66967954552,154632.0
63014.679773413576,154591.0
63014.68986728164,154593.0
63014.699961149694,154603.0
63014.71005501775,154588.0
63014.720148885805,154615.0
63014.73024275387,154605.0
63014.74033662192,154635.0
63014.75043048998,154619.0
63014.76052435803,154618.0
63014.770618226095,154605.0
63014.78071209415,154654.0
63014.790805962206,154651.0
63014.80089983026,154647.0
63014.810993698324,154637.0
63014.82108756638,154681.0
63014.831181434434,154655.0
63014.84127530249,154655.0
63014.851369170545,154680.0
63014.86146303861,154680.0
63014.87155690666,154696.0
63014.88165077472,154696.0
63014.89174464277,154684.0
63014.901838510836,154694.0
63014.91193237889,154689.0
63014.922026246946,154724.0
63014.932120115,154694.0
63014.942213983064,154718.0
63014.95230785112,154736.0
63014.962401719175,154694.0
63014.97249558723,154708.0
63014.98258945529,154726.0
63014.99268332335,154764.0
63015.0027771914,154738.0
63015.01287105946,154739.0
63015.02296492751,154761.0
63015.033058795576,154744.0
63015.04315266363,154721.0
63015.05324653169,154782.0
63015.06334039974,154772.0
63015.073434267804,154768.0
63015.08352813586,154732.0
63015.093622003915,154741.0
63015.10371587197,154742.0
63015.11380974003,154744.0
63015.12390360809,154711.0
63015.13399747614,154632.0
63015.1440913442,154639.0
63015.15418521226,154614.0
63015.164279080316,154595.0
63015.17437294837,154531.0
63015.18446681643,154542.0
63015.19456068448,154576.0
63015.204654552545,154586.0
63015.2147484206,154579.0
63015.224842288655,154500.0
63015.23493615671,154558.0
63015.24503002477,154535.0
63015.25512389283,154606.0
63015.26521776088,154574.0
63015.27531162894,154572.0
63015.285405497,154566.0
63015.29549936506,154559.0
63015.30559323311,154567.0
63015.31568710117,154578.0
63015.32578096922,154581.0
63015.335874837285,154577.0
63015.34596870534,154574.0
63015.356062573395,154549.0
63015.36615644145,154592.0
63015.37625030951,154580.0
63015.38634417757,154568.0
63015.396438045624,154575.0
63015.40653191368,154589.0
63015.41662578174,154569.0
63015.4267196498,154553.0
63015.43681351785,154587.0
63015.44690738591,154598.0
63015.45700125397,154556.0
63015.467095122025,154576.0
63015.47718899008,154584.0
63015.487282858136,154565.0
63015.49737672619,154574.0
63015.50747059425,154567.0
63015.51756446231,154582.0
63015.527658330364,154577.0
63015.53775219842,154584.0
63015.54784606648,154618.0
63015.55793993454,154611.0
63015.56803380259,154621.0
63015.57812767065,154635.0
63015.58822153871,154656.0
63015.598315406765,154638.0
63015.60840927482,154650.0
63015.618503142876,154630.0
63015.62859701094,154648.0
63015.638690878994,154638.0
63015.64878474705,154667.0
63015.658878615104,154635.0
63015.66897248316,154700.0
63015.67906635122,154671.0
63015.68916021928,154641.0
63015.69925408733,154719.0
63015.70934795539,154690.0
63015.71944182345,154684.0
63015.729535691506,154681.0
63015.73962955956,154668.0
63015.749723427616,154676.0
63015.75981729568,154675.0
63015.769911163734,154692.0
63015.78000503179,154676.0
63015.790098899844,154738.0
63015.80019276791,154699.0
63015.81028663596,154724.0
63015.82038050402,154695.0
63015.83047437207,154754.0
63015.84056824013,154747.0
63015.85066210819,154743.0
63015.860755976246,154732.0
63015.8708498443,154771.0
63015.88094371236,154740.0
63015.89103758042,154781.0
63015.901131448474,154776.0
63015.91122531653,154782.0
63015.921319184585,154784.0
63015.93141305265,154765.0
63015.9415069207,154796.0
63015.95160078876,154764.0
63015.96169465681,154746.0
63015.97178852487,154710.0
63015.98188239293,154689.0
63015.991976260986,154674.0
63016.00207012904,154629.0
63016.0121639971,154607.0
63016.02225786516,154590.0
63016.032351733214,154537.0
63016.04244560127,154536.0
63016.052539469325,154545.0
63016.06263333739,154533.0
63016.07272720544,154560.0
63016.0828210735,154520.0
63016.09291494155,154557.0
63016.103008809616,154563.0
63016.11310267767,154579.0
63016.12319654573,154582.0
63016.13329041378,154569.0
63016.14338428184,154538.0
63016.1534781499,154527.0
63016.163572017955,154572.0
63016.17366588601,154549.0
63016.183759754065,154546.0
63016.19385362213,154581.0
63016.20394749018,154577.0
63016.21404135824,154563.0
63016.22413522629,154570.0
63016.234229094356,154548.0
63016.24432296241,154565.0
63016.25441683047,154573.0
63016.26451069852,154560.0
63016.274604566584,154548.0
63016.28469843464,154558.0
63016.294792302695,154543.0
63016.30488617075,154554.0
63016.314980038806,154559.0
63016.32507390687,154554.0
63016.33516777492,154599.0
63016.34526164298,154578.0
63016.355355511034,154599.0
63016.3654493791,154541.0
63016.37554324715,154597.0
63016.38563711521,154591.0
63016.39573098326,154579.0
63016.405824851325,154589.0
63016.41591871938,154612.0
63016.426012587435,154603.0
63016.43610645549,154620.0
63016.44620032355,154639.0
63016.45629419161,154623.0
63016.46638805966,154634.0
63016.47648192772,154644.0
63016.486575795774,154672.0
63016.49666966384,154635.0
63016.50676353189,154664.0
63016.51685739995,154630.0
63016.526951268,154674.0
63016.537045136065,154685.0
63016.54713900412,154654.0
63016.557232872176,154663.0
63016.56732674023,154671.0
63016.57742060829,154664.0
63016.58751447635,154680.0
63016.597608344404,154681.0
63016.60770221246,154661.0
63016.61779608052,154681.0
63016.62788994858,154692.0
63016.63798381663,154689.0
63016.64807768469,154680.0
63016.65817155274,154686.0
63016.668265420805,154712.0
63016.67835928886,154737.0
63016.688453156916,154707.0
63016.69854702497,154736.0
63016.70864089303,154727.0
63016.71873476109,154706.0
63016.728828629144,154718.0
63016.7389224972,154770.0
63016.74901636526,154754.0
63016.75911023332,154747.0
63016.76920410137,154788.0
63016.77929796943,154746.0
63016.78939183749,154788.0
63016.799485705546,154755.0
63016.8095795736,154783.0
63016.819673441656,154769.0
63016.82976730971,154789.0
63016.839861177774,154798.0
63016.84995504583,154777.0
63016.860048913884,154798.0
63016.87014278194,154778.0
63016.88023665,154760.0
63016.89033051806,154722.0
63016.90042438611,154701.0
63016.91051825417,154683.0
63016.92061212223,154643.0
63016.930705990286,154622.0
63016.94079985834,154578.0
63016.950893726396,154612.0
63016.96098759445,154601.0
63016.971081462514,154577.0
63016.98117533057,154576.0
63016.991269198625,154606.0
63017.00136306668,154585.0
63017.01145693474,154568.0
63017.0215508028,154610.0
63017.03164467085,154590.0
63017.04173853891,154597.0
63017.05183240697,154617.0
63017.061926275026,154628.0
63017.07202014308,154603.0
63017.08211401114,154608.0
63017.0922078792,154649.0
63017.102301747254,154604.0
63017.11239561531,154611.0
63017.122489483365,154605.0
63017.13258335142,154621.0
63017.14267721948,154613.0
63017.15277108754,154638.0
63017.16286495559,154616.0
63017.17295882365,154592.0
63017.18305269171,154636.0
63017.193146559766,154601.0
63017.20324042782,154615.0
63017.21333429588,154618.0
63017.22342816394,154565.0
63017.233522031995,154626.0
63017.24361590005,154607.0
63017.253709768105,154635.0
63017.26380363617,154613.0
63017.27389750422,154623.0
63017.28399137228,154630.0
63017.29408524033,154612.0
63017.30417910839,154613.0
63017.31427297645,154663.0
63017.32436684451,154653.0
63017.33446071256,154645.0
63017.34455458062,154675.0
63017.35464844868,154629.0
63017.364742316735,154632.0
63017.37483618479,154656.0
63017.384930052845,154697.0
63017.39502392091,154664.0
63017.40511778896,154692.0
63017.41521165702,154683.0
63017.425305525074,154671.0
63017.435399393136,154714.0
63017.44549326119,154716.0
63017.45558712925,154712.0
63017.4656809973,154711.0
63017.47577486536,154747.0
63017.48586873342,154715.0
63017.495962601475,154740.0
63017.50605646953,154752.0
63017.516150337586,154731.0
63017.52624420565,154780.0
63017.5363380737,154750.0
63017.54643194176,154757.0
63017.556525809814,154745.0
63017.56661967788,154781.0
63017.57671354593,154769.0
63017.58680741399,154772.0
63017.59690128204,154803.0
63017.6069951501,154765.0
63017.61708901816,154777.0
63017.627182886215,154828.0
63017.63727675427,154798.0
63017.647370622326,154788.0
63017.65746449039,154801.0
63017.667558358444,154812.0
63017.6776522265,154807.0
63017.687746094554,154816.0
63017.69783996262,154819.0
63017.70793383067,154847.0
63017.71802769873,154819.0
63017.72812156678,154828.0
63017.738215434845,154855.0
63017.7483093029,154870.0
63017.758403170956,154857.0
63017.76849703901,154823.0
63017.778590907066,154853.0
63017.78868477513,154790.0
63017.798778643184,154833.0
63017.80887251124,154751.0
63017.818966379295,154749.0
63017.82906024736,154735.0
63017.83915411541,154684.0
63017.84924798347,154691.0
63017.85934185152,154650.0
63017.869435719585,154647.0
63017.87952958764,154617.0
63017.889623455696,154643.0
63017.89971732375,154614.0
63017.909811191814,154617.0
63017.91990505987,154639.0
63017.929998927924,154629.0
63017.94009279598,154648.0
63017.950186664035,154618.0
63017.9602805321,154664.0
63017.97037440015,154636.0
63017.98046826821,154662.0
63017.99056213626,154660.0
63018.000656004326,154624.0
63018.01074987238,154619.0
63018.020843740436,154667.0
63018.03093760849,154671.0
63018.041031476554,154658.0
63018.05112534461,154646.0
63018.061219212665,154651.0
63018.07131308072,154674.0
63018.08140694878,154698.0
63018.09150081684,154679.0
63018.10159468489,154685.0
63018.11168855295,154675.0
63018.121782421,154652.0
63018.131876289066,154665.0
63018.14197015712,154683.0
63018.15206402518,154662.0
63018.16215789323,154674.0
63018.172251761294,154688.0
63018.18234562935,154659.0
63018.192439497405,154687.0
63018.20253336546,154677.0
63018.21262723352,154706.0
63018.22272110158,154655.0
63018.23281496963,154703.0
63018.24290883769,154718.0
63018.25300270575,154689.0
63018.263096573806,154706.0
63018.27319044186,154709.0
63018.28328430992,154728.0
63018.29337817797,154699.0
63018.303472046035,154765.0
63018.31356591409,154729.0
63018.323659782145,154737.0
63018.3337536502,154747.0
63018.34384751826,154724.0
63018.35394138632,154767.0
63018.36403525437,154754.0
63018.37412912243,154739.0
63018.38422299049,154756.0
63018.39431685855,154773.0
63018.4044107266,154800.0
63018.41450459466,154750.0
63018.42459846272,154779.0
63018.434692330775,154811.0
63018.44478619883,154745.0
63018.454880066885,154777.0
63018.46497393494,154809.0
63018.475067803,154793.0
63018.48516167106,154794.0
63018.495255539114,154818.0
63018.50534940717,154799.0
63018.51544327523,154822.0
63018.52553714329,154786.0
63018.53563101134,154845.0
63018.5457248794,154817.0
63018.55581874746,154836.0
63018.565912615515,154783.0
63018.57600648357,154804.0
63018.586100351626,154820.0
63018.59619421968,154870.0
63018.60628808774,154852.0
63018.6163819558,154869.0
63018.626475823854,154881.0
63018.63656969191,154878.0
63018.64666355997,154878.0
63018.65675742803,154873.0
63018.66685129608,154905.0
63018.67694516414,154886.0
63018.6870390322,154851.0
63018.697132900255,154814.0
63018.70722676831,154796.0
63018.717320636366,154747.0
63018.72741450443,154748.0
63018.737508372484,154749.0
63018.74760224054,154730.0
63018.757696108594,154692.0
63018.76778997665,154683.0
63018.77788384471,154656.0
63018.78797771277,154688.0
63018.79807158082,154691.0
63018.80816544888,154674.0
63018.81825931694,154657.0
63018.828353184996,154679.0
63018.83844705305,154671.0
63018.848540921106,154682.0
63018.85863478917,154708.0
63018.868728657224,154688.0
63018.87882252528,154705.0
63018.888916393335,154712.0
63018.8990102614,154718.0
63018.90910412945,154740.0
63018.91919799751,154699.0
63018.92929186556,154719.0
63018.93938573362,154718.0
63018.94947960168,154727.0
63018.959573469736,154744.0
63018.96966733779,154703.0
63018.97976120585,154721.0
63018.98985507391,154696.0
63018.999948941964,154738.0
63019.01004281002,154721.0
63019.020136678075,154724.0
63019.03023054614,154726.0
63019.04032441419,154700.0
63019.05041828225,154706.0
63019.0605121503,154742.0
63019.070606018366,154698.0
63019.08069988642,154701.0
63019.090793754476,154734.0
63019.10088762253,154708.0
63019.11098149059,154745.0
63019.12107535865,154725.0
63019.131169226705,154711.0
63019.14126309476,154759.0
63019.151356962815,154768.0
63019.16145083088,154768.0
63019.17154469893,154738.0
63019.18163856699,154777.0
63019.19173243504,154779.0
63019.201826303106,154741.0
63019.21192017116,154755.0
63019.22201403922,154787.0
63019.23210790727,154772.0
63019.24220177533,154785.0
63019.25229564339,154796.0
63019.262389511445,154792.0
63019.2724833795,154788.0
63019.282577247555,154846.0
63019.29267111562,154781.0
63019.30276498367,154835.0
63019.31285885173,154828.0
63019.322952719784,154823.0
63019.333046587846,154830.0
63019.3431404559,154835.0
63019.35323432396,154862.0
63019.36332819201,154831.0
63019.373422060075,154873.0
63019.38351592813,154838.0
63019.393609796185,154852.0
63019.40370366424,154848.0
63019.413797532296,154854.0
63019.42389140036,154860.0
63019.43398526841,154851.0
63019.44407913647,154885.0
63019.454173004524,154867.0
63019.46426687259,154870.0
63019.47436074064,154865.0
63019.4844546087,154849.0
63019.49454847675,154903.0
63019.504642344815,154909.0
63019.51473621287,154860.0
63019.524830080925,154881.0
63019.53492394898,154873.0
63019.54501781704,154835.0
63019.5551116851,154785.0
63019.565205553154,154777.0
63019.57529942121,154783.0
63019.585393289264,154752.0
63019.59548715733,154705.0
63019.60558102538,154702.0
63019.61567489344,154728.0
63019.62576876149,154697.0
63019.635862629555,154692.0
63019.64595649761,154719.0
63019.656050365666,154668.0
63019.66614423372,154716.0
63019.67623810178,154719.0
63019.68633196984,154697.0
63019.696425837894,154733.0
63019.70651970595,154736.0
63019.71661357401,154729.0
63019.72670744207,154720.0
63019.73680131012,154775.0
63019.74689517818,154741.0
63019.75698904623,154768.0
63019.767082914295,154735.0
63019.77717678235,154736.0
63019.787270650406,154761.0
63019.79736451846,154753.0
63019.807458386524,154754.0
63019.81755225458,154763.0
63019.827646122634,154767.0
63019.83773999069,154761.0
63019.84783385875,154732.0
63019.85792772681,154749.0
63019.86802159486,154753.0
63019.87811546292,154756.0
63019.88820933098,154753.0
63019.898303199036,154785.0
63019.90839706709,154709.0
63019.918490935146,154742.0
63019.9285848032,154735.0
63019.938678671264,154755.0
63019.94877253932,154766.0
63019.958866407374,154781.0
63019.96896027543,154802.0
63019.97905414349,154770.0
63019.98914801155,154812.0
63019.9992418796,154794.0
63020.00933574766,154793.0
63020.01942961572,154816.0
63020.029523483776,154830.0
63020.03961735183,154785.0
63020.04971121989,154794.0
63020.05980508795,154840.0
63020.069898956004,154817.0
63020.07999282406,154837.0
63020.090086692115,154820.0
63020.10018056017,154844.0
63020.11027442823,154841.0
63020.12036829629,154846.0
63020.13046216434,154845.0
63020.1405560324,154847.0
63020.15064990046,154880.0
63020.160743768516,154876.0
63020.17083763657,154850.0
63020.18093150463,154858.0
63020.19102537269,154874.0
63020.201119240744,154866.0
63020.2112131088,154865.0
63020.221306976855,154894.0
63020.23140084491,154870.0
63020.24149471297,154882.0
63020.25158858103,154897.0
63020.26168244908,154916.0
63020.27177631714,154871.0
63020.2818701852,154864.0
63020.29196405326,154901.0
63020.30205792131,154900.0
63020.31215178937,154927.0
63020.32224565743,154870.0
63020.332339525485,154892.0
63020.34243339354,154828.0
63020.352527261595,154856.0
63020.36262112966,154790.0
63020.37271499771,154771.0
63020.38280886577,154765.0
63020.39290273382,154708.0
63020.40299660188,154669.0
63020.41309046994,154712.0
63020.423184338,154693.0
63020.43327820605,154725.0
63020.44337207411,154713.0
63020.45346594217,154704.0
63020.463559810225,154703.0
63020.47365367828,154699.0
63020.483747546336,154738.0
63020.4938414144,154732.0
63020.50393528245,154738.0
63020.51402915051,154759.0
63020.524123018564,154716.0
63020.53421688663,154747.0
63020.54431075468,154758.0
63020.55440462274,154775.0
63020.56449849079,154748.0
63020.57459235885,154765.0
63020.58468622691,154753.0
63020.594780094965,154728.0
63020.60487396302,154735.0
63020.614967831076,154767.0
63020.62506169914,154750.0
63020.63515556719,154724.0
63020.64524943525,154764.0
63020.655343303304,154747.0
63020.66543717137,154720.0
63020.67553103942,154759.0
63020.68562490748,154736.0
63020.69571877553,154750.0
63020.705812643595,154764.0
63020.71590651165,154730.0
63020.726000379706,154722.0
63020.73609424776,154756.0
63020.746188115816,154788.0
63020.75628198388,154744.0
63020.766375851934,154777.0
63020.77646971999,154781.0
63020.786563588044,154746.0
63020.79665745611,154785.0
63020.80675132416,154823.0
63020.81684519222,154794.0
63020.82693906027,154806.0
63020.837032928335,154794.0
63020.84712679639,154793.0
63020.857220664446,154805.0
63020.8673145325,154806.0
63020.877408400556,154827.0
63020.88750226862,154793.0
63020.897596136674,154851.0
63020.90769000473,154832.0
63020.917783872785,154824.0
63020.92787774085,154878.0
63020.9379716089,154834.0
63020.94806547696,154841.0
63020.95815934501,154819.0
63020.968253213076,154863.0
63020.97834708113,154884.0
63020.988440949186,154865.0
63020.99853481724,154863.0
63021.008628685304,154867.0
63021.01872255336,154891.0
63021.028816421414,154862.0
63021.03891028947,154859.0
63021.049004157525,154861.0
63021.05909802559,154905.0
63021.06919189364,154905.0
63021.0792857617,154892.0
63021.08937962975,154910.0
63021.099473497816,154880.0
63021.10956736587,154884.0
63021.119661233926,154883.0
63021.12975510198,154901.0
63021.139848970044,154917.0
63021.1499428381,154934.0
63021.160036706155,154928.0
63021.17013057421,154907.0
63021.18022444227,154899.0
63021.19031831033,154895.0
63021.20041217838,154875.0
63021.21050604644,154810.0
63021.22059991449,154803.0
63021.230693782556,154761.0
63021.24078765061,154688.0
63021.25088151867,154706.0
63021.26097538672,154716.0
63021.271069254784,154715.0
63021.28116312284,154682.0
63021.291256990895,154717.0
63021.30135085895,154679.0
63021.31144472701,154703.0
63021.32153859507,154662.0
63021.33163246312,154695.0
63021.34172633118,154713.0
63021.35182019924,154717.0
63021.361914067296,154718.0
63021.37200793535,154719.0
63021.38210180341,154719.0
63021.39219567146,154728.0
63021.402289539525,154720.0
63021.41238340758,154731.0
63021.422477275635,154710.0
63021.43257114369,154722.0
63021.44266501175,154728.0
63021.45275887981,154737.0
63021.46285274786,154723.0
63021.47294661592,154726.0
63021.48304048398,154723.0
63021.49313435204,154709.0
63021.50322822009,154719.0
63021.51332208815,154720.0
63021.52341595621,154722.0
63021.533509824265,154707.0
63021.54360369232,154729.0
63021.553697560375,154707.0
63021.56379142843,154725.0
63021.57388529649,154715.0
63021.58397916455,154749.0
63021.594073032604,154738.0
63021.60416690066,154748.0
63021.61426076872,154762.0
63021.62435463678,154746.0
63021.63444850483,154754.0
63021.64454237289,154746.0
63021.65463624095,154761.0
63021.664730109005,154720.0
63021.67482397706,154793.0
63021.684917845116,154774.0
63021.69501171318,154764.0
63021.70510558123,154785.0
63021.71519944929,154812.0
63021.725293317344,154787.0
63021.7353871854,154775.0
63021.74548105346,154816.0
63021.75557492152,154821.0
63021.76566878957,154812.0
63021.77576265763,154815.0
63021.78585652569,154784.0
63021.795950393745,154794.0
63021.8060442618,154816.0
63021.816138129856,154808.0
63021.82623199792,154818.0
63021.836325865974,154835.0
63021.84641973403,154833.0
63021.856513602084,154808.0
63021.86660747014,154844.0
63021.8767013382,154861.0
63021.88679520626,154852.0
63021.89688907431,154816.0
63021.90698294237,154847.0
63021.91707681043,154848.0
63021.927170678486,154853.0
63021.93726454654,154854.0
63021.947358414596,154846.0
63021.95745228266,154886.0
63021.967546150714,154891.0
63021.97764001877,154888.0
63021.987733886825,154889.0
63021.99782775489,154886.0
63022.00792162294,154880.0
63022.018015491,154907.0
63022.02810935905,154893.0
63022.03820322711,154927.0
63022.04829709517,154892.0
63022.058390963226,154911.0
63022.06848483128,154907.0
63022.07857869934,154918.0
63022.0886725674,154867.0
63022.098766435454,154854.0
63022.10886030351,154840.0
63022.118954171565,154755.0
63022.12904803963,154773.0
63022.13914190768,154742.0
63022.14923577574,154716.0
63022.15932964379,154711.0
63022.169423511856,154686.0
63022.17951737991,154692.0
63022.189611247966,154701.0
63022.19970511602,154710.0
63022.20979898408,154673.0
63022.21989285214,154707.0
63022.229986720195,154713.0
63022.24008058825,154734.0
63022.250174456305,154722.0
63022.26026832437,154722.0
63022.27036219242,154704.0
63022.28045606048,154678.0
63022.29054992853,154693.0
63022.300643796596,154719.0
63022.31073766465,154669.0
63022.32083153271,154707.0
63022.33092540076,154710.0
63022.341019268824,154720.0
63022.35111313688,154727.0
63022.361207004935,154739.0
63022.37130087299,154705.0
63022.381394741045,154725.0
63022.39148860911,154737.0
63022.40158247716,154744.0
63022.41167634522,154710.0
63022.421770213274,154724.0
63022.431864081336,154733.0
63022.44195794939,154737.0
63022.45205181745,154739.0
63022.4621456855,154720.0
63022.472239553565,154705.0
63022.48233342162,154714.0
63022.492427289675,154707.0
63022.50252115773,154702.0
63022.512615025786,154759.0
63022.52270889385,154781.0
63022.5328027619,154781.0
63022.54289662996,154723.0
63022.552990498014,154759.0
63022.56308436608,154741.0
63022.57317823413,154796.0
63022.58327210219,154791.0
63022.59336597024,154767.0
63022.603459838305,154761.0
63022.61355370636,154780.0
63022.623647574415,154769.0
63022.63374144247,154788.0
63022.64383531053,154771.0
63022.65392917859,154765.0
63022.664023046644,154806.0
63022.6741169147,154810.0
63022.684210782754,154824.0
63022.69430465082,154811.0
63022.70439851887,154799.0
63022.71449238693,154847.0
63022.72458625498,154848.0
63022.734680123045,154790.0
63022.7447739911,154822.0
63022.754867859156,154842.0
63022.76496172721,154828.0
63022.77505559527,154838.0
63022.78514946333,154850.0
63022.795243331384,154836.0
63022.80533719944,154823.0
63022.8154310675,154861.0
63022.82552493556,154874.0
63022.83561880361,154855.0
63022.84571267167,154877.0
63022.85580653972,154864.0
63022.865900407785,154851.0
63022.87599427584,154866.0
63022.886088143896,154852.0
63022.89618201195,154887.0
63022.906275880014,154869.0
63022.91636974807,154883.0
63022.926463616124,154887.0
63022.93655748418,154870.0
63022.94665135224,154910.0
63022.9567452203,154915.0
63022.96683908835,154927.0
63022.97693295641,154867.0
63022.98702682447,154886.0
63022.997120692526,154890.0
63023.00721456058,154835.0
63023.017308428636,154841.0
63023.02740229669,154776.0
63023.037496164754,154771.0
63023.04759003281,154728.0
63023.057683900865,154702.0
63023.06777776892,154706.0
63023.07787163698,154697.0
63023.08796550504,154688.0
63023.09805937309,154698.0
63023.10815324115,154695.0
63023.11824710921,154656.0
63023.128340977266,154692.0
63023.13843484532,154678.0
63023.14852871338,154721.0
63023.15862258144,154718.0
63023.168716449494,154721.0
63023.17881031755,154701.0
63023.188904185605,154718.0
63023.19899805366,154691.0
63023.20909192172,154726.0
63023.21918578978,154759.0
63023.22927965783,154714.0
63023.23937352589,154746.0
63023.24946739395,154710.0
63023.259561262006,154703.0
63023.26965513006,154720.0
63023.27974899812,154741.0
63023.28984286618,154727.0
63023.299936734235,154723.0
63023.31003060229,154740.0
63023.320124470345,154733.0
63023.33021833841,154717.0
63023.34031220646,154740.0
63023.35040607452,154685.0
63023.36049994257,154737.0
63023.37059381063,154716.0
63023.38068767869,154740.0
63023.39078154675,154714.0
63023.4008754148,154709.0
63023.41096928286,154724.0
63023.42106315092,154704.0
63023.431157018975,154760.0
63023.44125088703,154744.0
63023.451344755085,154747.0
63023.46143862315,154742.0
63023.4715324912,154774.0
63023.48162635926,154772.0
63023.49172022731,154758.0
63023.50181409537,154798.0
63023.51190796343,154750.0
63023.52200183149,154781.0
63023.53209569954,154777.0
63023.5421895676,154787.0
63023.55228343566,154790.0
63023.562377303715,154807.0
63023.57247117177,154796.0
63023.582565039826,154778.0
63023.59265890789,154777.0
63023.60275277594,154787.0
63023.612846644,154801.0
63023.622940512054,154793.0
63023.63303438012,154790.0
63023.64312824817,154796.0
63023.65322211623,154828.0
63023.66331598428,154818.0
63023.67340985234,154814.0
63023.6835037204,154838.0
63023.693597588455,154824.0
63023.70369145651,154838.0
63023.713785324566,154812.0
63023.72387919263,154841.0
63023.733973060684,154813.0
63023.74406692874,154858.0
63023.754160796794,154824.0
63023.76425466486,154821.0
63023.77434853291,154832.0
63023.78444240097,154837.0
63023.79453626902,154864.0
63023.804630137085,154893.0
63023.81472400514,154885.0
63023.824817873196,154883.0
63023.83491174125,154866.0
63023.845005609306,154860.0
63023.85509947737,154878.0
63023.865193345424,154885.0
63023.87528721348,154859.0
63023.885381081534,154863.0
63023.8954749496,154786.0
63023.90556881765,154806.0
63023.91566268571,154724.0
63023.92575655376,154701.0
63023.935850421825,154723.0
63023.94594428988,154702.0
63023.956038157936,154686.0
63023.96613202599,154663.0
63023.976225894054,154694.0
63023.98631976211,154700.0
63023.996413630164,154707.0
63024.00650749822,154716.0
63024.016601366275,154699.0
63024.02669523434,154709.0
63024.03678910239,154715.0
63024.04688297045,154697.0
63024.0569768385,154684.0
63024.067070706566,154711.0
63024.07716457462,154716.0
63024.087258442676,154720.0
63024.09735231073,154737.0
63024.107446178794,154727.0
63024.11754004685,154741.0
63024.127633914904,154742.0
63024.13772778296,154747.0
63024.147821651015,154733.0
63024.15791551908,154731.0
63024.16800938713,154732.0
63024.17810325519,154733.0
63024.18819712324,154690.0
63024.198290991306,154710.0
63024.20838485936,154724.0
63024.21847872742,154696.0
63024.22857259547,154746.0
63024.238666463534,154716.0
63024.24876033159,154705.0
63024.258854199645,154716.0
63024.2689480677,154754.0
63024.27904193576,154725.0
63024.28913580382,154718.0
63024.29922967187,154765.0
63024.30932353993,154733.0
63024.31941740798,154721.0
63024.329511276046,154736.0
63024.3396051441,154729.0
63024.34969901216,154733.0
63024.35979288021,154760.0
63024.369886748274,154780.0
63024.37998061633,154741.0
63024.390074484385,154774.0
63024.40016835244,154777.0
63024.4102622205,154780.0
63024.42035608856,154798.0
63024.43044995661,154789.0
63024.44054382467,154779.0
63024.45063769273,154775.0
63024.46073156079,154778.0
63024.47082542884,154764.0
63024.4809192969,154804.0
63024.49101316495,154782.0
63024.501107033015,154813.0
63024.51120090107,154805.0
63024.521294769125,154801.0
63024.53138863718,154784.0
63024.54148250524,154811.0
63024.5515763733,154801.0
63024.56167024135,154812.0
63024.57176410941,154851.0
63024.58185797747,154830.0
63024.59195184553,154794.0
63024.60204571358,154829.0
63024.61213958164,154823.0
63024.6222334497,154832.0
63024.632327317755,154807.0
63024.64242118581,154844.0
63024.652515053865,154872.0
63024.66260892192,154838.0
63024.67270278998,154845.0
63024.68279665804,154854.0
63024.692890526094,154870.0
63024.70298439415,154817.0
63024.71307826221,154844.0
63024.72317213027,154779.0
63024.73326599832,154772.0
63024.74335986638,154709.0
63024.75345373444,154733.0
63024.763547602495,154709.0
63024.77364147055,154669.0
63024.783735338606,154709.0
63024.79382920667,154665.0
63024.80392307472,154692.0
63024.81401694278,154683.0
63024.824110810834,154670.0
63024.83420467889,154686.0
63024.84429854695,154677.0
63024.85439241501,154651.0
63024.86448628306,154651.0
63024.87458015112,154722.0
63024.88467401918,154685.0
63024.894767887236,154714.0
63024.90486175529,154694.0
63024.914955623346,154741.0
63024.92504949141,154732.0
63024.935143359464,154713.0
63024.94523722752,154719.0
63024.955331095574,154711.0
63024.96542496364,154756.0
63024.97551883169,154733.0
63024.98561269975,154693.0
63024.9957065678,154698.0
63025.00580043586,154682.0
63025.01589430392,154719.0
63025.025988171976,154700.0
63025.03608204003,154715.0
63025.046175908086,154708.0
63025.05626977615,154701.0
63025.066363644204,154686.0
63025.07645751226,154729.0
63025.086551380315,154695.0
63025.09664524838,154716.0
63025.10673911643,154704.0
63025.11683298449,154669.0
63025.12692685254,154727.0
63025.1370207206,154733.0
63025.14711458866,154729.0
63025.157208456716,154755.0
63025.16730232477,154740.0
63025.17739619283,154745.0
63025.18749006089,154725.0
63025.197583928944,154786.0
63025.207677797,154729.0
63025.217771665055,154775.0
63025.22786553312,154801.0
63025.23795940117,154777.0
63025.24805326923,154786.0
63025.25814713728,154764.0
63025.268241005346,154782.0
63025.2783348734,154788.0
63025.288428741456,154790.0
63025.29852260951,154799.0
63025.30861647757,154786.0
63025.31871034563,154793.0
63025.328804213685,154818.0
63025.33889808174,154784.0
63025.348991949795,154792.0
63025.35908581786,154831.0
63025.36917968591,154799.0
63025.37927355397,154820.0
63025.38936742202,154822.0
63025.399461290086,154824.0
63025.40955515814,154833.0
63025.4196490262,154853.0
63025.42974289425,154834.0
63025.439836762314,154839.0
63025.44993063037,154834.0
63025.460024498425,154822.0
63025.47011836648,154844.0
63025.480212234535,154809.0
63025.4903061026,154786.0
63025.50039997065,154744.0
63025.51049383871,154760.0
63025.520587706764,154719.0
63025.530681574826,154672.0
63025.54077544288,154695.0
63025.55086931094,154654.0
63025.56096317899,154625.0
63025.571057047055,154635.0
63025.58115091511,154655.0
63025.591244783165,154651.0
63025.60133865122,154635.0
63025.61143251928,154626.0
63025.62152638734,154648.0
63025.63162025539,154656.0
63025.64171412345,154641.0
63025.651807991504,154676.0
63025.66190185957,154649.0
63025.67199572762,154668.0
63025.68208959568,154672.0
63025.69218346373,154709.0
63025.702277331795,154657.0
63025.71237119985,154687.0
63025.722465067905,154692.0
63025.73255893596,154698.0
63025.74265280402,154708.0
63025.75274667208,154690.0
63025.762840540134,154688.0
63025.77293440819,154693.0
63025.783028276244,154717.0
63025.79312214431,154660.0
63025.80321601236,154673.0
63025.81330988042,154671.0
63025.82340374847,154679.0
63025.833497616535,154675.0
63025.84359148459,154700.0
63025.853685352646,154696.0
63025.8637792207,154696.0
63025.87387308876,154680.0
63025.88396695682,154671.0
63025.894060824874,154686.0
63025.90415469293,154669.0
63025.91424856099,154722.0
63025.92434242905,154695.0
63025.9344362971,154725.0
63025.94453016516,154698.0
63025.95462403321,154712.0
63025.964717901275,154735.0
63025.97481176933,154722.0
63025.984905637386,154765.0
63025.99499950544,154734.0
63026.005093373504,154749.0
63026.01518724156,154764.0
63026.025281109614,154718.0
63026.03537497767,154738.0
63026.04546884573,154783.0
63026.05556271379,154775.0
63026.06565658184,154774.0
63026.0757504499,154776.0
63026.08584431796,154774.0
63026.095938186016,154776.0
63026.10603205407,154811.0
63026.116125922126,154788.0
63026.12621979018,154794.0
63026.136313658244,154805.0
63026.1464075263,154785.0
63026.156501394355,154782.0
63026.16659526241,154803.0
63026.17668913047,154822.0
63026.18678299853,154812.0
63026.19687686658,154809.0
63026.20697073464,154803.0
63026.2170646027,154821.0
63026.227158470756,154818.0
63026.23725233881,154805.0
63026.24734620687,154830.0
63026.25744007493,154816.0
63026.267533942984,154806.0
63026.27762781104,154834.0
63026.287721679095,154800.0
63026.29781554715,154723.0
63026.30790941521,154709.0
63026.31800328327,154718.0
63026.32809715132,154693.0
63026.33819101938,154634.0
63026.34828488744,154655.0
63026.358378755496,154635.0
63026.36847262355,154615.0
63026.37856649161,154609.0
63026.38866035967,154569.0
63026.398754227725,154609.0
63026.40884809578,154606.0
63026.418941963835,154599.0
63026.4290358319,154595.0
63026.43912969995,154629.0
63026.44922356801,154623.0
63026.45931743606,154642.0
63026.46941130412,154630.0
63026.47950517218,154586.0
63026.48959904024,154597.0
63026.49969290829,154628.0
63026.50978677635,154622.0
63026.51988064441,154602.0
63026.529974512465,154639.0
63026.54006838052,154618.0
63026.550162248575,154615.0
63026.56025611664,154627.0
63026.57034998469,154612.0
63026.58044385275,154621.0
63026.590537720804,154645.0
63026.600631588866,154627.0
63026.61072545692,154617.0
63026.62081932498,154608.0
63026.63091319303,154623.0
63026.64100706109,154634.0
63026.65110092915,154605.0
63026.661194797205,154620.0
63026.67128866526,154601.0
63026.681382533316,154600.0
63026.69147640138,154667.0
63026.70157026943,154635.0
63026.71166413749,154653.0
63026.721758005544,154634.0
63026.73185187361,154671.0
63026.74194574166,154647.0
63026.75203960972,154633.0
63026.76213347777,154633.0
63026.77222734583,154676.0
63026.78232121389,154671.0
63026.792415081945,154646.0
63026.80250895,154649.0
63026.812602818056,154678.0
63026.82269668612,154697.0
63026.832790554174,154722.0
63026.84288442223,154684.0
63026.852978290284,154709.0
63026.86307215835,154683.0
63026.8731660264,154676.0
63026.88325989446,154719.0
63026.89335376251,154732.0
63026.903447630575,154732.0
63026.91354149863,154721.0
63026.923635366686,154753.0
63026.93372923474,154722.0
63026.943823102796,154735.0
63026.95391697086,154698.0
63026.964010838914,154718.0
63026.97410470697,154745.0
63026.984198575024,154753.0
63026.99429244309,154707.0
63027.00438631114,154743.0
63027.0144801792,154738.0
63027.02457404725,154739.0
63027.034667915315,154777.0
63027.04476178337,154784.0
63027.054855651426,154803.0
63027.06494951948,154795.0
63027.075043387544,154794.0
63027.0851372556,154812.0
63027.095231123654,154771.0
63027.10532499171,154833.0
63027.115418859765,154811.0
63027.12551272783,154761.0
63027.13560659588,154771.0
63027.14570046394,154760.0
63027.15579433199,154720.0
63027.165888200056,154666.0
63027.17598206811,154670.0
63027.186075936166,154611.0
63027.19616980422,154611.0
63027.206263672284,154603.0
63027.21635754034,154610.0
63027.226451408394,154574.0
63027.23654527645,154570.0
63027.24663914451,154589.0
63027.25673301257,154563.0
63027.26682688062,154586.0
63027.27692074868,154566.0
63027.28701461673,154569.0
63027.297108484796,154588.0
63027.30720235285,154595.0
63027.31729622091,154582.0
63027.32739008896,154558.0
63027.337483957024,154593.0
63027.34757782508,154568.0
63027.357671693135,154570.0
63027.36776556119,154540.0
63027.37785942925,154539.0
63027.38795329731,154564.0
63027.39804716536,154558.0
63027.40814103342,154605.0
63027.41823490148,154549.0
63027.428328769536,154584.0
63027.43842263759,154581.0
63027.44851650565,154559.0
63027.4586103737,154549.0
63027.468704241764,154544.0
63027.47879810982,154578.0
63027.488891977875,154548.0
63027.49898584593,154599.0
63027.50907971399,154549.0
63027.51917358205,154582.0
63027.5292674501,154554.0
63027.53936131816,154586.0
63027.54945518622,154568.0
63027.55954905428,154597.0
63027.56964292233,154602.0
63027.57973679039,154587.0
63027.58983065844,154588.0
63027.599924526505,154582.0
63027.61001839456,154625.0
63027.620112262615,154614.0
63027.63020613067,154641.0
63027.64029999873,154626.0
63027.65039386679,154629.0
63027.66048773484,154639.0
63027.6705816029,154651.0
63027.68067547096,154653.0
63027.69076933902,154657.0
63027.70086320707,154656.0
63027.71095707513,154622.0
63027.72105094319,154681.0
63027.731144811245,154673.0
63027.7412386793,154693.0
63027.751332547356,154675.0
63027.76142641541,154677.0
63027.77152028347,154691.0
63027.78161415153,154709.0
63027.791708019584,154710.0
63027.80180188764,154648.0
63027.8118957557,154693.0
63027.82198962376,154708.0
63027.83208349181,154710.0
63027.84217735987,154726.0
63027.85227122793,154706.0
63027.862365095985,154734.0
63027.87245896404,154693.0
63027.882552832096,154701.0
63027.89264670016,154724.0
63027.90274056821,154700.0
63027.91283443627,154724.0
63027.922928304324,154747.0
63027.93302217238,154704.0
63027.94311604044,154701.0
63027.9532099085,154719.0
63027.96330377655,154764.0
63027.97339764461,154769.0
63027.98349151267,154778.0
63027.993585380726,154756.0
63028.00367924878,154780.0
63028.013773116836,154773.0
63028.0238669849,154774.0
63028.033960852954,154719.0
63028.04405472101,154730.0
63028.054148589064,154663.0
63028.06424245713,154597.0
63028.07433632518,154607.0
63028.08443019324,154555.0
63028.09452406129,154562.0
63028.10461792935,154549.0
63028.11471179741,154578.0
63028.124805665466,154510.0
63028.13489953352,154547.0
63028.144993401576,154554.0
63028.15508726964,154524.0
63028.165181137694,154510.0
63028.17527500575,154574.0
63028.185368873805,154555.0
63028.19546274187,154543.0
63028.20555660992,154555.0
63028.21565047798,154513.0
63028.22574434603,154553.0
63028.235838214096,154521.0
63028.24593208215,154553.0
63028.256025950206,154559.0
63028.26611981826,154557.0
63028.27621368632,154562.0
63028.28630755438,154562.0
63028.296401422434,154565.0
63028.30649529049,154554.0
63028.316589158545,154572.0
63028.32668302661,154559.0
63028.33677689466,154556.0
63028.34687076272,154557.0
63028.35696463077,154517.0
63028.367058498836,154542.0
63028.37715236689,154540.0
63028.387246234946,154549.0
63028.397340103,154568.0
63028.40743397106,154512.0
63028.41752783912,154589.0
63028.427621707175,154570.0
63028.43771557523,154574.0
63028.447809443285,154562.0
63028.45790331135,154602.0
63028.4679971794,154591.0
63028.47809104746,154556.0
63028.48818491551,154597.0
63028.498278783576,154613.0
63028.50837265163,154617.0
63028.51846651969,154602.0
63028.52856038774,154628.0
63028.538654255804,154609.0
63028.54874812386,154631.0
63028.558841991915,154619.0
63028.56893585997,154644.0
63028.579029728025,154606.0
63028.58912359609,154647.0
63028.59921746414,154700.0
63028.6093113322,154628.0
63028.619405200254,154652.0
63028.62949906832,154659.0
63028.63959293637,154679.0
63028.64968680443,154654.0
63028.65978067248,154675.0
63028.669874540545,154671.0
63028.6799684086,154663.0
63028.690062276655,154686.0
63028.70015614471,154663.0
63028.71025001277,154679.0
63028.72034388083,154683.0
63028.73043774888,154701.0
63028.74053161694,154686.0
63028.750625484994,154705.0
63028.76071935306,154711.0
63028.77081322111,154717.0
63028.78090708917,154736.0
63028.79100095722,154686.0
63028.801094825285,154726.0
63028.81118869334,154717.0
63028.821282561395,154706.0
63028.83137642945,154714.0
63028.84147029751,154744.0
63028.85156416557,154753.0
63028.861658033624,154762.0
63028.87175190168,154781.0
63028.88184576974,154760.0
63028.8919396378,154748.0
63028.90203350585,154779.0
63028.91212737391,154744.0
63028.92222124196,154770.0
63028.932315110025,154743.0
63028.94240897808,154758.0
63028.952502846136,154709.0
63028.96259671419,154671.0
63028.97269058225,154646.0
63028.98278445031,154616.0
63028.992878318364,154611.0
63029.00297218642,154576.0
63029.01306605448,154532.0
63029.02315992254,154549.0
63029.03325379059,154570.0
63029.04334765865,154564.0
63029.05344152671,154532.0
63029.063535394765,154551.0
63029.07362926282,154545.0
63029.083723130876,154554.0
63029.09381699893,154580.0
63029.103910866994,154548.0
63029.11400473505,154565.0
63029.124098603104,154563.0
63029.13419247116,154556.0
63029.14428633922,154568.0
63029.15438020728,154560.0
63029.16447407533,154573.0
63029.17456794339,154565.0
63029.18466181145,154591.0
63029.194755679506,154552.0
63029.20484954756,154585.0
63029.214943415616,154575.0
63029.22503728367,154579.0
63029.235131151734,154569.0
63029.24522501979,154579.0
63029.255318887845,154581.0
63029.2654127559,154596.0
63029.27550662396,154524.0
63029.28560049202,154548.0
63029.29569436007,154548.0
63029.30578822813,154595.0
63029.31588209619,154558.0
63029.325975964246,154603.0
63029.3360698323,154585.0
63029.34616370036,154582.0
63029.35625756842,154612.0
63029.366351436474,154629.0
63029.37644530453,154593.0
63029.386539172585,154599.0
63029.39663304064,154592.0
63029.4067269087,154591.0
63029.41682077676,154623.0
63029.42691464481,154630.0
63029.43700851287,154639.0
63029.44710238093,154615.0
63029.457196248986,154639.0
63029.46729011704,154635.0
63029.4773839851,154644.0
63029.48747785316,154637.0
63029.497571721215,154663.0
63029.50766558927,154670.0
63029.517759457325,154664.0
63029.52785332539,154662.0
63029.53794719344,154664.0
63029.5480410615,154699.0
63029.55813492955,154648.0
63029.56822879761,154702.0
63029.57832266567,154675.0
63029.58841653373,154679.0
63029.59851040178,154690.0
63029.60860426984,154704.0
63029.6186981379,154706.0
63029.628792005955,154682.0
63029.63888587401,154745.0
63029.648979742065,154705.0
63029.65907361013,154712.0
63029.66916747818,154689.0
63029.67926134624,154723.0
63029.689355214294,154712.0
63029.699449082356,154732.0
63029.70954295041,154759.0
63029.71963681847,154716.0
63029.72973068652,154764.0
63029.73982455458,154743.0
63029.74991842264,154767.0
63029.760012290695,154761.0
63029.77010615875,154751.0
63029.780200026806,154761.0
63029.79029389487,154743.0
63029.80038776292,154747.0
63029.81048163098,154684.0
63029.820575499034,154680.0
63029.8306693671,154658.0
63029.84076323515,154608.0
63029.85085710321,154617.0
63029.86095097126,154612.0
63029.871044839325,154582.0
63029.88113870738,154574.0
63029.891232575435,154572.0
63029.90132644349,154537.0
63029.911420311546,154556.0
63029.92151417961,154532.0
63029.931608047664,154539.0
63029.94170191572,154553.0
63029.951795783774,154560.0
63029.96188965184,154566.0
63029.97198351989,154534.0
63029.98207738795,154570.0
63029.992171256,154584.0
63030.002265124065,154562.0
63030.01235899212,154591.0
63030.022452860176,154597.0
63030.03254672823,154579.0
63030.042640596286,154571.0
63030.05273446435,154577.0
63030.062828332404,154570.0
63030.07292220046,154588.0
63030.083016068515,154590.0
63030.09310993658,154564.0
63030.10320380463,154609.0
63030.11329767269,154587.0
63030.12339154074,154612.0
63030.133485408805,154577.0
63030.14357927686,154611.0
63030.153673144916,154591.0
63030.16376701297,154594.0
63030.173860881034,154579.0
63030.18395474909,154606.0
63030.194048617144,154600.0
63030.2041424852,154650.0
63030.214236353255,154633.0
63030.22433022132,154601.0
63030.23442408937,154611.0
63030.24451795743,154638.0
63030.25461182548,154641.0
63030.264705693546,154641.0
63030.2747995616,154658.0
63030.284893429656,154634.0
63030.29498729771,154631.0
63030.305081165774,154692.0
63030.31517503383,154658.0
63030.325268901885,154652.0
63030.33536276994,154683.0
63030.345456638,154652.0
63030.35555050606,154662.0
63030.36564437411,154673.0
63030.37573824217,154708.0
63030.38583211022,154669.0
63030.395925978286,154695.0
63030.40601984634,154699.0
63030.4161137144,154672.0
63030.42620758245,154689.0
63030.436301450514,154680.0
63030.44639531857,154696.0
63030.456489186625,154719.0
63030.46658305468,154726.0
63030.47667692274,154732.0
63030.4867707908,154718.0
63030.49686465885,154705.0
63030.50695852691,154699.0
63030.51705239497,154736.0
63030.527146263026,154746.0
63030.53724013108,154731.0
63030.54733399914,154749.0
63030.55742786719,154751.0
63030.567521735255,154755.0
63030.57761560331,154738.0
63030.587709471365,154780.0
63030.59780333942,154755.0
63030.60789720748,154715.0
63030.61799107554,154731.0
63030.62808494359,154718.0
63030.63817881165,154645.0
63030.64827267971,154645.0
63030.65836654777,154650.0
63030.66846041582,154595.0
63030.67855428388,154616.0
63030.68864815194,154584.0
63030.698742019995,154579.0
63030.70883588805,154543.0
63030.718929756105,154584.0
63030.72902362416,154569.0
63030.73911749222,154567.0
63030.74921136028,154587.0
63030.759305228334,154585.0
63030.76939909639,154589.0
63030.77949296445,154597.0
63030.78958683251,154586.0
63030.79968070056,154588.0
63030.80977456862,154598.0
63030.81986843668,154602.0
63030.829962304735,154586.0
63030.84005617279,154574.0
63030.850150040846,154610.0
63030.8602439089,154631.0
63030.87033777696,154571.0
63030.88043164502,154623.0
63030.890525513074,154611.0
63030.90061938113,154605.0
63030.91071324919,154632.0
63030.92080711725,154624.0
63030.9309009853,154609.0
63030.94099485336,154577.0
63030.95108872142,154601.0
63030.961182589475,154583.0
63030.97127645753,154607.0
63030.981370325586,154616.0
63030.99146419365,154596.0
63031.001558061704,154598.0
63031.01165192976,154643.0
63031.021745797814,154614.0
63031.03183966587,154606.0
63031.04193353393,154656.0
63031.05202740199,154620.0
63031.06212127004,154643.0
63031.0722151381,154653.0
63031.08230900616,154639.0
63031.092402874216,154658.0
63031.10249674227,154667.0
63031.112590610326,154651.0
63031.12268447839,154682.0
63031.132778346444,154669.0
63031.1428722145,154706.0
63031.152966082554,154636.0
63031.16305995062,154674.0
63031.17315381867,154676.0
63031.18324768673,154696.0
63031.19334155478,154690.0
63031.20343542284,154715.0
63031.2135292909,154700.0
63031.223623158956,154721.0
63031.23371702701,154704.0
63031.24381089507,154731.0
63031.25390476313,154691.0
63031.263998631184,154718.0
63031.27409249924,154724.0
63031.284186367295,154696.0
63031.29428023536,154745.0
63031.30437410341,154733.0
63031.31446797147,154726.0
63031.32456183952,154731.0
63031.334655707586,154771.0
63031.34474957564,154746.0
63031.354843443696,154731.0
63031.36493731175,154772.0
63031.37503117981,154737.0
63031.38512504787,154761.0
63031.395218915924,154772.0
63031.40531278398,154763.0
63031.415406652035,154720.0
63031.4255005201,154728.0
63031.43559438815,154722.0
63031.44568825621,154658.0
63031.45578212426,154661.0
63031.465875992326,154643.0
63031.47596986038,154638.0
63031.48606372844,154615.0
63031.49615759649,154568.0
63031.506251464554,154585.0
63031.51634533261,154571.0
63031.526439200665,154586.0
63031.53653306872,154595.0
63031.546626936775,154566.0
63031.55672080484,154565.0
63031.56681467289,154628.0
63031.57690854095,154592.0
63031.587002409,154639.0
63031.597096277066,154618.0
63031.60719014512,154596.0
63031.61728401318,154618.0
63031.62737788123,154657.0
63031.637471749294,154630.0
63031.64756561735,154623.0
63031.657659485405,154650.0
63031.66775335346,154630.0
63031.677847221516,154611.0
63031.68794108958,154628.0
63031.69803495763,154648.0
63031.70812882569,154619.0
63031.718222693744,154635.0
63031.72831656181,154656.0
63031.73841042986,154600.0
63031.74850429792,154642.0
63031.75859816597,154634.0
63031.768692034035,154606.0
63031.77878590209,154595.0
63031.788879770145,154602.0
63031.7989736382,154636.0
63031.80906750626,154626.0
63031.81916137432,154644.0
63031.82925524237,154599.0
63031.83934911043,154644.0
63031.849442978484,154638.0
63031.85953684655,154630.0
63031.8696307146,154641.0
63031.87972458266,154667.0
63031.88981845071,154657.0
63031.899912318775,154647.0
63031.91000618683,154690.0
63031.920100054886,154690.0
63031.93019392294,154705.0
63031.940287791,154692.0
63031.95038165906,154715.0
63031.960475527114,154696.0
63031.97056939517,154673.0
63031.98066326323,154685.0
63031.99075713129,154680.0
63032.00085099934,154712.0
63032.0109448674,154724.0
63032.02103873545,154700.0
63032.031132603515,154682.0
63032.04122647157,154724.0
63032.051320339626,154732.0
63032.06141420768,154710.0
63032.07150807574,154716.0
63032.0816019438,154768.0
63032.091695811854,154718.0
63032.10178967991,154737.0
63032.11188354797,154730.0
63032.12197741603,154744.0
63032.13207128408,154740.0
63032.14216515214,154778.0
63032.1522590202,154762.0
63032.162352888256,154756.0
63032.17244675631,154721.0
63032.182540624366,154666.0
63032.19263449242,154664.0
63032.202728360484,154649.0
63032.21282222854,154630.0
63032.222916096594,154590.0
63032.23300996465,154565.0
63032.24310383271,154610.0
63032.25319770077,154593.0
63032.26329156882,154559.0
63032.27338543688,154592.0
63032.28347930494,154599.0
63032.293573172996,154599.0
63032.30366704105,154613.0
63032.313760909106,154601.0
63032.32385477717,154596.0
63032.333948645224,154616.0
63032.34404251328,154626.0
63032.354136381335,154599.0
63032.36423024939,154639.0
63032.37432411745,154636.0
63032.38441798551,154613.0
63032.39451185356,154618.0
63032.40460572162,154635.0
63032.41469958968,154642.0
63032.424793457736,154655.0
63032.43488732579,154634.0
63032.44498119385,154658.0
63032.45507506191,154639.0
63032.465168929964,154618.0
63032.47526279802,154625.0
63032.485356666075,154603.0
63032.49545053413,154614.0
63032.50554440219,154598.0
63032.51563827025,154611.0
63032.5257321383,154633.0
63032.53582600636,154622.0
63032.54591987442,154637.0
63032.556013742476,154613.0
63032.56610761053,154671.0
63032.57620147859,154642.0
63032.58629534665,154631.0
63032.596389214705,154649.0
63032.60648308276,154648.0
63032.616576950815,154627.0
63032.62667081888,154651.0
63032.63676468693,154697.0
63032.64685855499,154684.0
63032.65695242304,154669.0
63032.6670462911,154707.0
63032.67714015916,154695.0
63032.68723402722,154684.0
63032.69732789527,154722.0
63032.70742176333,154713.0
63032.71751563139,154694.0
63032.727609499445,154712.0
63032.7377033675,154736.0
63032.747797235555,154716.0
63032.75789110362,154694.0
63032.76798497167,154724.0
63032.77807883973,154713.0
63032.788172707784,154734.0
63032.798266575846,154723.0
63032.8083604439,154731.0
63032.81845431196,154731.0
63032.82854818001,154738.0
63032.83864204807,154766.0
63032.84873591613,154712.0
63032.858829784185,154736.0
63032.86892365224,154731.0
63032.879017520296,154695.0
63032.88911138836,154644.0
63032.89920525641,154678.0
63032.90929912447,154635.0
63032.919392992524,154630.0
63032.92948686059,154563.0
63032.93958072864,154562.0
63032.9496745967,154565.0
63032.95976846475,154526.0
63032.969862332815,154572.0
63032.97995620087,154545.0
63032.990050068925,154569.0
63033.00014393698,154573.0
63033.010237805036,154598.0
63033.0203316731,154559.0
63033.030425541154,154573.0
63033.04051940921,154583.0
63033.050613277264,154589.0
63033.06070714533,154625.0
63033.07080101338,154610.0
63033.08089488144,154590.0
63033.09098874949,154630.0
63033.101082617555,154606.0
63033.11117648561,154619.0
63033.121270353666,154604.0
63033.13136422172,154612.0
63033.14145808978,154618.0
63033.15155195784,154587.0
63033.161645825894,154629.0
63033.17173969395,154618.0
63033.181833562005,154624.0
63033.19192743007,154603.0
63033.20202129812,154598.0
63033.21211516618,154603.0
63033.22220903423,154596.0
63033.232302902295,154596.0
63033.24239677035,154584.0
63033.252490638406,154629.0
63033.26258450646,154621.0
63033.272678374524,154637.0
63033.28277224258,154624.0
63033.292866110634,154645.0
63033.30295997869,154619.0
63033.313053846745,154608.0
63033.32314771481,154651.0
63033.33324158286,154658.0
63033.34333545092,154685.0
63033.35342931897,154671.0
63033.363523187036,154670.0
63033.37361705509,154667.0
63033.383710923146,154683.0
63033.3938047912,154672.0
63033.403898659264,154688.0
63033.41399252732,154706.0
63033.424086395375,154668.0
63033.43418026343,154684.0
63033.44427413149,154700.0
63033.45436799955,154694.0
63033.4644618676,154713.0
63033.47455573566,154740.0
63033.48464960371,154719.0
63033.494743471776,154701.0
63033.50483733983,154724.0
63033.51493120789,154706.0
63033.52502507594,154745.0
63033.535118944004,154700.0
63033.54521281206,154743.0
63033.555306680115,154766.0
63033.56540054817,154741.0
63033.57549441623,154716.0
63033.58558828429,154683.0
63033.59568215234,154659.0
63033.6057760204,154653.0
63033.61586988846,154633.0
63033.625963756516,154600.0
63033.63605762457,154561.0
63033.64615149263,154544.0
63033.65624536068,154525.0
63033.666339228745,154543.0
63033.6764330968,154507.0
63033.686526964855,154523.0
63033.69662083291,154547.0
63033.70671470097,154518.0
63033.71680856903,154520.0
63033.72690243708,154540.0
63033.73699630514,154560.0
63033.7470901732,154581.0
63033.75718404126,154578.0
63033.76727790931,154552.0
63033.77737177737,154536.0
63033.78746564543,154554.0
63033.797559513485,154566.0
63033.80765338154,154518.0
63033.817747249595,154564.0
63033.82784111765,154576.0
63033.83793498571,154552.0
63033.84802885377,154574.0
63033.858122721824,154556.0
63033.86821658988,154574.0
63033.87831045794,154544.0
63033.888404326,154579.0
63033.89849819405,154556.0
63033.90859206211,154545.0
63033.91868593017,154551.0
63033.928779798225,154542.0
63033.93887366628,154566.0
63033.948967534336,154573.0
63033.9590614024,154561.0
63033.96915527045,154545.0
63033.97924913851,154562.0
63033.989343006564,154572.0
63033.99943687462,154585.0
63034.00953074268,154562.0
63034.01962461074,154586.0
63034.02971847879,154614.0
63034.03981234685,154614.0
63034.04990621491,154616.0
63034.060000082965,154618.0
63034.07009395102,154609.0
63034.080187819076,154663.0
63034.09028168714,154572.0
63034.100375555194,154627.0
63034.11046942325,154593.0
63034.120563291304,154675.0
63034.13065715936,154655.0
63034.14075102742,154638.0
63034.15084489548,154660.0
63034.16093876353,154624.0
63034.17103263159,154665.0
63034.18112649965,154673.0
63034.191220367706,154674.0
63034.20131423576,154662.0
63034.211408103816,154687.0
63034.22150197188,154692.0
63034.231595839934,154659.0
63034.24168970799,154671.0
63034.251783576045,154700.0
63034.26187744411,154691.0
63034.27197131216,154716.0
63034.28206518022,154706.0
63034.29215904827,154712.0
63034.30225291633,154717.0
63034.31234678439,154682.0
63034.322440652446,154697.0
63034.3325345205,154725.0
63034.34262838856,154735.0
63034.35272225662,154713.0
63034.362816124674,154698.0
63034.37290999273,154708.0
63034.383003860785,154680.0
63034.39309772885,154643.0
63034.4031915969,154648.0
63034.41328546496,154593.0
63034.42337933301,154589.0
63034.433473201076,154538.0
63034.44356706913,154521.0
63034.453660937186,154476.0
63034.46375480524,154475.0
63034.4738486733,154492.0
63034.48394254136,154466.0
63034.494036409415,154499.0
63034.50413027747,154486.0
63034.514224145525,154482.0
63034.52431801359,154481.0
63034.53441188164,154510.0
63034.5445057497,154473.0
63034.55459961775,154505.0
63034.564693485816,154486.0
63034.57478735387,154471.0
63034.58488122193,154485.0
63034.59497508998,154491.0
63034.605068958044,154475.0
63034.6151628261,154467.0
63034.625256694155,154497.0
63034.63535056221,154476.0
63034.645444430265,154465.0
63034.65553829833,154520.0
63034.66563216638,154487.0
63034.67572603444,154499.0
63034.685819902494,154484.0
63034.695913770556,154482.0
63034.70600763861,154471.0
63034.71610150667,154490.0
63034.72619537472,154484.0
63034.736289242785,154457.0
63034.74638311084,154475.0
63034.756476978895,154514.0
63034.76657084695,154520.0
63034.77666471501,154471.0
63034.78675858307,154484.0
63034.79685245112,154520.0
63034.80694631918,154519.0
63034.817040187234,154501.0
63034.8271340553,154506.0
63034.83722792335,154535.0
63034.84732179141,154541.0
63034.85741565946,154550.0
63034.867509527525,154537.0
63034.87760339558,154545.0
63034.887697263635,154560.0
63034.89779113169,154531.0
63034.90788499975,154565.0
63034.91797886781,154569.0
63034.928072735864,154570.0
63034.93816660392,154566.0
63034.948260471974,154589.0
63034.95835434004,154569.0
63034.96844820809,154591.0
63034.97854207615,154596.0
63034.9886359442,154570.0
63034.998729812265,154613.0
63035.00882368032,154606.0
63035.018917548376,154614.0
63035.02901141643,154582.0
63035.03910528449,154638.0
63035.04919915255,154620.0
63035.059293020604,154608.0
63035.06938688866,154638.0
63035.07948075672,154606.0
63035.08957462478,154631.0
63035.09966849283,154626.0
63035.10976236089,154634.0
63035.11985622894,154637.0
63035.129950097005,154650.0
63035.14004396506,154689.0
63035.150137833116,154652.0
63035.16023170117,154635.0
63035.170325569234,154664.0
63035.18041943729,154698.0
63035.190513305344,154676.0
63035.2006071734,154730.0
63035.21070104146,154683.0
63035.22079490952,154684.0
63035.23088877757,154686.0
63035.24098264563,154667.0
63035.25107651369,154667.0
63035.261170381746,154601.0
63035.2712642498,154543.0
63035.281358117856,154532.0
63035.29145198591,154503.0
63035.301545853974,154485.0
63035.31163972203,154458.0
63035.321733590084,154444.0
63035.33182745814,154453.0
63035.3419213262,154486.0
63035.35201519426,154443.0
63035.36210906231,154478.0
63035.37220293037,154457.0
63035.38229679843,154443.0
63035.392390666486,154488.0
63035.40248453454,154473.0
63035.4125784026,154456.0
63035.42267227066,154481.0
63035.432766138714,154459.0
63035.44286000677,154426.0
63035.452953874825,154446.0
63035.46304774288,154450.0
63035.47314161094,154463.0
63035.483235479,154441.0
63035.49332934705,154457.0
63035.50342321511,154433.0
63035.51351708317,154484.0
63035.523610951226,154464.0
63035.53370481928,154479.0
63035.54379868734,154459.0
63035.5538925554,154472.0
63035.563986423454,154458.0
63035.57408029151,154416.0
63035.584174159565,154453.0
63035.59426802763,154460.0
63035.60436189568,154424.0
63035.61445576374,154444.0
63035.62454963179,154465.0
63035.63464349985,154449.0
63035.64473736791,154454.0
63035.65483123597,154490.0
63035.66492510402,154485.0
63035.67501897208,154467.0
63035.68511284014,154462.0
63035.695206708195,154494.0
63035.70530057625,154493.0
63035.715394444305,154479.0
63035.72548831237,154505.0
63035.73558218042,154492.0
63035.74567604848,154521.0
63035.75576991653,154554.0
63035.76586378459,154544.0
63035.77595765265,154537.0
63035.78605152071,154528.0
63035.79614538876,154559.0
63035.80623925682,154566.0
63035.81633312488,154529.0
63035.826426992935,154530.0
63035.83652086099,154535.0
63035.846614729046,154544.0
63035.85670859711,154528.0
63035.86680246516,154558.0
63035.87689633322,154575.0
63035.886990201274,154579.0
63035.89708406934,154562.0
63035.90717793739,154579.0
63035.91727180545,154612.0
63035.9273656735,154593.0
63035.93745954156,154598.0
63035.94755340962,154600.0
63035.957647277675,154551.0
63035.96774114573,154596.0
63035.977835013786,154632.0
63035.98792888185,154621.0
63035.9980227499,154620.0
63036.00811661796,154594.0
63036.018210486014,154634.0
63036.02830435408,154647.0
63036.03839822213,154619.0
63036.04849209019,154655.0
63036.05858595824,154656.0
63036.068679826305,154632.0
63036.07877369436,154654.0
63036.088867562416,154683.0
63036.09896143047,154652.0
63036.109055298526,154655.0
63036.11914916659,154677.0
63036.129243034644,154687.0
63036.1393369027,154659.0
63036.149430770754,154621.0
63036.15952463882,154591.0
63036.16961850687,154558.0
63036.17971237493,154544.0
63036.18980624298,154459.0
63036.199900111045,154474.0
63036.2099939791,154465.0
63036.220087847156,154429.0
63036.23018171521,154410.0
63036.24027558327,154427.0
63036.25036945133,154446.0
63036.260463319384,154413.0
63036.27055718744,154461.0
63036.280651055495,154447.0
63036.29074492356,154421.0
63036.30083879161,154424.0
63036.31093265967,154446.0
63036.32102652772,154454.0
63036.331120395786,154461.0
63036.34121426384,154470.0
63036.351308131896,154411.0
63036.36140199995,154435.0
63036.371495868014,154394.0
63036.38158973607,154408.0
63036.391683604124,154451.0
63036.40177747218,154454.0
63036.41187134024,154445.0
63036.4219652083,154434.0
63036.43205907635,154449.0
63036.44215294441,154457.0
63036.45224681246,154464.0
63036.462340680526,154456.0
63036.47243454858,154437.0
63036.482528416636,154453.0
63036.49262228469,154445.0
63036.502716152754,154466.0
63036.51281002081,154475.0
63036.522903888865,154457.0
63036.53299775692,154432.0
63036.54309162498,154450.0
63036.55318549304,154467.0
63036.56327936109,154480.0
63036.57337322915,154483.0
63036.5834670972,154479.0
63036.593560965266,154506.0
63036.60365483332,154494.0
63036.61374870138,154470.0
63036.62384256943,154510.0
63036.633936437494,154529.0
63036.64403030555,154492.0
63036.654124173605,154520.0
63036.66421804166,154538.0
63036.67431190972,154499.0
63036.68440577778,154555.0
63036.69449964583,154538.0
63036.70459351389,154531.0
63036.71468738195,154539.0
63036.724781250006,154553.0
63036.73487511806,154551.0
63036.74496898612,154536.0
63036.75506285417,154568.0
63036.765156722235,154547.0
63036.77525059029,154547.0
63036.785344458345,154531.0
63036.7954383264,154520.0
63036.80553219446,154553.0
63036.81562606252,154581.0
63036.82571993057,154563.0
63036.83581379863,154599.0
63036.84590766669,154590.0
63036.85600153475,154580.0
63036.8660954028,154571.0
63036.87618927086,154566.0
63036.88628313892,154612.0
63036.896377006975,154593.0
63036.90647087503,154573.0
63036.916564743085,154631.0
63036.92665861114,154591.0
63036.9367524792,154623.0
63036.94684634726,154592.0
63036.956940215314,154638.0
63036.96703408337,154627.0
63036.97712795143,154643.0
63036.98722181949,154655.0
63036.99731568754,154639.0
63037.0074095556,154638.0
63037.01750342366,154645.0
63037.027597291715,154630.0
63037.03769115977,154617.0
63037.047785027826,154591.0
63037.05787889589,154551.0
63037.06797276394,154491.0
63037.078066632,154516.0
63037.088160500054,154435.0
63037.09825436811,154445.0
63037.10834823617,154459.0
63037.11844210423,154429.0
63037.12853597228,154430.0
63037.13862984034,154444.0
63037.1487237084,154410.0
63037.158817576455,154414.0
63037.16891144451,154469.0
63037.179005312566,154453.0
63037.18909918063,154429.0
63037.199193048684,154470.0
63037.20928691674,154495.0
63037.219380784794,154474.0
63037.22947465286,154479.0
63037.23956852091,154503.0
63037.24966238897,154465.0
63037.25975625702,154490.0
63037.26985012508,154495.0
63037.27994399314,154508.0
63037.290037861196,154481.0
63037.30013172925,154512.0
63037.310225597306,154492.0
63037.32031946537,154480.0
63037.330413333424,154497.0
63037.34050720148,154477.0
63037.350601069535,154482.0
63037.3606949376,154443.0
63037.37078880565,154501.0
63037.38088267371,154475.0
63037.39097654176,154482.0
63037.40107040982,154499.0
63037.41116427788,154492.0
63037.421258145936,154476.0
63037.43135201399,154504.0
63037.44144588205,154469.0
63037.45153975011,154473.0
63037.461633618164,154525.0
63037.47172748622,154510.0
63037.481821354275,154510.0
63037.49191522234,154519.0
63037.50200909039,154484.0
63037.51210295845,154532.0
63037.5221968265,154502.0
63037.532290694566,154536.0
63037.54238456262,154532.0
63037.552478430676,154544.0
63037.56257229873,154597.0
63037.57266616679,154533.0
63037.58276003485,154524.0
63037.592853902905,154575.0
63037.60294777096,154597.0
63037.613041639015,154560.0
63037.62313550708,154598.0
63037.63322937513,154586.0
63037.64332324319,154566.0
63037.65341711124,154598.0
63037.663510979306,154602.0
63037.67360484736,154592.0
63037.68369871542,154581.0
63037.69379258347,154613.0
63037.703886451534,154566.0
63037.71398031959,154597.0
63037.724074187645,154596.0
63037.7341680557,154617.0
63037.744261923755,154613.0
63037.75435579182,154627.0
63037.76444965987,154612.0
63037.77454352793,154592.0
63037.784637395984,154623.0
63037.794731264046,154621.0
63037.8048251321,154650.0
63037.81491900016,154672.0
63037.82501286821,154669.0
63037.835106736275,154633.0
63037.84520060433,154645.0
63037.855294472385,154661.0
63037.86538834044,154631.0
63037.8754822085,154650.0
63037.88557607656,154616.0
63037.89566994461,154577.0
63037.90576381267,154565.0
63037.915857680724,154542.0
63037.92595154879,154491.0
63037.93604541684,154469.0
63037.9461392849,154485.0
63037.95623315295,154447.0
63037.966327021015,154437.0
63037.97642088907,154458.0
63037.986514757125,154461.0
63037.99660862518,154428.0
63038.00670249324,154470.0
63038.0167963613,154492.0
63038.026890229354,154468.0
63038.03698409741,154497.0
63038.04707796547,154478.0
63038.05717183353,154501.0
63038.06726570158,154523.0
63038.07735956964,154521.0
63038.08745343769,154507.0
63038.097547305755,154487.0
63038.10764117381,154541.0
63038.117735041866,154528.0
63038.12782890992,154506.0
63038.13792277798,154503.0
63038.14801664604,154497.0
63038.158110514094,154495.0
63038.16820438215,154520.0
63038.17829825021,154546.0
63038.18839211827,154495.0
63038.19848598632,154484.0
63038.20857985438,154501.0
63038.21867372243,154516.0
63038.228767590495,154483.0
63038.23886145855,154512.0
63038.248955326606,154492.0
63038.25904919466,154508.0
63038.269143062724,154508.0
63038.27923693078,154512.0
63038.289330798834,154527.0
63038.29942466689,154506.0
63038.30951853495,154554.0
63038.31961240301,154506.0
63038.32970627106,154547.0
63038.33980013912,154561.0
63038.34989400718,154551.0
63038.359987875236,154522.0
63038.37008174329,154548.0
63038.380175611346,154567.0
63038.3902694794,154568.0
63038.400363347464,154609.0
63038.41045721552,154565.0
63038.420551083575,154601.0
63038.43064495163,154566.0
63038.44073881969,154608.0
63038.45083268775,154614.0
63038.4609265558,154615.0
63038.47102042386,154617.0
63038.48111429192,154629.0
63038.491208159976,154631.0
63038.50130202803,154636.0
63038.51139589609,154584.0
63038.52148976415,154621.0
63038.531583632204,154638.0
63038.54167750026,154637.0
63038.551771368315,154613.0
63038.56186523637,154648.0
63038.57195910443,154662.0
63038.58205297249,154660.0
63038.59214684054,154663.0
63038.6022407086,154639.0
63038.61233457666,154656.0
63038.622428444716,154671.0
63038.63252231277,154661.0
63038.64261618083,154637.0
63038.65271004889,154643.0
63038.662803916945,154675.0
63038.672897785,154641.0
63038.682991653055,154646.0
63038.69308552112,154609.0
63038.70317938917,154565.0
63038.71327325723,154493.0
63038.72336712528,154545.0
63038.73346099334,154484.0
63038.7435548614,154472.0
63038.75364872946,154449.0
63038.76374259751,154416.0
63038.77383646557,154447.0
63038.78393033363,154447.0
63038.794024201685,154445.0
63038.80411806974,154456.0
63038.814211937795,154483.0
63038.82430580586,154473.0
63038.83439967391,154472.0
63038.84449354197,154473.0
63038.854587410024,154461.0
63038.864681278086,154489.0
63038.87477514614,154460.0
63038.8848690142,154507.0
63038.89496288225,154465.0
63038.90505675031,154461.0
63038.91515061837,154482.0
63038.925244486425,154517.0
63038.93533835448,154473.0
63038.945432222536,154539.0
63038.9555260906,154507.0
63038.96561995865,154491.0
63038.97571382671,154496.0
63038.985807694764,154469.0
63038.99590156283,154490.0
63039.00599543088,154489.0
63039.01608929894,154518.0
63039.02618316699,154519.0
63039.03627703505,154487.0
63039.04637090311,154476.0
63039.056464771165,154516.0
63039.06655863922,154513.0
63039.076652507276,154510.0
63039.08674637534,154499.0
63039.096840243394,154515.0
63039.10693411145,154516.0
63039.117027979504,154533.0
63039.12712184757,154565.0
63039.13721571562,154538.0
63039.14730958368,154563.0
63039.15740345173,154551.0
63039.167497319795,154532.0
63039.17759118785,154566.0
63039.187685055906,154579.0
63039.19777892396,154567.0
63039.207872792016,154577.0
63039.21796666008,154571.0
63039.228060528134,154602.0
63039.23815439619,154599.0
63039.248248264244,154578.0
63039.25834213231,154609.0
63039.26843600036,154601.0
63039.27852986842,154610.0
63039.28862373647,154618.0
63039.298717604535,154611.0
63039.30881147259,154622.0
63039.318905340646,154615.0
63039.3289992087,154632.0
63039.339093076764,154642.0
63039.34918694482,154645.0
63039.359280812874,154650.0
63039.36937468093,154640.0
63039.379468548985,154665.0
63039.38956241705,154617.0
63039.3996562851,154651.0
63039.40975015316,154643.0
63039.41984402121,154622.0
63039.429937889276,154679.0
63039.44003175733,154684.0
63039.450125625386,154668.0
63039.46021949344,154643.0
63039.470313361504,154662.0
63039.48040722956,154708.0
63039.490501097614,154706.0
63039.50059496567,154718.0
63039.51068883373,154686.0
63039.52078270179,154698.0
63039.53087656984,154664.0
63039.5409704379,154626.0
63039.55106430595,154574.0
63039.561158174016,154542.0
63039.57125204207,154489.0
63039.58134591013,154476.0
63039.59143977818,154468.0
63039.601533646244,154450.0
63039.6116275143,154445.0
63039.621721382355,154442.0
63039.63181525041,154433.0
63039.64190911847,154447.0
63039.65200298653,154456.0
63039.66209685458,154459.0
63039.67219072264,154470.0
63039.6822845907,154457.0
63039.692378458756,154463.0
63039.70247232681,154464.0
63039.71256619487,154467.0
63039.72266006292,154471.0
63039.732753930984,154457.0
63039.74284779904,154449.0
63039.752941667095,154455.0
63039.76303553515,154460.0
63039.77312940321,154446.0
63039.78322327127,154440.0
63039.79331713932,154482.0
63039.80341100738,154451.0
63039.81350487544,154463.0
63039.8235987435,154443.0
63039.83369261155,154473.0
63039.84378647961,154419.0
63039.85388034766,154463.0
63039.863974215725,154475.0
63039.87406808378,154442.0
63039.884161951835,154464.0
63039.89425581989,154462.0
63039.90434968795,154426.0
63039.91444355601,154441.0
63039.92453742406,154455.0
63039.93463129212,154470.0
63039.94472516018,154467.0
63039.95481902824,154500.0
63039.96491289629,154452.0
63039.97500676435,154482.0
63039.98510063241,154469.0
63039.995194500465,154472.0
63040.00528836852,154519.0
63040.015382236576,154511.0
63040.02547610463,154481.0
63040.03556997269,154520.0
63040.04566384075,154537.0
63040.055757708804,154488.0
63040.06585157686,154537.0
63040.07594544492,154555.0
63040.08603931298,154552.0
63040.09613318103,154544.0
63040.10622704909,154548.0
63040.11632091715,154524.0
63040.126414785205,154530.0
63040.13650865326,154535.0
63040.146602521316,154558.0
63040.15669638938,154554.0
63040.16679025743,154558.0
63040.17688412549,154597.0
63040.186977993544,154559.0
63040.1970718616,154566.0
63040.20716572966,154598.0
63040.21725959772,154569.0
63040.22735346577,154589.0
63040.23744733383,154596.0
63040.24754120189,154575.0
63040.257635069946,154575.0
63040.267728938,154597.0
63040.277822806056,154625.0
63040.28791667412,154593.0
63040.298010542174,154631.0
63040.30810441023,154627.0
63040.318198278284,154622.0
63040.32829214635,154636.0
63040.3383860144,154636.0
63040.34847988246,154644.0
63040.35857375051,154643.0
63040.36866761857,154673.0
63040.37876148663,154592.0
63040.388855354686,154655.0
63040.39894922274,154643.0
63040.409043090796,154647.0
63040.41913695886,154635.0
63040.429230826914,154662.0
63040.43932469497,154658.0
63040.449418563025,154629.0
63040.45951243109,154606.0
63040.46960629914,154557.0
63040.4797001672,154493.0
63040.48979403525,154450.0
63040.499887903316,154461.0
63040.50998177137,154410.0
63040.520075639426,154406.0
63040.53016950748,154438.0
63040.54026337554,154461.0
63040.5503572436,154426.0
63040.560451111654,154414.0
63040.57054497971,154451.0
63040.580638847765,154423.0
63040.59073271583,154433.0
63040.60082658388,154431.0
63040.61092045194,154406.0
63040.62101431999,154447.0
63040.631108188056,154416.0
63040.64120205611,154448.0
63040.651295924166,154402.0
63040.66138979222,154414.0
63040.67148366028,154412.0
63040.68157752834,154422.0
63040.691671396395,154444.0
63040.70176526445,154400.0
63040.711859132505,154448.0
63040.72195300057,154435.0
63040.73204686862,154447.0
63040.74214073668,154439.0
63040.75223460473,154460.0
63040.762328472796,154447.0
63040.77242234085,154441.0
63040.78251620891,154465.0
63040.79261007696,154423.0
63040.802703945024,154431.0
63040.81279781308,154464.0
63040.822891681135,154424.0
63040.83298554919,154437.0
63040.843079417245,154457.0
63040.85317328531,154478.0
63040.86326715336,154441.0
63040.87336102142,154460.0
63040.883454889474,154449.0
63040.893548757536,154472.0
63040.90364262559,154447.0
63040.91373649365,154502.0
63040.9238303617,154467.0
63040.933924229765,154468.0
63040.94401809782,154517.0
63040.954111965875,154487.0
63040.96420583393,154506.0
63040.97429970199,154482.0
63040.98439357005,154525.0
63040.9944874381,154526.0
63041.00458130616,154520.0
63041.014675174214,154519.0
63041.02476904228,154511.0
63041.03486291033,154537.0
63041.04495677839,154550.0
63041.05505064644,154526.0
63041.065144514505,154500.0
63041.07523838256,154572.0
63041.085332250615,154539.0
63041.09542611867,154533.0
63041.10551998673,154557.0
63041.11561385479,154560.0
63041.125707722844,154558.0
63041.1358015909,154543.0
63041.14589545896,154570.0
63041.15598932702,154590.0
63041.16608319507,154570.0
63041.17617706313,154592.0
63041.18627093118,154550.0
63041.196364799245,154552.0
63041.2064586673,154607.0
63041.216552535356,154588.0
63041.22664640341,154595.0
63041.23674027147,154617.0
63041.24683413953,154587.0
63041.256928007584,154619.0
63041.26702187564,154626.0
63041.2771157437,154651.0
63041.28720961176,154614.0
63041.29730347981,154642.0
63041.30739734787,154618.0
63041.31749121593,154612.0
63041.327585083985,154622.0
63041.33767895204,154648.0
63041.347772820096,154657.0
63041.35786668815,154694.0
63041.367960556214,154681.0
63041.37805442427,154643.0
63041.388148292324,154585.0
63041.39824216038,154570.0
63041.40833602844,154543.0
63041.4184298965,154517.0
63041.42852376455,154485.0
63041.43861763261,154451.0
63041.44871150067,154388.0
63041.458805368726,154413.0
63041.46889923678,154414.0
63041.478993104836,154392.0
63041.48908697289,154451.0
63041.499180840954,154429.0
63041.50927470901,154425.0
63041.519368577065,154460.0
63041.52946244512,154458.0
63041.53955631318,154443.0
63041.54965018124,154443.0
63041.55974404929,154474.0
63041.56983791735,154446.0
63041.57993178541,154426.0
63041.590025653466,154454.0
63041.60011952152,154458.0
63041.61021338958,154412.0
63041.62030725764,154454.0
63041.630401125694,154473.0
63041.64049499375,154435.0
63041.650588861805,154467.0
63041.66068272986,154467.0
63041.67077659792,154431.0
63041.68087046598,154433.0
63041.69096433403,154486.0
63041.70105820209,154453.0
63041.71115207015,154449.0
63041.721245938206,154436.0
63041.73133980626,154472.0
63041.74143367432,154446.0
63041.75152754238,154437.0
63041.761621410435,154479.0
63041.77171527849,154428.0
63041.781809146545,154474.0
63041.79190301461,154459.0
63041.80199688266,154464.0
63041.81209075072,154460.0
63041.82218461877,154470.0
63041.83227848683,154480.0
63041.84237235489,154491.0
63041.85246622295,154457.0
63041.862560091,154460.0
63041.87265395906,154488.0
63041.88274782712,154498.0
63041.892841695175,154514.0
63041.90293556323,154490.0
63041.913029431285,154517.0
63041.92312329935,154553.0
63041.9332171674,154517.0
63041.94331103546,154536.0
63041.953404903514,154526.0
63041.963498771576,154518.0
63041.97359263963,154551.0
63041.98368650769,154532.0
63041.99378037574,154540.0
63042.0038742438,154537.0
63042.01396811186,154564.0
63042.024061979915,154520.0
63042.03415584797,154552.0
63042.044249716026,154538.0
63042.05434358409,154531.0
63042.06443745214,154558.0
63042.0745313202,154559.0
63042.084625188254,154576.0
63042.09471905632,154550.0
63042.10481292437,154561.0
63042.11490679243,154594.0
63042.12500066048,154554.0
63042.135094528545,154587.0
63042.1451883966,154596.0
63042.155282264655,154582.0
63042.16537613271,154618.0
63042.175470000766,154578.0
63042.18556386883,154557.0
63042.195657736884,154619.0
63042.20575160494,154637.0
63042.215845472994,154621.0
63042.22593934106,154622.0
63042.23603320911,154631.0
63042.24612707717,154627.0
63042.25622094522,154623.0
63042.266314813285,154671.0
63042.27640868134,154648.0
63042.286502549396,154625.0
63042.29659641745,154613.0
63042.306690285506,154640.0
63042.31678415357,154581.0
63042.326878021624,154573.0
63042.33697188968,154574.0
63042.347065757735,154516.0
63042.3571596258,154505.0
63042.36725349385,154463.0
63042.37734736191,154415.0
63042.38744122996,154429.0
63042.397535098025,154416.0
63042.40762896608,154437.0
63042.417722834136,154447.0
63042.42781670219,154460.0
63042.437910570254,154450.0
63042.44800443831,154437.0
63042.458098306364,154418.0
63042.46819217442,154431.0
63042.478286042475,154464.0
63042.48837991054,154461.0
63042.49847377859,154480.0
63042.50856764665,154459.0
63042.5186615147,154478.0
63042.528755382766,154450.0
63042.53884925082,154464.0
63042.548943118876,154456.0
63042.55903698693,154437.0
63042.569130854994,154463.0
63042.57922472305,154498.0
63042.589318591105,154492.0
63042.59941245916,154484.0
63042.60950632722,154475.0
63042.61960019528,154473.0
63042.62969406333,154450.0
63042.63978793139,154473.0
63042.64988179944,154458.0
63042.659975667506,154441.0
63042.67006953556,154441.0
63042.68016340362,154484.0
63042.69025727167,154471.0
63042.700351139734,154483.0
63042.71044500779,154467.0
63042.720538875845,154482.0
63042.7306327439,154486.0
63042.74072661196,154507.0
63042.75082048002,154470.0
63042.76091434807,154462.0
63042.77100821613,154505.0
63042.78110208419,154488.0
63042.791195952246,154514.0
63042.8012898203,154509.0
63042.81138368836,154534.0
63042.82147755641,154524.0
63042.831571424475,154562.0
63042.84166529253,154520.0
63042.851759160585,154545.0
63042.86185302864,154540.0
63042.8719468967,154545.0
63042.88204076476,154542.0
63042.89213463281,154553.0
63042.90222850087,154556.0
63042.91232236893,154559.0
63042.92241623699,154573.0
63042.93251010504,154534.0
63042.9426039731,154553.0
63042.95269784116,154542.0
63042.962791709215,154596.0
63042.97288557727,154547.0
63042.982979445325,154571.0
63042.99307331338,154570.0
63043.00316718144,154547.0
63043.0132610495,154568.0
63043.023354917554,154589.0
63043.03344878561,154584.0
63043.04354265367,154597.0
63043.05363652173,154637.0
63043.06373038978,154593.0
63043.07382425784,154626.0
63043.0839181259,154588.0
63043.094011993955,154638.0
63043.10410586201,154612.0
63043.114199730066,154623.0
63043.12429359812,154622.0
63043.13438746618,154627.0
63043.14448133424,154641.0
63043.154575202294,154663.0
63043.16466907035,154646.0
63043.17476293841,154664.0
63043.18485680647,154656.0
63043.19495067452,154643.0
63043.20504454258,154622.0
63043.21513841064,154622.0
63043.225232278695,154585.0
63043.23532614675,154571.0
63043.245420014806,154538.0
63043.25551388287,154504.0
63043.265607750924,154489.0
63043.27570161898,154484.0
63043.285795487034,154462.0
63043.29588935509,154457.0
63043.30598322315,154459.0
63043.31607709121,154453.0
63043.32617095926,154438.0
63043.33626482732,154473.0
63043.34635869538,154454.0
63043.356452563436,154458.0
63043.36654643149,154478.0
63043.376640299546,154472.0
63043.38673416761,154485.0
63043.396828035664,154517.0
63043.40692190372,154516.0
63043.417015771774,154504.0
63043.42710963984,154511.0
63043.43720350789,154490.0
63043.44729737595,154458.0
63043.457391244,154494.0
63043.46748511206,154523.0
63043.47757898012,154513.0
63043.487672848176,154486.0
63043.49776671623,154482.0
63043.50786058429,154498.0
63043.51795445235,154508.0
63043.528048320404,154489.0
63043.53814218846,154524.0
63043.548236056515,154492.0
63043.55832992458,154496.0
63043.56842379263,154505.0
63043.57851766069,154505.0
63043.58861152874,154441.0
63043.598705396806,154509.0
63043.60879926486,154499.0
63043.618893132916,154497.0
63043.62898700097,154560.0
63043.63908086903,154535.0
63043.64917473709,154511.0
63043.659268605144,154535.0
63043.6693624732,154546.0
63043.679456341255,154556.0
63043.68955020932,154569.0
63043.69964407737,154540.0
63043.70973794543,154554.0
63043.71983181348,154558.0
63043.729925681546,154584.0
63043.7400195496,154549.0
63043.75011341766,154596.0
63043.76020728571,154588.0
63043.770301153774,154577.0
63043.78039502183,154573.0
63043.790488889885,154610.0
63043.80058275794,154610.0
63043.810676625995,154584.0
63043.82077049406,154626.0
63043.83086436211,154597.0
63043.84095823017,154617.0
63043.85105209822,154616.0
63043.861145966286,154620.0
63043.87123983434,154573.0
63043.8813337024,154616.0
63043.89142757045,154660.0
63043.901521438514,154609.0
63043.91161530657,154653.0
63043.921709174625,154645.0
63043.93180304268,154645.0
63043.941896910736,154640.0
63043.9519907788,154683.0
63043.96208464685,154654.0
63043.97217851491,154637.0
63043.982272382964,154656.0
63043.99236625103,154650.0
63044.00246011908,154662.0
63044.01255398714,154656.0
63044.02264785519,154709.0
63044.032741723255,154666.0
63044.04283559131,154712.0
63044.052929459365,154691.0
63044.06302332742,154659.0
63044.07311719548,154641.0
63044.08321106354,154625.0
63044.09330493159,154581.0
63044.10339879965,154521.0
63044.113492667704,154528.0
63044.12358653577,154472.0
63044.13368040382,154462.0
63044.14377427188,154456.0
63044.15386813993,154441.0
63044.163962007995,154452.0
63044.17405587605,154456.0
63044.184149744106,154493.0
63044.19424361216,154478.0
63044.20433748022,154449.0
63044.21443134828,154488.0
63044.224525216334,154460.0
63044.23461908439,154469.0
63044.24471295245,154500.0
63044.25480682051,154473.0
63044.26490068856,154458.0
63044.27499455662,154481.0
63044.28508842467,154456.0
63044.295182292735,154488.0
63044.30527616079,154481.0
63044.315370028846,154529.0
63044.3254638969,154525.0
63044.33555776496,154516.0
63044.34565163302,154484.0
63044.355745501074,154501.0
63044.36583936913,154499.0
63044.37593323719,154501.0
63044.38602710525,154509.0
63044.3961209733,154493.0
63044.40621484136,154475.0
63044.41630870942,154476.0
63044.426402577476,154464.0
63044.43649644553,154518.0
63044.446590313586,154522.0
63044.45668418164,154506.0
63044.466778049704,154500.0
63044.47687191776,154526.0
63044.486965785814,154518.0
63044.49705965387,154526.0
63044.50715352193,154550.0
63044.51724738999,154517.0
63044.52734125804,154507.0
63044.5374351261,154548.0
63044.54752899416,154547.0
63044.557622862216,154559.0
63044.56771673027,154582.0
63044.577810598326,154547.0
63044.58790446639,154569.0
63044.597998334444,154589.0
63044.6080922025,154572.0
63044.618186070555,154613.0
63044.62827993861,154582.0
63044.63837380667,154571.0
63044.64846767473,154580.0
63044.65856154278,154588.0
63044.66865541084,154601.0
63044.6787492789,154602.0
63044.688843146956,154600.0
63044.69893701501,154592.0
63044.70903088307,154615.0
63044.71912475113,154586.0
63044.729218619184,154613.0
63044.73931248724,154611.0
63044.749406355295,154642.0
63044.75950022335,154620.0
63044.76959409141,154597.0
63044.77968795947,154630.0
63044.78978182752,154665.0
63044.79987569558,154626.0
63044.80996956364,154617.0
63044.820063431696,154681.0
63044.83015729975,154657.0
63044.84025116781,154666.0
63044.85034503587,154694.0
63044.860438903925,154676.0
63044.87053277198,154681.0
63044.880626640035,154649.0
63044.8907205081,154704.0
63044.90081437615,154690.0
63044.91090824421,154703.0
63044.92100211226,154662.0
63044.93109598032,154678.0
63044.94118984838,154715.0
63044.95128371644,154715.0
63044.96137758449,154738.0
63044.97147145255,154720.0
63044.98156532061,154705.0
63044.991659188665,154639.0
63045.00175305672,154570.0
63045.011846924775,154543.0
63045.02194079284,154506.0
63045.03203466089,154507.0
63045.04212852895,154465.0
63045.052222397004,154448.0
63045.062316265066,154460.0
63045.07241013312,154449.0
63045.08250400118,154443.0
63045.09259786923,154463.0
63045.10269173729,154469.0
63045.11278560535,154463.0
63045.122879473405,154456.0
63045.13297334146,154470.0
63045.143067209516,154484.0
63045.15316107758,154444.0
63045.16325494563,154472.0
63045.17334881369,154462.0
63045.183442681744,154487.0
63045.19353654981,154436.0
63045.20363041786,154457.0
63045.21372428592,154474.0
63045.22381815397,154442.0
63045.233912022035,154484.0
63045.24400589009,154476.0
63045.254099758145,154453.0
63045.2641936262,154482.0
63045.274287494256,154478.0
63045.28438136232,154484.0
63045.294475230374,154457.0
63045.30456909843,154490.0
63045.314662966484,154474.0
63045.32475683455,154477.0
63045.3348507026,154490.0
63045.34494457066,154470.0
63045.35503843871,154466.0
63045.365132306775,154489.0
63045.37522617483,154456.0
63045.385320042886,154493.0
63045.39541391094,154490.0
63045.405507779,154498.0
63045.41560164706,154511.0
63045.425695515114,154513.0
63045.43578938317,154530.0
63045.445883251225,154522.0
63045.45597711929,154503.0
63045.46607098734,154535.0
63045.4761648554,154518.0
63045.48625872345,154546.0
63045.496352591515,154538.0
63045.50644645957,154527.0
63045.516540327626,154517.0
63045.52663419568,154557.0
63045.536728063744,154565.0
63045.5468219318,154524.0
63045.556915799854,154575.0
63045.56700966791,154567.0
63045.577103535965,154562.0
63045.58719740403,154572.0
63045.59729127208,154591.0
63045.60738514014,154573.0
63045.61747900819,154619.0
63045.627572876256,154619.0
63045.63766674431,154612.0
63045.647760612366,154600.0
63045.65785448042,154583.0
63045.667948348484,154579.0
63045.67804221654,154618.0
63045.688136084595,154612.0
63045.69822995265,154618.0
63045.70832382071,154637.0
63045.71841768877,154618.0
63045.72851155682,154619.0
63045.73860542488,154628.0
63045.74869929293,154612.0
63045.758793160996,154645.0
63045.76888702905,154623.0
63045.77898089711,154644.0
63045.78907476516,154679.0
63045.799168633224,154683.0
63045.80926250128,154655.0
63045.819356369335,154677.0
63045.82945023739,154692.0
63045.83954410545,154687.0
63045.84963797351,154666.0
63045.85973184156,154681.0
63045.86982570962,154671.0
63045.87991957768,154680.0
63045.890013445736,154721.0
63045.90010731379,154682.0
63045.91020118185,154623.0
63045.9202950499,154593.0
63045.930388917965,154541.0
63045.94048278602,154535.0
63045.950576654075,154511.0
63045.96067052213,154463.0
63045.97076439019,154439.0
63045.98085825825,154450.0
63045.9909521263,154443.0
63046.00104599436,154454.0
63046.01113986242,154473.0
63046.02123373048,154445.0
63046.03132759853,154454.0
63046.04142146659,154428.0
63046.05151533465,154430.0
63046.061609202705,154466.0
63046.07170307076,154465.0
63046.081796938815,154429.0
63046.09189080687,154463.0
63046.10198467493,154472.0
63046.11207854299,154438.0
63046.122172411044,154393.0
63046.1322662791,154432.0
63046.14236014716,154464.0
63046.15245401522,154493.0
63046.16254788327,154491.0
63046.17264175133,154476.0
63046.18273561939,154472.0
63046.192829487445,154456.0
63046.2029233555,154445.0
63046.213017223556,154481.0
63046.22311109162,154459.0
63046.23320495967,154443.0
63046.24329882773,154449.0
63046.253392695784,154472.0
63046.26348656384,154435.0
63046.2735804319,154442.0
63046.28367429996,154480.0
63046.29376816801,154448.0
63046.30386203607,154490.0
63046.31395590413,154492.0
63046.324049772185,154511.0
63046.33414364024,154483.0
63046.344237508296,154503.0
63046.35433137636,154504.0
63046.364425244414,154504.0
63046.37451911247,154494.0
63046.384612980524,154539.0
63046.39470684858,154517.0
63046.40480071664,154504.0
63046.4148945847,154540.0
63046.42498845275,154531.0
63046.43508232081,154546.0
63046.44517618887,154560.0
63046.455270056926,154538.0
63046.46536392498,154539.0
63046.475457793036,154548.0
63046.4855516611,154552.0
63046.495645529154,154572.0
63046.50573939721,154549.0
63046.515833265265,154552.0
63046.52592713333,154581.0
63046.53602100138,154571.0
63046.54611486944,154540.0
63046.55620873749,154578.0
63046.56630260555,154573.0
63046.57639647361,154565.0
63046.586490341666,154577.0
63046.59658420972,154593.0
63046.60667807778,154595.0
63046.61677194584,154593.0
63046.626865813894,154571.0
63046.63695968195,154594.0
63046.647053550005,154615.0
63046.65714741807,154677.0
63046.66724128612,154662.0
63046.67733515418,154626.0
63046.68742902223,154614.0
63046.697522890296,154625.0
63046.70761675835,154657.0
63046.717710626406,154651.0
63046.72780449446,154649.0
63046.73789836252,154679.0
63046.74799223058,154630.0
63046.758086098635,154668.0
63046.76817996669,154646.0
63046.778273834745,154656.0
63046.78836770281,154686.0
63046.79846157086,154695.0
63046.80855543892,154653.0
63046.81864930697,154660.0
63046.828743175036,154678.0
63046.83883704309,154595.0
63046.84893091115,154595.0
63046.8590247792,154564.0
63046.869118647264,154501.0
63046.87921251532,154490.0
63046.889306383375,154469.0
63046.89940025143,154445.0
63046.909494119485,154416.0
63046.91958798755,154460.0
63046.9296818556,154427.0
63046.93977572366,154410.0
63046.949869591714,154471.0
63046.959963459776,154454.0
63046.97005732783,154444.0
63046.98015119589,154451.0
63046.99024506394,154479.0
63047.000338932005,154441.0
63047.01043280006,154469.0
63047.020526668115,154472.0
63047.03062053617,154469.0
63047.04071440423,154470.0
63047.05080827229,154464.0
63047.06090214034,154458.0
63047.0709960084,154433.0
63047.081089876454,154483.0
63047.09118374452,154478.0
63047.10127761257,154465.0
63047.11137148063,154485.0
63047.12146534868,154444.0
63047.131559216745,154472.0
63047.1416530848,154436.0
63047.151746952855,154490.0
63047.16184082091,154459.0
63047.17193468897,154474.0
63047.18202855703,154450.0
63047.192122425084,154405.0
63047.20221629314,154438.0
63047.212310161194,154466.0
63047.22240402926,154493.0
63047.23249789731,154473.0
63047.24259176537,154510.0
63047.25268563342,154486.0
63047.262779501485,154476.0
63047.27287336954,154486.0
63047.282967237596,154486.0
63047.29306110565,154509.0
63047.30315497371,154514.0
63047.31324884177,154533.0
63047.323342709824,154497.0
63047.33343657788,154500.0
63047.34353044594,154528.0
63047.353624314,154515.0
63047.36371818205,154526.0
63047.37381205011,154531.0
63047.38390591816,154536.0
63047.393999786225,154543.0
63047.40409365428,154565.0
63047.414187522336,154525.0
63047.42428139039,154575.0
63047.434375258454,154597.0
63047.44446912651,154567.0
63047.454562994564,154565.0
63047.46465686262,154582.0
63047.47475073068,154598.0
63047.48484459874,154563.0
63047.49493846679,154604.0
63047.50503233485,154593.0
63047.51512620291,154559.0
63047.525220070966,154580.0
63047.53531393902,154604.0
63047.545407807076,154607.0
63047.55550167513,154589.0
63047.565595543194,154615.0
63047.57568941125,154604.0
63047.585783279304,154622.0
63047.59587714736,154647.0
63047.60597101542,154639.0
63047.61606488348,154630.0
63047.62615875153,154624.0
63047.63625261959,154648.0
63047.64634648765,154633.0
63047.656440355706,154672.0
63047.66653422376,154649.0
63047.67662809182,154654.0
63047.68672195988,154662.0
63047.696815827934,154641.0
63047.70690969599,154675.0
63047.717003564045,154672.0
63047.7270974321,154708.0
63047.73719130016,154649.0
63047.74728516822,154665.0
63047.75737903627,154668.0
63047.76747290433,154630.0
63047.77756677239,154594.0
63047.787660640446,154563.0
63047.7977545085,154536.0
63047.80784837656,154503.0
63047.81794224462,154485.0
63047.828036112674,154470.0
63047.83812998073,154411.0
63047.848223848785,154461.0
63047.85831771685,154463.0
63047.8684115849,154448.0
63047.87850545296,154451.0
63047.88859932101,154470.0
63047.89869318907,154456.0
63047.90878705713,154467.0
63047.91888092519,154475.0
63047.92897479324,154463.0
63047.9390686613,154473.0
63047.94916252936,154473.0
63047.959256397415,154463.0
63047.96935026547,154459.0
63047.979444133525,154501.0
63047.98953800159,154467.0
63047.99963186964,154456.0
63048.0097257377,154488.0
63048.01981960575,154463.0
63048.02991347381,154487.0
63048.04000734187,154479.0
63048.05010120993,154487.0
63048.06019507798,154438.0
63048.07028894604,154467.0
63048.0803828141,154482.0
63048.090476682155,154461.0
63048.10057055021,154485.0
63048.110664418266,154441.0
63048.12075828633,154454.0
63048.13085215438,154455.0
63048.14094602244,154484.0
63048.151039890494,154459.0
63048.16113375856,154470.0
63048.17122762661,154506.0
63048.18132149467,154468.0
63048.19141536272,154490.0
63048.20150923078,154500.0
63048.21160309884,154484.0
63048.221696966895,154494.0
63048.23179083495,154541.0
63048.241884703006,154518.0
63048.25197857107,154520.0
63048.26207243912,154526.0
63048.27216630718,154531.0
63048.282260175234,154533.0
63048.2923540433,154513.0
63048.30244791135,154525.0
63048.31254177941,154531.0
63048.32263564746,154550.0
63048.332729515525,154540.0
63048.34282338358,154530.0
63048.352917251636,154538.0
63048.36301111969,154567.0
63048.373104987746,154569.0
63048.38319885581,154558.0
63048.393292723864,154583.0
63048.40338659192,154534.0
63048.413480459974,154536.0
63048.42357432804,154579.0
63048.43366819609,154570.0
63048.44376206415,154580.0
63048.4538559322,154583.0
63048.463949800265,154607.0
63048.47404366832,154593.0
63048.484137536376,154608.0
63048.49423140443,154604.0
63048.50432527249,154585.0
63048.51441914055,154630.0
63048.524513008604,154618.0
63048.53460687666,154578.0
63048.544700744715,154602.0
63048.55479461278,154619.0
63048.56488848083,154592.0
63048.57498234889,154633.0
63048.58507621694,154643.0
63048.595170085006,154631.0
63048.60526395306,154670.0
63048.615357821116,154663.0
63048.62545168917,154638.0
63048.635545557234,154619.0
63048.64563942529,154660.0
63048.655733293344,154660.0
63048.6658271614,154629.0
63048.67592102946,154636.0
63048.68601489752,154643.0
63048.69610876557,154607.0
63048.70620263363,154575.0
63048.71629650168,154539.0
63048.726390369746,154498.0
63048.7364842378,154491.0
63048.746578105856,154463.0
63048.75667197391,154462.0
63048.766765841974,154433.0
63048.77685971003,154434.0
63048.786953578085,154460.0
63048.79704744614,154434.0
63048.8071413142,154428.0
63048.81723518226,154454.0
63048.82732905031,154435.0
63048.83742291837,154489.0
63048.84751678642,154450.0
63048.857610654486,154482.0
63048.86770452254,154460.0
63048.8777983906,154490.0
63048.88789225865,154472.0
63048.897986126714,154480.0
63048.90807999477,154495.0
63048.918173862825,154477.0
63048.92826773088,154520.0
63048.93836159894,154513.0
63048.948455467,154527.0
63048.95854933505,154510.0
63048.96864320311,154518.0
63048.97873707117,154498.0
63048.988830939226,154504.0
63048.99892480728,154492.0
63049.00901867534,154460.0
63049.01911254339,154485.0
63049.029206411455,154460.0
63049.03930027951,154451.0
63049.049394147565,154462.0
63049.05948801562,154482.0
63049.06958188368,154501.0
63049.07967575174,154504.0
63049.08976961979,154470.0
63049.09986348785,154492.0
63049.10995735591,154505.0
63049.12005122397,154514.0
63049.13014509202,154543.0
63049.14023896008,154524.0
63049.15033282814,154518.0
63049.160426696195,154537.0
63049.17052056425,154537.0
63049.180614432305,154534.0
63049.19070830036,154549.0
63049.20080216842,154505.0
63049.21089603648,154521.0
63049.220989904534,154588.0
63049.23108377259,154553.0
63049.24117764065,154546.0
63049.25127150871,154532.0
63049.26136537676,154530.0
63049.27145924482,154575.0
63049.28155311288,154586.0
63049.291646980935,154607.0
63049.30174084899,154592.0
63049.311834717046,154584.0
63049.32192858511,154598.0
63049.33202245316,154598.0
63049.34211632122,154585.0
63049.352210189274,154581.0
63049.36230405733,154566.0
63049.37239792539,154614.0
63049.38249179345,154578.0
63049.3925856615,154610.0
63049.40267952956,154573.0
63049.41277339762,154594.0
63049.422867265675,154609.0
63049.43296113373,154623.0
63049.443055001786,154633.0
63049.45314886985,154615.0
63049.463242737904,154622.0
63049.47333660596,154618.0
63049.483430474014,154643.0
63049.49352434208,154677.0
63049.50361821013,154669.0
63049.51371207819,154678.0
63049.52380594624,154703.0
63049.5338998143,154672.0
63049.54399368236,154650.0
63049.554087550416,154687.0
63049.56418141847,154652.0
63049.574275286526,154661.0
63049.58436915459,154640.0
63049.594463022644,154611.0
63049.6045568907,154585.0
63049.614650758755,154515.0
63049.62474462682,154530.0
63049.63483849487,154479.0
63049.64493236293,154460.0
63049.65502623098,154439.0
63049.66512009904,154470.0
63049.6752139671,154450.0
63049.685307835156,154426.0
63049.69540170321,154477.0
63049.70549557127,154436.0
63049.71558943933,154482.0
63049.725683307384,154472.0
63049.73577717544,154463.0
63049.745871043495,154449.0
63049.75596491156,154451.0
63049.76605877961,154471.0
63049.77615264767,154460.0
63049.78624651572,154488.0
63049.796340383786,154438.0
63049.80643425184,154481.0
63049.816528119896,154464.0
63049.82662198795,154468.0
63049.83671585601,154469.0
63049.84680972407,154494.0
63049.856903592125,154496.0
63049.86699746018,154471.0
63049.877091328235,154473.0
63049.8871851963,154484.0
63049.89727906435,154452.0
63049.90737293241,154452.0
63049.91746680046,154467.0
63049.927560668526,154492.0
63049.93765453658,154453.0
63049.94774840464,154494.0
63049.95784227269,154502.0
63049.967936140754,154477.0
63049.97803000881,154460.0
63049.988123876865,154468.0
63049.99821774492,154492.0
63050.008311612975,154531.0
63050.01840548104,154476.0
63050.02849934909,154479.0
63050.03859321715,154504.0
63050.048687085204,154520.0
63050.058780953266,154512.0
63050.06887482132,154543.0
63050.07896868938,154522.0
63050.08906255743,154546.0
63050.099156425495,154544.0
63050.10925029355,154539.0
63050.119344161605,154526.0
63050.12943802966,154569.0
63050.13953189772,154598.0
63050.14962576578,154579.0
63050.15971963383,154584.0
63050.16981350189,154576.0
63050.179907369944,154588.0
63050.19000123801,154561.0
63050.20009510606,154624.0
63050.21018897412,154598.0
63050.22028284217,154562.0
63050.230376710235,154597.0
63050.24047057829,154594.0
63050.250564446345,154600.0
63050.2606583144,154606.0
63050.27075218246,154630.0
63050.28084605052,154618.0
63050.290939918574,154621.0
63050.30103378663,154624.0
63050.31112765469,154631.0
63050.32122152275,154622.0
63050.3313153908,154611.0
63050.34140925886,154628.0
63050.35150312691,154629.0
63050.361596994975,154656.0
63050.37169086303,154616.0
63050.381784731086,154666.0
63050.39187859914,154649.0
63050.4019724672,154664.0
63050.41206633526,154606.0
63050.422160203314,154669.0
63050.43225407137,154704.0
63050.44234793943,154677.0
63050.45244180749,154716.0
63050.46253567554,154707.0
63050.4726295436,154679.0
63050.48272341165,154721.0
63050.492817279715,154728.0
63050.50291114777,154683.0
63050.513005015826,154639.0
63050.52309888388,154620.0
63050.533192751944,154546.0
63050.54328662,154499.0
63050.553380488054,154496.0
63050.56347435611,154503.0
63050.57356822417,154468.0
63050.58366209223,154462.0
63050.59375596028,154462.0
63050.60384982834,154449.0
63050.6139436964,154471.0
63050.624037564456,154461.0
63050.63413143251,154447.0
63050.644225300566,154457.0
63050.65431916862,154478.0
63050.664413036684,154475.0
63050.67450690474,154465.0
63050.684600772795,154441.0
63050.69469464085,154434.0
63050.70478850891,154485.0
63050.71488237697,154473.0
63050.72497624502,154491.0
63050.73507011308,154462.0
63050.74516398114,154485.0
63050.755257849196,154507.0
63050.76535171725,154460.0
63050.77544558531,154507.0
63050.78553945337,154479.0
63050.795633321424,154461.0
63050.80572718948,154517.0
63050.815821057535,154484.0
63050.82591492559,154445.0
63050.83600879365,154478.0
63050.84610266171,154489.0
63050.85619652976,154470.0
63050.86629039782,154487.0
63050.87638426588,154491.0
63050.886478133936,154495.0
63050.89657200199,154486.0
63050.90666587005,154513.0
63050.91675973811,154490.0
63050.926853606165,154492.0
63050.93694747422,154500.0
63050.947041342275,154538.0
63050.95713521034,154506.0
63050.96722907839,154489.0
63050.97732294645,154509.0
63050.9874168145,154520.0
63050.99751068256,154547.0
63051.00760455062,154574.0
63051.01769841868,154537.0
63051.02779228673,154540.0
63051.03788615479,154558.0
63051.04798002285,154590.0
63051.058073890905,154560.0
63051.06816775896,154589.0
63051.078261627015,154545.0
63051.08835549508,154549.0
63051.09844936313,154576.0
63051.10854323119,154561.0
63051.118637099244,154595.0
63051.128730967306,154573.0
63051.13882483536,154624.0
63051.14891870342,154568.0
63051.15901257147,154598.0
63051.16910643953,154602.0
63051.17920030759,154589.0
63051.189294175645,154574.0
63051.1993880437,154609.0
63051.209481911756,154588.0
63051.21957577982,154612.0
63051.22966964787,154643.0
63051.23976351593,154622.0
63051.249857383984,154606.0
63051.25995125205,154627.0
63051.2700451201,154668.0
63051.28013898816,154643.0
63051.29023285621,154653.0
63051.30032672427,154651.0
63051.31042059233,154644.0
63051.320514460385,154665.0
63051.33060832844,154658.0
63051.340702196496,154676.0
63051.35079606456,154688.0
63051.360889932614,154687.0
63051.37098380067,154683.0
63051.381077668724,154676.0
63051.39117153679,154724.0
63051.40126540484,154680.0
63051.4113592729,154721.0
63051.42145314095,154737.0
63051.431547009015,154715.0
63051.44164087707,154675.0
63051.451734745126,154654.0
63051.46182861318,154620.0
63051.471922481236,154547.0
63051.4820163493,154540.0
63051.492110217354,154509.0
63051.50220408541,154476.0
63051.512297953464,154473.0
63051.52239182153,154454.0
63051.53248568958,154466.0
63051.54257955764,154448.0
63051.55267342569,154468.0
63051.562767293755,154461.0
63051.57286116181,154473.0
63051.582955029866,154475.0
63051.59304889792,154467.0
63051.603142765984,154511.0
63051.61323663404,154458.0
63051.623330502094,154461.0
63051.63342437015,154491.0
63051.643518238205,154492.0
63051.65361210627,154491.0
63051.66370597432,154511.0
63051.67379984238,154501.0
63051.68389371043,154478.0
63051.693987578496,154498.0
63051.70408144655,154488.0
63051.714175314606,154517.0
63051.72426918266,154504.0
63051.734363050724,154501.0
63051.74445691878,154501.0
63051.754550786834,154505.0
63051.76464465489,154465.0
63051.77473852295,154496.0
63051.78483239101,154508.0
63051.79492625906,154484.0
63051.80502012712,154507.0
63051.81511399517,154501.0
63051.825207863236,154491.0
63051.83530173129,154469.0
63051.84539559935,154510.0
63051.8554894674,154507.0
63051.865583335464,154508.0
63051.87567720352,154539.0
63051.885771071575,154500.0
63051.89586493963,154514.0
63051.90595880769,154516.0
63051.91605267575,154520.0
63051.9261465438,154517.0
63051.93624041186,154549.0
63051.94633427992,154557.0
63051.956428147976,154538.0
63051.96652201603,154541.0
63051.97661588409,154595.0
63051.98670975214,154580.0
63051.996803620204,154590.0
63052.00689748826,154585.0
63052.016991356315,154552.0
63052.02708522437,154580.0
63052.03717909243,154554.0
63052.04727296049,154614.0
63052.05736682854,154583.0
63052.0674606966,154595.0
63052.07755456466,154602.0
63052.08764843272,154557.0
63052.09774230077,154604.0
63052.10783616883,154606.0
63052.11793003688,154597.0
63052.128023904945,154616.0
63052.138117773,154648.0
63052.148211641055,154585.0
63052.15830550911,154605.0
63052.16839937717,154609.0
63052.17849324523,154637.0
63052.18858711328,154636.0
63052.19868098134,154625.0
63052.2087748494,154637.0
63052.21886871746,154655.0
63052.22896258551,154644.0
63052.23905645357,154683.0
63052.24915032163,154638.0
63052.259244189685,154646.0
63052.26933805774,154670.0
63052.279431925796,154651.0
63052.28952579385,154682.0
63052.29961966191,154688.0
63052.30971352997,154699.0
63052.319807398024,154724.0
63052.32990126608,154724.0
63052.33999513414,154732.0
63052.3500890022,154713.0
63052.36018287025,154713.0
63052.37027673831,154665.0
63052.38037060637,154657.0
63052.390464474425,154656.0
63052.40055834248,154639.0
63052.410652210536,154567.0
63052.4207460786,154555.0
63052.43083994665,154500.0
63052.44093381471,154498.0
63052.451027682764,154466.0
63052.46112155082,154496.0
63052.47121541888,154479.0
63052.48130928694,154469.0
63052.49140315499,154464.0
63052.50149702305,154463.0
63052.51159089111,154475.0
63052.521684759166,154475.0
63052.53177862722,154450.0
63052.541872495276,154469.0
63052.55196636334,154515.0
63052.562060231394,154492.0
63052.57215409945,154452.0
63052.582247967504,154517.0
63052.59234183557,154506.0
63052.60243570362,154510.0
63052.61252957168,154474.0
63052.62262343973,154520.0
63052.63271730779,154494.0
63052.64281117585,154519.0
63052.652905043906,154497.0
63052.66299891196,154522.0
63052.673092780016,154479.0
63052.68318664808,154522.0
63052.693280516134,154504.0
63052.70337438419,154492.0
63052.713468252245,154485.0
63052.72356212031,154491.0
63052.73365598836,154480.0
63052.74374985642,154472.0
63052.75384372447,154493.0
63052.763937592536,154497.0
63052.77403146059,154496.0
63052.784125328646,154489.0
63052.7942191967,154518.0
63052.80431306476,154510.0
63052.81440693282,154540.0
63052.824500800874,154530.0
63052.83459466893,154501.0
63052.844688536985,154514.0
63052.85478240505,154558.0
63052.8648762731,154525.0
63052.87497014116,154516.0
63052.88506400921,154542.0
63052.895157877276,154574.0
63052.90525174533,154536.0
63052.915345613386,154539.0
63052.92543948144,154572.0
63052.9355333495,154563.0
63052.94562721756,154567.0
63052.955721085615,154588.0
63052.96581495367,154570.0
63052.975908821725,154567.0
63052.98600268979,154572.0
63052.99609655784,154565.0
63053.0061904259,154584.0
63053.01628429395,154590.0
63053.026378162016,154581.0
63053.03647203007,154611.0
63053.04656589813,154598.0
63053.05665976618,154590.0
63053.066753634244,154588.0
63053.0768475023,154556.0
63053.086941370355,154582.0
63053.09703523841,154588.0
63053.107129106465,154604.0
63053.11722297453,154609.0
63053.12731684258,154627.0
63053.13741071064,154617.0
63053.147504578694,154612.0
63053.157598446756,154630.0
63053.16769231481,154628.0
63053.17778618287,154642.0
63053.18788005092,154649.0
63053.197973918985,154649.0
63053.20806778704,154641.0
63053.218161655095,154653.0
63053.22825552315,154655.0
63053.23834939121,154642.0
63053.24844325927,154695.0
63053.25853712732,154672.0
63053.26863099538,154641.0
63053.278724863434,154647.0
63053.2888187315,154597.0
63053.29891259955,154579.0
63053.30900646761,154553.0
63053.31910033566,154498.0
63053.329194203725,154498.0
63053.33928807178,154480.0
63053.349381939835,154445.0
63053.35947580789,154429.0
63053.36956967595,154470.0
63053.37966354401,154444.0
63053.389757412064,154468.0
63053.39985128012,154472.0
63053.40994514818,154490.0
63053.42003901624,154490.0
63053.43013288429,154480.0
63053.44022675235,154485.0
63053.4503206204,154510.0
63053.460414488465,154507.0
63053.47050835652,154537.0
63053.480602224576,154469.0
63053.49069609263,154499.0
63053.50078996069,154509.0
63053.51088382875,154532.0
63053.520977696804,154507.0
63053.53107156486,154496.0
63053.54116543292,154522.0
63053.55125930098,154549.0
63053.56135316903,154533.0
63053.57144703709,154485.0
63053.58154090515,154505.0
63053.591634773205,154470.0
63053.60172864126,154506.0
63053.611822509316,154483.0
63053.62191637737,154489.0
63053.632010245434,154485.0
63053.64210411349,154484.0
63053.652197981544,154514.0
63053.6622918496,154524.0
63053.67238571766,154514.0
63053.68247958572,154511.0
63053.69257345377,154543.0
63053.70266732183,154494.0
63053.71276118989,154531.0
63053.722855057946,154531.0
63053.732948926,154513.0
63053.743042794056,154560.0
63053.75313666211,154572.0
63053.763230530174,154541.0
63053.77332439823,154530.0
63053.783418266285,154558.0
63053.79351213434,154572.0
63053.8036060024,154567.0
63053.81369987046,154570.0
63053.82379373851,154565.0
63053.83388760657,154587.0
63053.84398147463,154581.0
63053.854075342686,154607.0
63053.86416921074,154574.0
63053.8742630788,154607.0
63053.88435694686,154639.0
63053.894450814914,154570.0
63053.90454468297,154596.0
63053.914638551025,154582.0
63053.92473241908,154620.0
63053.93482628714,154587.0
63053.9449201552,154635.0
63053.95501402325,154604.0
63053.96510789131,154597.0
63053.97520175937,154614.0
63053.985295627426,154637.0
63053.99538949548,154620.0
63054.00548336354,154605.0
63054.0155772316,154636.0
63054.025671099655,154596.0
63054.03576496771,154633.0
63054.045858835765,154658.0
63054.05595270383,154662.0
63054.06604657188,154644.0
63054.07614043994,154651.0
63054.08623430799,154654.0
63054.09632817605,154635.0
63054.10642204411,154693.0
63054.11651591217,154664.0
63054.12660978022,154622.0
63054.13670364828,154624.0
63054.14679751634,154557.0
63054.156891384395,154541.0
63054.16698525245,154547.0
63054.177079120505,154513.0
63054.18717298857,154479.0
63054.19726685662,154476.0
63054.20736072468,154448.0
63054.217454592734,154423.0
63054.227548460796,154440.0
63054.23764232885,154454.0
63054.24773619691,154476.0
63054.25783006496,154469.0
63054.26792393302,154496.0
63054.27801780108,154457.0
63054.288111669135,154463.0
63054.29820553719,154486.0
63054.308299405246,154498.0
63054.31839327331,154491.0
63054.32848714136,154504.0
63054.33858100942,154487.0
63054.348674877474,154502.0
63054.35876874554,154553.0
63054.36886261359,154520.0
63054.37895648165,154534.0
63054.3890503497,154509.0
63054.399144217765,154527.0
63054.40923808582,154524.0
63054.419331953875,154527.0
63054.42942582193,154506.0
63054.439519689986,154492.0
63054.44961355805,154492.0
63054.459707426104,154467.0
63054.46980129416,154490.0
63054.479895162214,154458.0
63054.48998903028,154499.0
63054.50008289833,154502.0
63054.51017676639,154497.0
63054.52027063444,154497.0
63054.530364502505,154503.0
63054.54045837056,154473.0
63054.550552238616,154492.0
63054.56064610667,154508.0
63054.570739974726,154529.0
63054.58083384279,154493.0
63054.590927710844,154563.0
63054.6010215789,154518.0
63054.611115446954,154534.0
63054.62120931502,154579.0
63054.63130318307,154550.0
63054.64139705113,154544.0
63054.65149091918,154561.0
63054.661584787245,154596.0
63054.6716786553,154558.0
63054.681772523356,154583.0
63054.69186639141,154548.0
63054.701960259474,154543.0
63054.71205412753,154575.0
63054.722147995584,154562.0
63054.73224186364,154590.0
63054.742335731695,154570.0
63054.75242959976,154609.0
63054.76252346781,154568.0
63054.77261733587,154605.0
63054.78271120392,154606.0
63054.792805071986,154576.0
63054.80289894004,154621.0
63054.812992808096,154639.0
63054.82308667615,154576.0
63054.833180544214,154611.0
63054.84327441227,154641.0
63054.853368280325,154600.0
63054.86346214838,154612.0
63054.87355601644,154637.0
63054.8836498845,154611.0
63054.89374375255,154639.0
63054.90383762061,154647.0
63054.91393148866,154620.0
63054.924025356726,154618.0
63054.93411922478,154628.0
63054.94421309284,154628.0
63054.95430696089,154594.0
63054.964400828954,154551.0
63054.97449469701,154508.0
63054.984588565065,154490.0
63054.99468243312,154465.0
63055.00477630118,154472.0
63055.01487016924,154419.0
63055.02496403729,154437.0
63055.03505790535,154446.0
63055.04515177341,154443.0
63055.055245641466,154425.0
63055.06533950952,154446.0
63055.07543337758,154450.0
63055.08552724563,154417.0
63055.095621113695,154477.0
63055.10571498175,154451.0
63055.115808849805,154444.0
63055.12590271786,154463.0
63055.13599658592,154474.0
63055.14609045398,154470.0
63055.15618432203,154467.0
63055.16627819009,154495.0
63055.17637205815,154451.0
63055.18646592621,154472.0
63055.19655979426,154497.0
63055.20665366232,154465.0
63055.21674753038,154496.0
63055.226841398435,154492.0
63055.23693526649,154448.0
63055.247029134545,154446.0
63055.2571230026,154491.0
63055.26721687066,154464.0
63055.27731073872,154427.0
63055.28740460677,154457.0
63055.29749847483,154441.0
63055.30759234289,154453.0
63055.31768621095,154442.0
63055.327780079,154485.0
63055.33787394706,154453.0
63055.34796781512,154475.0
63055.358061683175,154445.0
63055.36815555123,154457.0
63055.378249419286,154440.0
63055.38834328734,154453.0
63055.3984371554,154491.0
63055.40853102346,154496.0
63055.418624891514,154492.0
63055.42871875957,154492.0
63055.43881262763,154514.0
63055.44890649569,154493.0
63055.45900036374,154506.0
63055.4690942318,154528.0
63055.47918809986,154526.0
63055.489281967915,154521.0
63055.49937583597,154532.0
63055.509469704026,154537.0
63055.51956357209,154540.0
63055.52965744014,154537.0
63055.5397513082,154580.0
63055.549845176254,154567.0
63055.55993904431,154568.0
63055.57003291237,154544.0
63055.58012678043,154577.0
63055.59022064848,154546.0
63055.60031451654,154569.0
63055.6104083846,154549.0
63055.620502252656,154566.0
63055.63059612071,154589.0
63055.640689988766,154581.0
63055.65078385683,154551.0
63055.660877724884,154563.0
63055.67097159294,154569.0
63055.681065460994,154605.0
63055.69115932906,154598.0
63055.70125319711,154599.0
63055.71134706517,154580.0
63055.72144093322,154577.0
63055.73153480128,154528.0
63055.74162866934,154531.0
63055.751722537396,154493.0
63055.76181640545,154443.0
63055.77191027351,154455.0
63055.78200414157,154410.0
63055.792098009624,154402.0
63055.80219187768,154378.0
63055.812285745735,154364.0
63055.8223796138,154340.0
63055.83247348185,154371.0
63055.84256734991,154382.0
63055.85266121796,154379.0
63055.862755086026,154374.0
63055.87284895408,154360.0
63055.882942822136,154406.0
63055.89303669019,154376.0
63055.90313055825,154407.0
63055.91322442631,154397.0
63055.923318294364,154396.0
63055.93341216242,154370.0
63055.943506030475,154371.0
63055.95359989854,154392.0
63055.96369376659,154423.0
63055.97378763465,154406.0
63055.9838815027,154379.0
63055.993975370766,154410.0
63056.00406923882,154406.0
63056.01416310688,154406.0
63056.02425697493,154408.0
63056.034350842994,154387.0
63056.04444471105,154390.0
63056.054538579105,154393.0
63056.06463244716,154371.0
63056.074726315215,154388.0
63056.08482018328,154415.0
63056.09491405133,154397.0
63056.10500791939,154447.0
63056.11510178744,154422.0
63056.125195655506,154363.0
63056.13528952356,154423.0
63056.14538339162,154433.0
63056.15547725967,154416.0
63056.165571127734,154388.0
63056.17566499579,154428.0
63056.185758863845,154425.0
