time,ppg
63478.950810888804,11258.0
63478.96081365874,11215.0
63478.970816428686,11181.0
63478.98081919863,11190.0
63478.99082196857,11157.0
63479.00082473851,11113.0
63479.01082750845,11087.0
63479.020830278394,11080.0
63479.03083304833,11042.0
63479.040835818276,11067.0
63479.05083858821,11042.0
63479.06084135816,11014.0
63479.070844128095,11009.0
63479.08084689804,10993.0
63479.09084966798,11027.0
63479.10085243792,11005.0
63479.11085520786,10974.0
63479.1208579778,10979.0
63479.13086074774,10969.0
63479.140863517685,11000.0
63479.15086628762,10989.0
63479.16086905757,11008.0
63479.17087182751,10972.0
63479.18087459745,11006.0
63479.19087736739,10989.0
63479.20088013733,11009.0
63479.210882907275,10966.0
63479.22088567721,10987.0
63479.23088844716,10961.0
63479.240891217094,10951.0
63479.25089398704,10986.0
63479.260896756976,10974.0
63479.27089952692,10965.0
63479.28090229686,10986.0
63479.2909050668,10937.0
63479.30090783674,10968.0
63479.310910606684,10956.0
63479.32091337662,10953.0
63479.330916146566,10958.0
63479.3409189165,10972.0
63479.35092168645,10995.0
63479.360924456385,11006.0
63479.37092722633,10972.0
63479.380929996274,10994.0
63479.39093276621,10999.0
63479.400935536156,11009.0
63479.41093830609,11015.0
63479.42094107604,11050.0
63479.430943845975,11026.0
63479.44094661592,11015.0
63479.45094938586,11042.0
63479.4609521558,11049.0
63479.47095492574,11043.0
63479.48095769568,11068.0
63479.49096046562,11062.0
63479.500963235565,11068.0
63479.5109660055,11098.0
63479.52096877545,11085.0
63479.530971545384,11111.0
63479.54097431533,11085.0
63479.550977085266,11091.0
63479.56097985521,11095.0
63479.570982625155,11102.0
63479.58098539509,11113.0
63479.59098816504,11132.0
63479.600990934974,11109.0
63479.61099370492,11158.0
63479.620996474856,11154.0
63479.6309992448,11125.0
63479.64100201474,11167.0
63479.65100478468,11144.0
63479.66100755462,11174.0
63479.671010324564,11204.0
63479.6810130945,11182.0
63479.691015864446,11215.0
63479.70101863438,11204.0
63479.71102140433,11168.0
63479.721024174265,11220.0
63479.73102694421,11198.0
63479.74102971415,11228.0
63479.75103248409,11251.0
63479.761035254036,11225.0
63479.77103802397,11282.0
63479.78104079392,11269.0
63479.791043563855,11254.0
63479.8010463338,11286.0
63479.81104910374,11257.0
63479.82105187368,11288.0
63479.83105464362,11289.0
63479.84105741356,11289.0
63479.8510601835,11337.0
63479.861062953445,11318.0
63479.87106572338,11312.0
63479.88106849333,11322.0
63479.891071263264,11278.0
63479.90107403321,11266.0
63479.911076803146,11238.0
63479.92107957309,11211.0
63479.93108234303,11180.0
63479.94108511297,11190.0
63479.95108788292,11130.0
63479.961090652854,11141.0
63479.9710934228,11110.0
63479.981096192736,11127.0
63479.99109896268,11081.0
63480.00110173262,11048.0
63480.01110450256,11074.0
63480.0211072725,11066.0
63480.031110042444,11057.0
63480.04111281238,11032.0
63480.051115582326,11060.0
63480.06111835226,11062.0
63480.07112112221,11052.0
63480.081123892145,11033.0
63480.09112666209,11048.0
63480.10112943203,11077.0
63480.11113220197,11036.0
63480.12113497191,11028.0
63480.13113774185,11057.0
63480.1411405118,11044.0
63480.151143281735,11052.0
63480.16114605168,11068.0
63480.17114882162,11068.0
63480.18115159156,11062.0
63480.1911543615,11053.0
63480.20115713144,11031.0
63480.21115990138,11077.0
63480.221162671325,11061.0
63480.23116544126,11045.0
63480.24116821121,11060.0
63480.251170981144,11040.0
63480.26117375109,11058.0
63480.271176521026,11045.0
63480.28117929097,11044.0
63480.29118206091,11066.0
63480.30118483085,11046.0
63480.31118760079,11071.0
63480.321190370734,11056.0
63480.33119314067,11063.0
63480.341195910616,11106.0
63480.35119868056,11122.0
63480.3612014505,11097.0
63480.37120422044,11127.0
63480.38120699038,11114.0
63480.391209760324,11133.0
63480.40121253026,11142.0
63480.411215300206,11115.0
63480.42121807014,11134.0
63480.43122084009,11162.0
63480.441223610025,11173.0
63480.45122637997,11166.0
63480.46122914991,11194.0
63480.47123191985,11186.0
63480.48123468979,11211.0
63480.49123745973,11188.0
63480.50124022967,11214.0
63480.511242999615,11217.0
63480.52124576955,11240.0
63480.5312485395,11221.0
63480.54125130944,11265.0
63480.55125407938,11242.0
63480.56125684932,11248.0
63480.57125961926,11279.0
63480.581262389205,11267.0
63480.59126515914,11273.0
63480.60126792909,11273.0
63480.611270699024,11272.0
63480.62127346897,11279.0
63480.631276238906,11300.0
63480.64127900885,11298.0
63480.65128177879,11341.0
63480.66128454873,11326.0
63480.67128731867,11339.0
63480.681290088614,11342.0
63480.69129285855,11373.0
63480.701295628496,11371.0
63480.71129839843,11346.0
63480.72130116838,11404.0
63480.731303938315,11410.0
63480.74130670826,11394.0
63480.751309478204,11432.0
63480.76131224814,11426.0
63480.771315018086,11421.0
63480.78131778802,11443.0
63480.79132055797,11468.0
63480.801323327905,11446.0
63480.81132609785,11451.0
63480.82132886779,11449.0
63480.83133163773,11472.0
63480.84133440767,11447.0
63480.85133717761,11405.0
63480.86133994755,11404.0
63480.871342717495,11362.0
63480.88134548743,11331.0
63480.89134825738,11316.0
63480.901351027314,11268.0
63480.91135379726,11241.0
63480.921356567196,11242.0
63480.93135933714,11235.0
63480.941362107085,11209.0
63480.95136487702,11180.0
63480.96136764697,11184.0
63480.971370416904,11173.0
63480.98137318685,11156.0
63480.991375956786,11178.0
63481.00137872673,11154.0
63481.01138149667,11118.0
63481.02138426661,11136.0
63481.03138703655,11120.0
63481.041389806494,11136.0
63481.05139257643,11124.0
63481.061395346376,11131.0
63481.07139811631,11115.0
63481.08140088626,11116.0
63481.091403656195,11111.0
63481.10140642614,11135.0
63481.11140919608,11139.0
63481.12141196602,11119.0
63481.131414735966,11124.0
63481.1414175059,11149.0
63481.15142027585,11109.0
63481.161423045785,11116.0
63481.17142581573,11104.0
63481.18142858567,11110.0
63481.19143135561,11108.0
63481.20143412555,11107.0
63481.21143689549,11118.0
63481.22143966543,11121.0
63481.231442435375,11108.0
63481.24144520531,11117.0
63481.25144797526,11145.0
63481.261450745194,11092.0
63481.27145351514,11106.0
63481.281456285076,11116.0
63481.29145905502,11111.0
63481.30146182496,11152.0
63481.3114645949,11135.0
63481.32146736485,11140.0
63481.331470134784,11169.0
63481.34147290473,11154.0
63481.351475674666,11143.0
63481.36147844461,11169.0
63481.37148121455,11173.0
63481.38148398449,11199.0
63481.39148675443,11178.0
63481.401489524374,11196.0
63481.41149229431,11205.0
63481.421495064256,11187.0
63481.43149783419,11216.0
63481.44150060414,11215.0
63481.451503374075,11217.0
63481.46150614402,11239.0
63481.47150891396,11217.0
63481.4815116839,11237.0
63481.49151445384,11259.0
63481.50151722378,11228.0
63481.51151999373,11242.0
63481.521522763665,11274.0
63481.53152553361,11268.0
63481.54152830355,11272.0
63481.55153107349,11299.0
63481.56153384343,11269.0
63481.57153661337,11301.0
63481.58153938331,11285.0
63481.591542153255,11307.0
63481.60154492319,11292.0
63481.61154769314,11324.0
63481.621550463075,11324.0
63481.63155323302,11349.0
63481.641556002956,11348.0
63481.6515587729,11351.0
63481.66156154284,11360.0
63481.67156431278,11386.0
63481.68156708272,11373.0
63481.691569852665,11389.0
63481.7015726226,11406.0
63481.71157539255,11419.0
63481.72157816249,11393.0
63481.73158093243,11413.0
63481.74158370237,11406.0
63481.75158647231,11420.0
63481.761589242255,11457.0
63481.77159201219,11450.0
63481.78159478214,11466.0
63481.791597552074,11471.0
63481.80160032202,11459.0
63481.811603091955,11492.0
63481.8216058619,11457.0
63481.83160863184,11507.0
63481.84161140178,11480.0
63481.85161417172,11478.0
63481.861616941664,11477.0
63481.8716197116,11421.0
63481.881622481545,11416.0
63481.89162525148,11393.0
63481.90162802143,11349.0
63481.91163079137,11335.0
63481.92163356131,11307.0
63481.931636331254,11282.0
63481.94163910119,11234.0
63481.951641871136,11244.0
63481.96164464107,11185.0
63481.97164741102,11199.0
63481.981650180955,11211.0
63481.9916529509,11172.0
63482.00165572084,11163.0
63482.01165849078,11158.0
63482.02166126072,11157.0
63482.03166403066,11184.0
63482.0416668006,11133.0
63482.051669570545,11125.0
63482.06167234048,11123.0
63482.07167511043,11103.0
63482.081677880364,11092.0
63482.09168065031,11112.0
63482.101683420246,11104.0
63482.11168619019,11117.0
63482.121688960135,11098.0
63482.13169173007,11104.0
63482.14169450002,11118.0
63482.151697269954,11104.0
63482.1617000399,11104.0
63482.171702809836,11105.0
63482.18170557978,11060.0
63482.19170834972,11108.0
63482.20171111966,11088.0
63482.2117138896,11116.0
63482.221716659544,11081.0
63482.23171942948,11092.0
63482.241722199426,11080.0
63482.25172496936,11058.0
63482.26172773931,11089.0
63482.271730509245,11095.0
63482.28173327919,11071.0
63482.29173604913,11127.0
63482.30173881907,11100.0
63482.311741589016,11079.0
63482.32174435895,11087.0
63482.3317471289,11099.0
63482.341749898835,11123.0
63482.35175266878,11145.0
63482.36175543872,11123.0
63482.37175820866,11151.0
63482.3817609786,11149.0
63482.39176374854,11170.0
63482.40176651848,11181.0
63482.411769288425,11167.0
63482.42177205836,11173.0
63482.43177482831,11189.0
63482.441777598244,11199.0
63482.45178036819,11211.0
63482.461783138126,11208.0
63482.47178590807,11243.0
63482.48178867801,11238.0
63482.49179144795,11224.0
63482.5017942179,11232.0
63482.511796987834,11266.0
63482.52179975778,11232.0
63482.531802527716,11285.0
63482.54180529766,11255.0
63482.5518080676,11248.0
63482.56181083754,11280.0
63482.57181360748,11256.0
63482.581816377424,11284.0
63482.59181914736,11305.0
63482.601821917306,11294.0
63482.61182468724,11332.0
63482.62182745719,11298.0
63482.631830227125,11308.0
63482.64183299707,11330.0
63482.65183576701,11341.0
63482.66183853695,11331.0
63482.67184130689,11337.0
63482.68184407683,11331.0
63482.69184684678,11377.0
63482.701849616715,11368.0
63482.71185238666,11358.0
63482.7218551566,11401.0
63482.73185792654,11371.0
63482.74186069648,11381.0
63482.75186346642,11387.0
63482.76186623636,11441.0
63482.771869006305,11398.0
63482.78187177624,11429.0
63482.79187454619,11459.0
63482.801877316124,11446.0
63482.81188008607,11443.0
63482.821882856006,11465.0
63482.83188562595,11456.0
63482.84188839589,11442.0
63482.85189116583,11444.0
63482.86189393577,11431.0
63482.871896705714,11390.0
63482.88189947566,11357.0
63482.891902245596,11366.0
63482.90190501554,11337.0
63482.91190778548,11292.0
63482.92191055542,11298.0
63482.93191332536,11253.0
63482.941916095304,11241.0
63482.95191886524,11244.0
63482.961921635186,11204.0
63482.97192440512,11211.0
63482.98192717507,11183.0
63482.991929945005,11179.0
63483.00193271495,11201.0
63483.01193548489,11164.0
63483.02193825483,11171.0
63483.03194102477,11160.0
63483.04194379471,11154.0
63483.05194656465,11142.0
63483.061949334595,11131.0
63483.07195210453,11174.0
63483.08195487448,11174.0
63483.09195764442,11146.0
63483.10196041436,11164.0
63483.1119631843,11146.0
63483.12196595424,11139.0
63483.131968724185,11188.0
63483.14197149412,11125.0
63483.15197426407,11150.0
63483.161977034004,11174.0
63483.17197980395,11137.0
63483.181982573886,11154.0
63483.19198534383,11150.0
63483.20198811377,11139.0
63483.21199088371,11149.0
63483.22199365365,11122.0
63483.231996423594,11141.0
63483.24199919353,11160.0
63483.252001963476,11127.0
63483.26200473341,11121.0
63483.27200750336,11163.0
63483.2820102733,11150.0
63483.29201304324,11157.0
63483.302015813184,11175.0
63483.31201858312,11171.0
63483.322021353066,11162.0
63483.332024123,11187.0
63483.34202689295,11186.0
63483.352029662885,11193.0
63483.36203243283,11186.0
63483.37203520277,11185.0
63483.38203797271,11241.0
63483.39204074265,11223.0
63483.40204351259,11224.0
63483.41204628253,11251.0
63483.422049052475,11220.0
63483.43205182241,11245.0
63483.44205459236,11261.0
63483.452057362294,11261.0
63483.46206013224,11269.0
63483.472062902176,11270.0
63483.48206567212,11269.0
63483.492068442065,11293.0
63483.502071212,11287.0
63483.51207398195,11305.0
63483.522076751884,11311.0
63483.53207952183,11290.0
63483.542082291766,11335.0
63483.55208506171,11324.0
63483.56208783165,11340.0
63483.57209060159,11358.0
63483.58209337153,11349.0
63483.592096141474,11350.0
63483.60209891141,11356.0
63483.612101681356,11343.0
63483.62210445129,11391.0
63483.63210722124,11379.0
63483.642109991175,11359.0
63483.65211276112,11405.0
63483.66211553106,11377.0
63483.672118301,11424.0
63483.682121070946,11437.0
63483.69212384088,11418.0
63483.70212661083,11456.0
63483.712129380765,11442.0
63483.72213215071,11442.0
63483.73213492065,11480.0
63483.74213769059,11447.0
63483.75214046053,11473.0
63483.76214323047,11452.0
63483.77214600041,11468.0
63483.782148770355,11482.0
63483.79215154029,11473.0
63483.80215431024,11453.0
63483.812157080174,11443.0
63483.82215985012,11419.0
63483.832162620056,11368.0
63483.84216539,11347.0
63483.85216815994,11319.0
63483.86217092988,11318.0
63483.87217369983,11307.0
63483.882176469764,11285.0
63483.89217923971,11240.0
63483.902182009646,11240.0
63483.91218477959,11208.0
63483.92218754953,11204.0
63483.93219031947,11178.0
63483.94219308941,11185.0
63483.952195859354,11204.0
63483.96219862929,11172.0
63483.972201399236,11152.0
63483.98220416917,11142.0
63483.99220693912,11143.0
63484.002209709055,11142.0
63484.012212479,11126.0
63484.02221524894,11114.0
63484.03221801888,11131.0
63484.04222078882,11126.0
63484.05222355876,11111.0
63484.06222632871,11114.0
63484.072229098645,11131.0
63484.08223186859,11129.0
63484.09223463853,11143.0
63484.10223740847,11107.0
63484.11224017841,11131.0
63484.12224294835,11120.0
63484.13224571829,11110.0
63484.142248488235,11122.0
63484.15225125817,11091.0
63484.16225402812,11109.0
63484.172256798054,11123.0
63484.182259568,11104.0
63484.192262337936,11108.0
63484.20226510788,11102.0
63484.21226787782,11113.0
63484.22227064776,11132.0
63484.2322734177,11095.0
63484.242276187644,11122.0
63484.25227895759,11139.0
63484.262281727526,11117.0
63484.27228449747,11165.0
63484.28228726741,11145.0
63484.29229003735,11153.0
63484.30229280729,11154.0
63484.312295577234,11139.0
63484.32229834717,11166.0
63484.332301117116,11189.0
63484.34230388705,11166.0
63484.352306657,11174.0
63484.362309426935,11194.0
63484.37231219688,11170.0
63484.38231496682,11199.0
63484.39231773676,11219.0
63484.4023205067,11209.0
63484.41232327664,11210.0
63484.42232604658,11226.0
63484.432328816525,11209.0
63484.44233158646,11237.0
63484.45233435641,11229.0
63484.46233712635,11243.0
63484.47233989629,11264.0
63484.48234266623,11260.0
63484.49234543617,11245.0
63484.502348206115,11293.0
63484.51235097605,11272.0
63484.522353746,11285.0
63484.532356515934,11304.0
63484.54235928588,11274.0
63484.552362055816,11301.0
63484.56236482576,11313.0
63484.5723675957,11327.0
63484.58237036564,11352.0
63484.59237313558,11304.0
63484.602375905524,11342.0
63484.61237867546,11358.0
63484.622381445406,11363.0
63484.63238421534,11384.0
63484.64238698529,11366.0
63484.65238975523,11371.0
63484.66239252517,11410.0
63484.672395295114,11370.0
63484.68239806505,11404.0
63484.692400834996,11414.0
63484.70240360493,11395.0
63484.71240637488,11407.0
63484.722409144815,11418.0
63484.73241191476,11437.0
63484.7424146847,11431.0
63484.75241745464,11432.0
63484.76242022458,11457.0
63484.77242299452,11467.0
63484.78242576446,11453.0
63484.792428534405,11451.0
63484.80243130434,11478.0
63484.81243407429,11434.0
63484.822436844224,11419.0
63484.83243961417,11386.0
63484.842442384106,11357.0
63484.85244515405,11321.0
63484.862447923995,11301.0
63484.87245069393,11289.0
63484.88245346388,11253.0
63484.892456233814,11234.0
63484.90245900376,11173.0
63484.912461773696,11182.0
63484.92246454364,11170.0
63484.93246731358,11163.0
63484.94247008352,11158.0
63484.95247285346,11142.0
63484.962475623404,11165.0
63484.97247839334,11131.0
63484.982481163286,11098.0
63484.99248393322,11112.0
63485.00248670317,11063.0
63485.012489473105,11101.0
63485.02249224305,11073.0
63485.03249501299,11071.0
63485.04249778293,11076.0
63485.052500552876,11083.0
63485.06250332281,11080.0
63485.07250609276,11074.0
63485.082508862695,11098.0
63485.09251163264,11083.0
63485.10251440258,11072.0
63485.11251717252,11109.0
63485.12251994246,11069.0
63485.1325227124,11067.0
63485.14252548234,11072.0
63485.152528252285,11050.0
63485.16253102222,11056.0
63485.17253379217,11067.0
63485.182536562104,11086.0
63485.19253933205,11040.0
63485.202542101986,11071.0
63485.21254487193,11071.0
63485.22254764187,11086.0
63485.23255041181,11066.0
63485.24255318176,11094.0
63485.252555951694,11072.0
63485.26255872164,11140.0
63485.272561491576,11103.0
63485.28256426152,11109.0
63485.29256703146,11115.0
63485.3025698014,11129.0
63485.31257257134,11150.0
63485.322575341284,11113.0
63485.33257811122,11145.0
63485.342580881166,11142.0
63485.3525836511,11158.0
63485.36258642105,11164.0
63485.372589190985,11156.0
63485.38259196093,11164.0
63485.39259473087,11183.0
63485.40259750081,11191.0
63485.41260027075,11178.0
63485.42260304069,11226.0
63485.43260581064,11213.0
63485.442608580575,11220.0
63485.45261135052,11245.0
63485.46261412046,11232.0
63485.4726168904,11251.0
63485.48261966034,11246.0
63485.49262243028,11245.0
63485.50262520022,11262.0
63485.512627970165,11257.0
63485.5226307401,11249.0
63485.53263351005,11304.0
63485.542636279984,11301.0
63485.55263904993,11303.0
63485.562641819866,11294.0
63485.57264458981,11324.0
63485.58264735975,11320.0
63485.59265012969,11322.0
63485.60265289963,11321.0
63485.612655669574,11331.0
63485.62265843952,11356.0
63485.632661209456,11370.0
63485.6426639794,11354.0
63485.65266674934,11375.0
63485.66266951928,11399.0
63485.67267228922,11403.0
63485.682675059164,11414.0
63485.6926778291,11400.0
63485.702680599046,11424.0
63485.71268336898,11405.0
63485.72268613893,11447.0
63485.732688908865,11448.0
63485.74269167881,11449.0
63485.75269444875,11447.0
63485.76269721869,11449.0
63485.77269998863,11477.0
63485.78270275857,11488.0
63485.79270552851,11481.0
63485.802708298455,11502.0
63485.81271106839,11483.0
63485.82271383834,11477.0
63485.83271660828,11445.0
63485.84271937822,11445.0
63485.85272214816,11416.0
63485.8627249181,11382.0
63485.872727688045,11360.0
63485.88273045798,11345.0
63485.89273322793,11335.0
63485.902735997865,11309.0
63485.91273876781,11282.0
63485.922741537746,11264.0
63485.93274430769,11240.0
63485.94274707763,11248.0
63485.95274984757,11243.0
63485.96275261751,11219.0
63485.972755387455,11244.0
63485.98275815739,11214.0
63485.992760927336,11197.0
63486.00276369727,11205.0
63486.01276646722,11178.0
63486.02276923716,11189.0
63486.0327720071,11229.0
63486.042774777045,11184.0
63486.05277754698,11206.0
63486.06278031693,11180.0
63486.07278308686,11164.0
63486.08278585681,11191.0
63486.092788626745,11154.0
63486.10279139669,11180.0
63486.11279416663,11190.0
63486.12279693657,11155.0
63486.13279970651,11196.0
63486.142802476454,11175.0
63486.15280524639,11176.0
63486.162808016335,11183.0
63486.17281078627,11159.0
63486.18281355622,11163.0
63486.192816326155,11134.0
63486.2028190961,11158.0
63486.212821866044,11158.0
63486.22282463598,11152.0
63486.232827405925,11189.0
63486.24283017586,11189.0
63486.25283294581,11168.0
63486.262835715745,11189.0
63486.27283848569,11190.0
63486.28284125563,11165.0
63486.29284402557,11216.0
63486.30284679551,11185.0
63486.31284956545,11209.0
63486.32285233539,11181.0
63486.332855105335,11213.0
63486.34285787527,11221.0
63486.35286064522,11236.0
63486.362863415154,11255.0
63486.3728661851,11245.0
63486.382868955036,11257.0
63486.39287172498,11268.0
63486.40287449492,11244.0
63486.41287726486,11274.0
63486.42288003481,11267.0
63486.432882804744,11285.0
63486.44288557469,11314.0
63486.452888344626,11300.0
63486.46289111457,11331.0
63486.47289388451,11313.0
63486.48289665445,11327.0
63486.49289942439,11344.0
63486.502902194334,11344.0
63486.51290496427,11346.0
63486.522907734216,11379.0
63486.53291050415,11340.0
63486.5429132741,11390.0
63486.552916044035,11382.0
63486.56291881398,11375.0
63486.57292158392,11384.0
63486.58292435386,11375.0
63486.5929271238,11417.0
63486.60292989374,11413.0
63486.61293266369,11384.0
63486.622935433625,11411.0
63486.63293820357,11433.0
63486.64294097351,11428.0
63486.65294374345,11460.0
63486.66294651339,11437.0
63486.67294928333,11457.0
63486.68295205327,11462.0
63486.692954823215,11484.0
63486.70295759315,11483.0
63486.7129603631,11476.0
63486.722963133034,11473.0
63486.73296590298,11454.0
63486.742968672916,11443.0
63486.75297144286,11422.0
63486.7629742128,11406.0
63486.77297698274,11354.0
63486.78297975268,11370.0
63486.792982522624,11329.0
63486.80298529257,11343.0
63486.812988062506,11292.0
63486.82299083245,11270.0
63486.83299360239,11248.0
63486.84299637233,11250.0
63486.85299914227,11215.0
63486.863001912214,11230.0
63486.87300468215,11222.0
63486.883007452096,11199.0
63486.89301022203,11230.0
63486.90301299198,11190.0
63486.913015761915,11204.0
63486.92301853186,11197.0
63486.9330213018,11222.0
63486.94302407174,11164.0
63486.95302684168,11188.0
63486.96302961162,11190.0
63486.97303238156,11184.0
63486.983035151505,11209.0
63486.99303792145,11144.0
63487.00304069139,11185.0
63487.01304346133,11164.0
63487.02304623127,11161.0
63487.03304900121,11157.0
63487.04305177115,11189.0
63487.053054541095,11174.0
63487.06305731103,11176.0
63487.07306008098,11168.0
63487.083062850914,11181.0
63487.09306562086,11208.0
63487.103068390796,11156.0
63487.11307116074,11184.0
63487.12307393068,11177.0
63487.13307670062,11174.0
63487.14307947056,11201.0
63487.153082240504,11175.0
63487.16308501044,11185.0
63487.173087780386,11196.0
63487.18309055032,11179.0
63487.19309332027,11200.0
63487.20309609021,11213.0
63487.21309886015,11215.0
63487.223101630094,11255.0
63487.23310440003,11214.0
63487.243107169976,11231.0
63487.25310993991,11236.0
63487.26311270986,11226.0
63487.273115479795,11276.0
63487.28311824974,11259.0
63487.29312101968,11256.0
63487.30312378962,11290.0
63487.31312655956,11267.0
63487.3231293295,11285.0
63487.33313209944,11299.0
63487.343134869385,11304.0
63487.35313763932,11294.0
63487.36314040927,11312.0
63487.373143179204,11340.0
63487.38314594915,11337.0
63487.39314871909,11312.0
63487.40315148903,11330.0
63487.413154258975,11359.0
63487.42315702891,11337.0
63487.43315979886,11378.0
63487.443162568794,11377.0
63487.45316533874,11381.0
63487.463168108676,11365.0
63487.47317087862,11392.0
63487.48317364856,11389.0
63487.4931764185,11380.0
63487.50317918844,11424.0
63487.513181958384,11407.0
63487.52318472832,11422.0
63487.533187498266,11435.0
63487.5431902682,11430.0
63487.55319303815,11453.0
63487.563195808085,11445.0
63487.57319857803,11453.0
63487.583201347974,11479.0
63487.59320411791,11453.0
63487.603206887856,11481.0
63487.61320965779,11476.0
63487.62321242774,11470.0
63487.633215197675,11487.0
63487.64321796762,11512.0
63487.65322073756,11512.0
63487.6632235075,11528.0
63487.67322627744,11509.0
63487.68322904738,11533.0
63487.69323181732,11514.0
63487.703234587265,11487.0
63487.7132373572,11520.0
63487.72324012715,11482.0
63487.733242897084,11456.0
63487.74324566703,11466.0
63487.753248436966,11401.0
63487.76325120691,11390.0
63487.77325397685,11360.0
63487.78325674679,11277.0
63487.79325951674,11332.0
63487.803262286674,11277.0
63487.81326505662,11303.0
63487.823267826556,11298.0
63487.8332705965,11236.0
63487.84327336644,11228.0
63487.85327613638,11239.0
63487.86327890632,11207.0
63487.873281676264,11217.0
63487.8832844462,11208.0
63487.893287216146,11205.0
63487.90328998608,11178.0
63487.91329275603,11208.0
63487.923295525965,11173.0
63487.93329829591,11176.0
63487.94330106585,11157.0
63487.95330383579,11159.0
63487.96330660573,11165.0
63487.97330937567,11173.0
63487.98331214562,11161.0
63487.993314915555,11174.0
63488.0033176855,11146.0
63488.01332045544,11158.0
63488.02332322538,11168.0
63488.03332599532,11156.0
63488.04332876526,11174.0
63488.0533315352,11147.0
63488.063334305145,11146.0
63488.07333707508,11140.0
63488.08333984503,11139.0
63488.093342614964,11140.0
63488.10334538491,11133.0
63488.113348154846,11157.0
63488.12335092479,11152.0
63488.13335369473,11151.0
63488.14335646467,11164.0
63488.15335923461,11154.0
63488.163362004554,11142.0
63488.1733647745,11165.0
63488.183367544436,11158.0
63488.19337031438,11164.0
63488.20337308432,11164.0
63488.21337585426,11197.0
63488.2233786242,11175.0
63488.233381394144,11194.0
63488.24338416408,11186.0
63488.253386934026,11211.0
63488.26338970396,11204.0
63488.27339247391,11241.0
63488.283395243845,11216.0
63488.29339801379,11229.0
63488.30340078373,11253.0
63488.31340355367,11233.0
63488.32340632361,11233.0
63488.33340909355,11246.0
63488.34341186349,11283.0
63488.353414633435,11255.0
63488.36341740338,11245.0
63488.37342017332,11283.0
63488.38342294326,11292.0
63488.3934257132,11282.0
63488.40342848314,11297.0
63488.41343125308,11293.0
63488.423434023025,11292.0
63488.43343679296,11301.0
63488.44343956291,11322.0
63488.453442332844,11316.0
63488.46344510279,11342.0
63488.473447872726,11311.0
63488.48345064267,11343.0
63488.49345341261,11345.0
63488.50345618255,11337.0
63488.51345895249,11355.0
63488.523461722434,11389.0
63488.53346449237,11362.0
63488.543467262316,11378.0
63488.55347003225,11381.0
63488.5634728022,11368.0
63488.57347557214,11404.0
63488.58347834208,11443.0
63488.593481112024,11412.0
63488.60348388196,11398.0
63488.613486651906,11413.0
63488.62348942184,11430.0
63488.63349219179,11453.0
63488.643494961725,11446.0
63488.65349773167,11435.0
63488.66350050161,11455.0
63488.67350327155,11445.0
63488.68350604149,11444.0
63488.69350881143,11432.0
63488.70351158137,11432.0
63488.713514351315,11406.0
63488.72351712125,11365.0
63488.7335198912,11349.0
63488.743522661134,11327.0
63488.75352543108,11294.0
63488.76352820102,11318.0
63488.77353097096,11235.0
63488.783533740905,11238.0
63488.79353651084,11234.0
63488.80353928079,11194.0
63488.813542050724,11209.0
63488.82354482067,11174.0
63488.833547590606,11184.0
63488.84355036055,11176.0
63488.85355313049,11101.0
63488.86355590043,11139.0
63488.87355867037,11156.0
63488.883561440314,11113.0
63488.89356421025,11144.0
63488.903566980196,11110.0
63488.91356975013,11084.0
63488.92357252008,11125.0
63488.933575290015,11123.0
63488.94357805996,11095.0
63488.953580829904,11091.0
63488.96358359984,11083.0
63488.973586369786,11100.0
63488.98358913972,11069.0
63488.99359190967,11076.0
63489.003594679605,11069.0
63489.01359744955,11061.0
63489.02360021949,11073.0
63489.03360298943,11058.0
63489.04360575937,11058.0
63489.05360852931,11095.0
63489.06361129925,11082.0
63489.073614069195,11070.0
63489.08361683913,11082.0
63489.09361960908,11062.0
63489.103622379014,11074.0
63489.11362514896,11097.0
63489.123627918896,11075.0
63489.13363068884,11095.0
63489.14363345878,11099.0
63489.15363622872,11102.0
63489.16363899867,11096.0
63489.173641768604,11096.0
63489.18364453855,11127.0
63489.193647308486,11147.0
63489.20365007843,11144.0
63489.21365284837,11143.0
63489.22365561831,11155.0
63489.23365838825,11166.0
63489.243661158194,11191.0
63489.25366392813,11141.0
63489.263666698076,11177.0
63489.27366946801,11161.0
63489.28367223796,11172.0
63489.293675007895,11205.0
63489.30367777784,11196.0
63489.31368054778,11185.0
63489.32368331772,11199.0
63489.33368608766,11196.0
63489.3436888576,11216.0
63489.35369162755,11218.0
63489.363694397485,11222.0
63489.37369716743,11216.0
63489.38369993737,11244.0
63489.39370270731,11242.0
63489.40370547725,11240.0
63489.41370824719,11251.0
63489.42371101713,11252.0
63489.433713787075,11266.0
63489.44371655701,11281.0
63489.45371932696,11294.0
63489.463722096894,11301.0
63489.47372486684,11284.0
63489.483727636776,11284.0
63489.49373040672,11318.0
63489.50373317666,11296.0
63489.5137359466,11323.0
63489.52373871654,11329.0
63489.533741486484,11324.0
63489.54374425643,11345.0
63489.553747026366,11343.0
63489.56374979631,11359.0
63489.57375256625,11369.0
63489.58375533619,11327.0
63489.59375810613,11329.0
63489.603760876074,11341.0
63489.61376364601,11286.0
63489.623766415956,11254.0
63489.63376918589,11247.0
63489.64377195584,11195.0
63489.653774725775,11215.0
63489.66377749572,11172.0
63489.67378026566,11146.0
63489.6837830356,11166.0
63489.69378580554,11118.0
63489.70378857548,11134.0
63489.71379134542,11105.0
63489.723794115365,11082.0
63489.73379688531,11117.0
63489.74379965525,11065.0
63489.75380242519,11082.0
63489.76380519513,11108.0
63489.77380796507,11044.0
63489.78381073501,11087.0
63489.793813504955,11065.0
63489.80381627489,11058.0
63489.81381904484,11077.0
63489.823821814774,11046.0
63489.83382458472,11047.0
63489.843827354656,11064.0
63489.8538301246,11040.0
63489.86383289454,11052.0
63489.87383566448,11055.0
63489.88383843442,11075.0
63489.893841204364,11086.0
63489.9038439743,11061.0
63489.913846744246,11043.0
63489.92384951418,11067.0
63489.93385228413,11059.0
63489.94385505407,11071.0
63489.95385782401,11065.0
63489.963860593954,11038.0
63489.97386336389,11050.0
63489.983866133836,11083.0
63489.99386890377,11070.0
63490.00387167372,11066.0
63490.013874443655,11070.0
63490.0238772136,11062.0
63490.03387998354,11083.0
63490.04388275348,11087.0
63490.05388552342,11100.0
63490.06388829336,11075.0
63490.0738910633,11105.0
63490.083893833245,11105.0
63490.09389660318,11122.0
63490.10389937313,11118.0
63490.113902143064,11133.0
63490.12390491301,11142.0
63490.13390768295,11145.0
63490.14391045289,11166.0
63490.153913222835,11140.0
63490.16391599277,11176.0
63490.17391876272,11151.0
63490.183921532654,11160.0
63490.1939243026,11188.0
63490.203927072536,11186.0
63490.21392984248,11197.0
63490.22393261242,11210.0
63490.23393538236,11209.0
63490.2439381523,11211.0
63490.253940922245,11233.0
63490.26394369218,11229.0
63490.273946462126,11260.0
63490.28394923206,11235.0
63490.29395200201,11221.0
63490.303954771945,11275.0
63490.31395754189,11237.0
63490.323960311835,11261.0
63490.33396308177,11271.0
63490.343965851716,11263.0
63490.35396862165,11303.0
63490.3639713916,11287.0
63490.373974161535,11280.0
63490.38397693148,11325.0
63490.39397970142,11332.0
63490.40398247136,11312.0
63490.4139852413,11350.0
63490.42398801124,11320.0
63490.43399078118,11348.0
63490.443993551125,11365.0
63490.45399632106,11354.0
63490.46399909101,11347.0
63490.474001860945,11357.0
63490.48400463089,11344.0
63490.49400740083,11334.0
63490.50401017077,11302.0
63490.51401294071,11282.0
63490.52401571065,11268.0
63490.5340184806,11223.0
63490.544021250535,11210.0
63490.55402402048,11172.0
63490.56402679042,11180.0
63490.57402956036,11196.0
63490.5840323303,11124.0
63490.59403510024,11113.0
63490.60403787018,11103.0
63490.614040640125,11076.0
63490.62404341006,11061.0
63490.63404618001,11079.0
63490.644048949944,11050.0
63490.65405171989,11055.0
63490.664054489826,11080.0
63490.67405725977,11021.0
63490.68406002971,11026.0
63490.69406279965,11052.0
63490.70406556959,11010.0
63490.714068339534,11015.0
63490.72407110948,11015.0
63490.734073879416,11009.0
63490.74407664936,11028.0
63490.7540794193,11018.0
63490.76408218924,11016.0
63490.77408495918,11038.0
63490.784087729124,10995.0
63490.79409049906,11003.0
63490.804093269006,11011.0
63490.81409603894,10987.0
63490.82409880889,11028.0
63490.834101578825,10973.0
63490.84410434877,11020.0
63490.85410711871,11004.0
63490.86410988865,10983.0
63490.87411265859,11000.0
63490.88411542853,11000.0
63490.89411819847,11010.0
63490.904120968415,11003.0
63490.91412373836,11000.0
63490.9241265083,11021.0
63490.93412927824,11021.0
63490.94413204818,11005.0
63490.95413481812,11023.0
63490.96413758806,11017.0
63490.974140358005,11088.0
63490.98414312794,11084.0
63490.99414589789,11060.0
63491.004148667824,11063.0
63491.01415143777,11074.0
63491.024154207706,11079.0
63491.03415697765,11059.0
63491.04415974759,11069.0
63491.05416251753,11088.0
63491.06416528747,11111.0
63491.074168057414,11110.0
63491.08417082735,11106.0
63491.094173597296,11114.0
63491.10417636724,11106.0
63491.11417913718,11129.0
63491.12418190712,11105.0
63491.13418467706,11135.0
63491.144187447004,11142.0
63491.15419021694,11164.0
63491.164192986886,11164.0
63491.17419575682,11177.0
63491.18419852677,11172.0
63491.194201296705,11168.0
63491.20420406665,11212.0
63491.21420683659,11206.0
63491.22420960653,11193.0
63491.23421237647,11195.0
63491.24421514641,11207.0
63491.25421791635,11225.0
63491.264220686295,11222.0
63491.27422345623,11214.0
63491.28422622618,11268.0
63491.294228996114,11256.0
63491.30423176606,11248.0
63491.314234536,11289.0
63491.32423730594,11258.0
63491.334240075885,11294.0
63491.34424284582,11290.0
63491.35424561577,11292.0
63491.364248385704,11330.0
63491.37425115565,11343.0
63491.384253925586,11334.0
63491.39425669553,11329.0
63491.40425946547,11344.0
63491.41426223541,11350.0
63491.42426500535,11352.0
63491.434267775294,11386.0
63491.44427054523,11349.0
63491.454273315176,11363.0
63491.46427608511,11348.0
63491.47427885506,11317.0
63491.484281624995,11321.0
63491.49428439494,11294.0
63491.504287164884,11292.0
63491.51428993482,11272.0
63491.524292704766,11195.0
63491.5342954747,11197.0
63491.54429824465,11213.0
63491.554301014585,11151.0
63491.56430378453,11127.0
63491.57430655447,11119.0
63491.58430932441,11089.0
63491.59431209435,11096.0
63491.60431486429,11081.0
63491.61431763423,11084.0
63491.624320404175,11062.0
63491.63432317411,11078.0
63491.64432594406,11079.0
63491.654328713994,11045.0
63491.66433148394,11058.0
63491.674334253876,11052.0
63491.68433702382,11055.0
63491.694339793765,11026.0
63491.7043425637,11006.0
63491.71434533365,11014.0
63491.724348103584,11009.0
63491.73435087353,11045.0
63491.744353643466,11048.0
63491.75435641341,11001.0
63491.76435918335,11010.0
63491.77436195329,11042.0
63491.78436472323,11037.0
63491.794367493174,11013.0
63491.80437026311,11008.0
63491.814373033056,11020.0
63491.82437580299,11028.0
63491.83437857294,11040.0
63491.844381342875,11008.0
63491.85438411282,11033.0
63491.86438688276,11011.0
63491.8743896527,11029.0
63491.88439242264,11008.0
63491.89439519258,11055.0
63491.90439796253,11026.0
63491.914400732465,11040.0
63491.92440350241,11050.0
63491.93440627235,11037.0
63491.94440904229,11062.0
63491.95441181223,11054.0
63491.96441458217,11102.0
63491.97441735211,11091.0
63491.984420122055,11086.0
63491.99442289199,11096.0
63492.00442566194,11102.0
63492.014428431874,11094.0
63492.02443120182,11099.0
63492.034433971756,11151.0
63492.0444367417,11129.0
63492.05443951164,11144.0
63492.06444228158,11128.0
63492.07444505152,11122.0
63492.084447821464,11142.0
63492.09445059141,11171.0
63492.104453361346,11139.0
63492.11445613129,11128.0
63492.12445890123,11170.0
63492.13446167117,11181.0
63492.14446444111,11174.0
63492.154467211054,11191.0
63492.16446998099,11204.0
63492.174472750936,11202.0
63492.18447552087,11198.0
63492.19447829082,11193.0
63492.204481060755,11202.0
63492.2144838307,11197.0
63492.22448660064,11217.0
63492.23448937058,11218.0
63492.24449214052,11224.0
63492.25449491046,11231.0
63492.2644976804,11257.0
63492.274500450345,11263.0
63492.28450322029,11257.0
63492.29450599023,11289.0
63492.30450876017,11288.0
63492.31451153011,11264.0
63492.32451430005,11300.0
63492.33451706999,11331.0
63492.344519839935,11306.0
63492.35452260987,11313.0
63492.36452537982,11348.0
63492.374528149754,11326.0
63492.3845309197,11330.0
63492.394533689636,11362.0
63492.40453645958,11387.0
63492.41453922952,11332.0
63492.42454199946,11370.0
63492.4345447694,11396.0
63492.444547539344,11358.0
63492.45455030928,11386.0
63492.464553079226,11374.0
63492.47455584917,11374.0
63492.48455861911,11346.0
63492.49456138905,11353.0
63492.50456415899,11326.0
63492.514566928934,11323.0
63492.52456969887,11304.0
63492.534572468816,11232.0
63492.54457523875,11224.0
63492.5545780087,11188.0
63492.564580778635,11176.0
63492.57458354858,11163.0
63492.58458631852,11123.0
63492.59458908846,11124.0
63492.6045918584,11122.0
63492.61459462834,11088.0
63492.62459739828,11095.0
63492.634600168225,11088.0
63492.64460293816,11063.0
63492.65460570811,11086.0
63492.664608478044,11039.0
63492.67461124799,11057.0
63492.68461401793,11046.0
63492.69461678787,11029.0
63492.704619557815,11012.0
63492.71462232775,11055.0
63492.7246250977,11056.0
63492.734627867634,11059.0
63492.74463063758,11039.0
63492.754633407516,11042.0
63492.76463617746,11028.0
63492.7746389474,11030.0
63492.78464171734,11055.0
63492.79464448728,11032.0
63492.804647257224,11018.0
63492.81465002716,11011.0
63492.824652797106,11012.0
63492.83465556704,11017.0
63492.84465833699,11057.0
63492.854661106925,11023.0
63492.86466387687,11008.0
63492.874666646814,11013.0
63492.88466941675,11026.0
63492.894672186696,11016.0
63492.90467495663,11020.0
63492.91467772658,11033.0
63492.924680496515,11014.0
63492.93468326646,11052.0
63492.9446860364,11054.0
63492.95468880634,11051.0
63492.96469157628,11025.0
63492.97469434622,11060.0
63492.98469711616,11071.0
63492.994699886105,11062.0
63493.00470265604,11057.0
63493.01470542599,11054.0
63493.024708195924,11069.0
63493.03471096587,11097.0
63493.044713735806,11122.0
63493.05471650575,11100.0
63493.064719275695,11125.0
63493.07472204563,11121.0
63493.08472481558,11105.0
63493.094727585514,11103.0
63493.10473035546,11134.0
63493.114733125396,11127.0
63493.12473589534,11174.0
63493.13473866528,11125.0
63493.14474143522,11181.0
63493.15474420516,11157.0
63493.164746975104,11159.0
63493.17474974504,11181.0
63493.184752514986,11154.0
63493.19475528492,11172.0
63493.20475805487,11200.0
63493.214760824805,11206.0
63493.22476359475,11183.0
63493.23476636469,11226.0
63493.24476913463,11204.0
63493.25477190457,11240.0
63493.26477467451,11221.0
63493.27477744446,11234.0
63493.284780214395,11248.0
63493.29478298434,11240.0
63493.30478575428,11257.0
63493.31478852422,11256.0
63493.32479129416,11295.0
63493.3347940641,11302.0
63493.34479683404,11262.0
63493.354799603985,11289.0
63493.36480237392,11307.0
63493.37480514387,11301.0
63493.384807913804,11310.0
63493.39481068375,11285.0
63493.404813453686,11285.0
63493.41481622363,11280.0
63493.42481899357,11230.0
63493.43482176351,11216.0
63493.44482453345,11189.0
63493.454827303394,11139.0
63493.46483007334,11120.0
63493.474832843276,11099.0
63493.48483561322,11063.0
63493.49483838316,11058.0
63493.5048411531,11020.0
63493.51484392304,10993.0
63493.524846692984,10991.0
63493.53484946292,10974.0
63493.544852232866,10958.0
63493.5548550028,10977.0
63493.56485777275,10932.0
63493.574860542685,10917.0
63493.58486331263,10920.0
63493.59486608257,10885.0
63493.60486885251,10891.0
63493.61487162245,10877.0
63493.62487439239,10858.0
63493.63487716233,10867.0
63493.644879932275,10864.0
63493.65488270222,10871.0
63493.66488547216,10894.0
63493.6748882421,10845.0
63493.68489101204,10863.0
63493.69489378198,10878.0
63493.70489655192,10833.0
63493.714899321865,10856.0
63493.7249020918,10866.0
63493.73490486175,10831.0
63493.744907631684,10871.0
63493.75491040163,10823.0
63493.764913171566,10841.0
63493.77491594151,10850.0
63493.78491871145,10826.0
63493.79492148139,10824.0
63493.80492425133,10838.0
63493.814927021274,10817.0
63493.82492979121,10862.0
63493.834932561156,10835.0
63493.8449353311,10848.0
63493.85493810104,10861.0
63493.86494087098,10861.0
63493.87494364092,10859.0
63493.884946410864,10862.0
63493.8949491808,10868.0
63493.904951950746,10862.0
63493.91495472068,10867.0
63493.92495749063,10886.0
63493.934960260565,10912.0
63493.94496303051,10907.0
63493.95496580045,10907.0
63493.96496857039,10913.0
63493.97497134033,10931.0
63493.98497411027,10921.0
63493.99497688021,10928.0
63494.004979650155,10945.0
63494.01498242009,10934.0
63494.02498519004,10926.0
63494.034987959974,10981.0
63494.04499072992,10961.0
63494.05499349986,10969.0
63494.0649962698,10958.0
63494.074999039745,10986.0
63494.08500180968,10966.0
63494.09500457963,11013.0
63494.105007349564,10973.0
63494.11501011951,10997.0
63494.125012889446,11042.0
63494.13501565939,11031.0
63494.14501842933,11029.0
63494.15502119927,11073.0
63494.16502396921,10998.0
63494.175026739154,11046.0
63494.18502950909,11061.0
63494.195032279036,11051.0
63494.20503504897,11096.0
63494.21503781892,11079.0
63494.225040588855,11074.0
63494.2350433588,11109.0
63494.245046128744,11084.0
63494.25504889868,11105.0
63494.265051668626,11112.0
63494.27505443856,11106.0
63494.28505720851,11121.0
63494.295059978445,11168.0
63494.30506274839,11147.0
63494.31506551833,11173.0
63494.32506828827,11147.0
63494.33507105821,11167.0
63494.34507382815,11200.0
63494.35507659809,11180.0
63494.365079368035,11193.0
63494.37508213797,11187.0
63494.38508490792,11185.0
63494.395087677854,11168.0
63494.4050904478,11195.0
63494.415093217736,11163.0
63494.42509598768,11163.0
63494.435098757625,11101.0
63494.44510152756,11096.0
63494.45510429751,11014.0
63494.465107067444,10973.0
63494.47510983739,10928.0
63494.485112607326,10935.0
63494.49511537727,10874.0
63494.50511814721,10859.0
63494.51512091715,10845.0
63494.52512368709,10832.0
63494.535126457034,10788.0
63494.54512922697,10767.0
63494.555131996916,10762.0
63494.56513476685,10787.0
63494.5751375368,10743.0
63494.585140306735,10703.0
63494.59514307668,10723.0
63494.60514584662,10671.0
63494.61514861656,10685.0
63494.6251513865,10676.0
63494.63515415644,10673.0
63494.64515692639,10666.0
63494.655159696325,10659.0
63494.66516246627,10662.0
63494.67516523621,10648.0
63494.68516800615,10622.0
63494.69517077609,10667.0
63494.70517354603,10652.0
63494.71517631597,10652.0
63494.725179085915,10658.0
63494.73518185585,10648.0
63494.7451846258,10650.0
63494.755187395735,10670.0
63494.76519016568,10627.0
63494.775192935616,10645.0
63494.78519570556,10625.0
63494.7951984755,10657.0
63494.80520124544,10641.0
63494.81520401538,10643.0
63494.825206785325,10612.0
63494.83520955527,10647.0
63494.84521232521,10633.0
63494.85521509515,10646.0
63494.86521786509,10676.0
63494.87522063503,10695.0
63494.88522340497,10677.0
63494.895226174915,10675.0
63494.90522894485,10694.0
63494.9152317148,10689.0
63494.925234484734,10707.0
63494.93523725468,10736.0
63494.945240024615,10707.0
63494.95524279456,10689.0
63494.9652455645,10745.0
63494.97524833444,10747.0
63494.98525110438,10751.0
63494.995253874324,10756.0
63495.00525664426,10778.0
63495.015259414206,10753.0
63495.02526218415,10780.0
63495.03526495409,10784.0
63495.04526772403,10797.0
63495.05527049397,10794.0
63495.065273263914,10801.0
63495.07527603385,10813.0
63495.085278803796,10830.0
63495.09528157373,10824.0
63495.10528434368,10835.0
63495.115287113615,10854.0
63495.12528988356,10877.0
63495.1352926535,10875.0
63495.14529542344,10868.0
63495.15529819338,10865.0
63495.16530096332,10874.0
63495.17530373326,10895.0
63495.185306503205,10902.0
63495.19530927314,10908.0
63495.20531204309,10931.0
63495.21531481303,10918.0
63495.22531758297,10936.0
63495.23532035291,10945.0
63495.24532312285,10933.0
63495.255325892795,10949.0
63495.26532866273,10954.0
63495.27533143268,10976.0
63495.285334202614,10968.0
63495.29533697256,10993.0
63495.305339742496,10987.0
63495.31534251244,11001.0
63495.32534528238,11028.0
63495.33534805232,11002.0
63495.34535082226,11028.0
63495.355353592204,11024.0
63495.36535636214,11044.0
63495.375359132086,11035.0
63495.38536190202,11059.0
63495.39536467197,11074.0
63495.405367441905,11047.0
63495.41537021185,11033.0
63495.425372981794,10999.0
63495.43537575173,11010.0
63495.445378521676,10923.0
63495.45538129161,10869.0
63495.46538406156,10861.0
63495.475386831495,10837.0
63495.48538960144,10786.0
63495.49539237138,10778.0
63495.50539514132,10758.0
63495.51539791126,10730.0
63495.5254006812,10733.0
63495.53540345114,10693.0
63495.545406221085,10692.0
63495.55540899102,10705.0
63495.56541176097,10669.0
63495.575414530904,10691.0
63495.58541730085,10663.0
63495.595420070786,10659.0
63495.60542284073,10628.0
63495.615425610675,10619.0
63495.62542838061,10633.0
63495.63543115056,10615.0
63495.645433920494,10618.0
63495.65543669044,10617.0
63495.665439460376,10627.0
63495.67544223032,10657.0
63495.68544500026,10643.0
63495.6954477702,10602.0
63495.70545054014,10657.0
63495.715453310084,10638.0
63495.72545608002,10636.0
63495.735458849966,10653.0
63495.7454616199,10614.0
63495.75546438985,10657.0
63495.765467159785,10617.0
63495.77546992973,10622.0
63495.78547269967,10658.0
63495.79547546961,10632.0
63495.805478239556,10641.0
63495.81548100949,10646.0
63495.82548377944,10665.0
63495.835486549375,10653.0
63495.84548931932,10667.0
63495.85549208926,10661.0
63495.8654948592,10653.0
63495.87549762914,10673.0
63495.88550039908,10695.0
63495.89550316902,10700.0
63495.905505938965,10713.0
63495.9155087089,10722.0
63495.92551147885,10715.0
63495.935514248784,10733.0
63495.94551701873,10734.0
63495.955519788666,10743.0
63495.96552255861,10745.0
63495.97552532855,10748.0
63495.98552809849,10786.0
63495.99553086843,10782.0
63496.005533638374,10790.0
63496.01553640832,10787.0
63496.025539178256,10791.0
63496.0355419482,10813.0
63496.04554471814,10822.0
63496.05554748808,10842.0
63496.06555025802,10836.0
63496.075553027964,10840.0
63496.0855557979,10842.0
63496.095558567846,10883.0
63496.10556133778,10860.0
63496.11556410773,10876.0
63496.125566877665,10891.0
63496.13556964761,10907.0
63496.14557241755,10900.0
63496.15557518749,10893.0
63496.16557795743,10952.0
63496.17558072737,10964.0
63496.18558349731,10927.0
63496.195586267255,10955.0
63496.2055890372,10988.0
63496.21559180714,10967.0
63496.22559457708,11002.0
63496.23559734702,10997.0
63496.24560011696,10994.0
63496.2556028869,11007.0
63496.265605656845,11019.0
63496.27560842678,11031.0
63496.28561119673,11092.0
63496.295613966664,11036.0
63496.30561673661,11096.0
63496.315619506546,11065.0
63496.32562227649,11049.0
63496.33562504643,11055.0
63496.34562781637,11002.0
63496.35563058631,10991.0
63496.365633356254,10962.0
63496.37563612619,10932.0
63496.385638896136,10933.0
63496.39564166608,10901.0
63496.40564443602,10882.0
63496.41564720596,10897.0
63496.4256499759,10832.0
63496.435652745844,10841.0
63496.44565551578,10835.0
63496.455658285726,10826.0
63496.46566105566,10815.0
63496.47566382561,10808.0
63496.485666595545,10839.0
63496.49566936549,10824.0
63496.50567213543,10818.0
63496.51567490537,10799.0
63496.52567767531,10805.0
63496.53568044525,10790.0
63496.54568321519,10820.0
63496.555685985135,10830.0
63496.56568875507,10802.0
63496.57569152502,10801.0
63496.58569429496,10837.0
63496.5956970649,10829.0
63496.60569983484,10833.0
63496.61570260478,10829.0
63496.625705374725,10854.0
63496.63570814466,10828.0
63496.64571091461,10836.0
63496.655713684544,10842.0
63496.66571645449,10820.0
63496.675719224426,10831.0
63496.68572199437,10858.0
63496.69572476431,10877.0
63496.70572753425,10847.0
63496.71573030419,10874.0
63496.725733074134,10860.0
63496.73573584407,10859.0
63496.745738614016,10879.0
63496.75574138395,10901.0
63496.7657441539,10881.0
63496.775746923835,10918.0
63496.78574969378,10910.0
63496.795752463724,10916.0
63496.80575523366,10923.0
63496.815758003606,10909.0
63496.82576077354,10961.0
63496.83576354349,10931.0
63496.845766313425,10950.0
63496.85576908337,10980.0
63496.86577185331,10960.0
63496.87577462325,11012.0
63496.88577739319,10990.0
63496.89578016313,10985.0
63496.90578293307,11026.0
63496.915785703015,11010.0
63496.92578847295,11018.0
63496.9357912429,11021.0
63496.945794012834,11003.0
63496.95579678278,11056.0
63496.965799552716,11051.0
63496.97580232266,11076.0
63496.985805092605,11074.0
63496.99580786254,11067.0
63497.00581063249,11084.0
63497.015813402424,11103.0
63497.02581617237,11104.0
63497.035818942306,11108.0
63497.04582171225,11120.0
63497.05582448219,11119.0
63497.06582725213,11128.0
63497.07583002207,11144.0
63497.085832792014,11155.0
63497.09583556195,11156.0
63497.105838331896,11177.0
63497.11584110183,11155.0
63497.12584387178,11187.0
63497.135846641715,11191.0
63497.14584941166,11198.0
63497.1558521816,11233.0
63497.16585495154,11225.0
63497.175857721486,11241.0
63497.18586049142,11217.0
63497.19586326137,11252.0
63497.205866031305,11273.0
63497.21586880125,11247.0
63497.22587157119,11261.0
63497.23587434113,11286.0
63497.24587711107,11254.0
63497.25587988101,11278.0
63497.26588265095,11278.0
63497.275885420895,11199.0
63497.28588819083,11185.0
63497.29589096078,11195.0
63497.305893730714,11148.0
63497.31589650066,11138.0
63497.325899270596,11075.0
63497.33590204054,11064.0
63497.34590481048,11061.0
63497.35590758042,11004.0
63497.36591035036,11039.0
63497.375913120304,11022.0
63497.38591589025,10995.0
63497.395918660186,11007.0
63497.40592143013,10979.0
63497.41592420007,10971.0
63497.42592697001,10981.0
63497.43592973995,10946.0
63497.445932509894,10938.0
63497.45593527983,10951.0
63497.465938049776,10960.0
63497.47594081971,10938.0
63497.48594358966,10942.0
63497.495946359595,10947.0
63497.50594912954,10947.0
63497.51595189948,10920.0
63497.52595466942,10957.0
63497.53595743936,10948.0
63497.5459602093,10945.0
63497.55596297924,10921.0
63497.565965749185,10929.0
63497.57596851913,10941.0
63497.58597128907,10978.0
63497.59597405901,10946.0
63497.60597682895,10952.0
63497.61597959889,10940.0
63497.62598236883,10926.0
63497.635985138775,10936.0
63497.64598790871,10963.0
63497.65599067866,10947.0
63497.665993448594,10942.0
63497.67599621854,10971.0
63497.685998988476,10995.0
63497.69600175842,10983.0
63497.70600452836,10993.0
63497.7160072983,10991.0
63497.72601006824,11002.0
63497.736012838184,11004.0
63497.74601560812,11039.0
63497.756018378066,11032.0
63497.76602114801,11047.0
63497.77602391795,11026.0
63497.78602668789,11058.0
63497.79602945783,11040.0
63497.806032227774,11073.0
63497.81603499771,11050.0
63497.826037767656,11057.0
63497.83604053759,11068.0
63497.84604330754,11096.0
63497.856046077475,11084.0
63497.86604884742,11114.0
63497.87605161736,11109.0
63497.8860543873,11105.0
63497.89605715724,11116.0
63497.90605992718,11110.0
63497.91606269712,11114.0
63497.926065467065,11111.0
63497.936068237,11145.0
63497.94607100695,11129.0
63497.95607377689,11178.0
63497.96607654683,11170.0
63497.97607931677,11176.0
63497.98608208671,11187.0
63497.996084856655,11197.0
63498.00608762659,11193.0
63498.01609039654,11182.0
63498.026093166474,11219.0
63498.03609593642,11236.0
63498.046098706356,11217.0
63498.0561014763,11243.0
63498.06610424624,11250.0
63498.07610701618,11277.0
63498.08610978612,11248.0
63498.096112556064,11290.0
63498.106115326,11270.0
63498.116118095946,11276.0
63498.12612086588,11279.0
63498.13612363583,11309.0
63498.14612640577,11284.0
63498.15612917571,11314.0
63498.166131945654,11354.0
63498.17613471559,11353.0
63498.186137485536,11352.0
63498.19614025547,11360.0
63498.20614302542,11339.0
63498.216145795355,11359.0
63498.2261485653,11384.0
63498.23615133524,11385.0
63498.24615410518,11407.0
63498.25615687512,11360.0
63498.26615964506,11351.0
63498.276162415,11315.0
63498.286165184945,11292.0
63498.29616795488,11275.0
63498.30617072483,11251.0
63498.316173494764,11242.0
63498.32617626471,11183.0
63498.336179034646,11189.0
63498.34618180459,11167.0
63498.356184574535,11146.0
63498.36618734447,11158.0
63498.37619011442,11109.0
63498.386192884354,11104.0
63498.3961956543,11105.0
63498.406198424236,11090.0
63498.41620119418,11100.0
63498.42620396412,11072.0
63498.43620673406,11043.0
63498.446209504,11073.0
63498.456212273944,11042.0
63498.46621504388,11040.0
63498.476217813826,11045.0
63498.48622058376,10999.0
63498.49622335371,11021.0
63498.506226123645,11030.0
63498.51622889359,11021.0
63498.52623166353,11009.0
63498.53623443347,11024.0
63498.546237203416,11044.0
63498.55623997335,11037.0
63498.5662427433,11026.0
63498.576245513235,11052.0
63498.58624828318,11021.0
63498.59625105312,11019.0
63498.60625382306,10997.0
63498.616256593,11048.0
63498.62625936294,11015.0
63498.63626213288,11002.0
63498.646264902825,11026.0
63498.65626767276,11016.0
63498.66627044271,11014.0
63498.676273212644,11050.0
63498.68627598259,11034.0
63498.696278752526,11055.0
63498.70628152247,11037.0
63498.71628429241,11056.0
63498.72628706235,11055.0
63498.73628983229,11051.0
63498.746292602234,11058.0
63498.75629537218,11080.0
63498.766298142116,11055.0
63498.77630091206,11110.0
63498.786303682,11080.0
63498.79630645194,11103.0
63498.80630922188,11065.0
63498.816311991824,11088.0
63498.82631476176,11099.0
63498.836317531706,11108.0
63498.84632030164,11097.0
63498.85632307159,11139.0
63498.866325841525,11118.0
63498.87632861147,11133.0
63498.88633138141,11135.0
63498.89633415135,11131.0
63498.90633692129,11178.0
63498.91633969123,11173.0
63498.92634246117,11175.0
63498.936345231115,11196.0
63498.94634800106,11169.0
63498.956350771,11195.0
63498.96635354094,11201.0
63498.97635631088,11186.0
63498.98635908082,11206.0
63498.99636185076,11225.0
63499.006364620705,11244.0
63499.01636739064,11253.0
63499.02637016059,11245.0
63499.036372930525,11252.0
63499.04637570047,11270.0
63499.056378470406,11250.0
63499.06638124035,11267.0
63499.07638401029,11259.0
63499.08638678023,11277.0
63499.09638955017,11300.0
63499.106392320115,11282.0
63499.11639509005,11308.0
63499.126397859996,11310.0
63499.13640062994,11333.0
63499.14640339988,11353.0
63499.15640616982,11348.0
63499.16640893976,11329.0
63499.176411709705,11382.0
63499.18641447964,11350.0
63499.19641724959,11368.0
63499.206420019524,11360.0
63499.21642278947,11350.0
63499.226425559405,11361.0
63499.23642832935,11360.0
63499.24643109929,11347.0
63499.25643386923,11324.0
63499.26643663917,11309.0
63499.276439409114,11267.0
63499.28644217905,11223.0
63499.296444948995,11209.0
63499.30644771893,11164.0
63499.31645048888,11165.0
63499.32645325882,11127.0
63499.33645602876,11137.0
63499.346458798704,11105.0
63499.35646156864,11096.0
63499.366464338586,11061.0
63499.37646710852,11080.0
63499.38646987847,11054.0
63499.396472648405,11034.0
63499.40647541835,11056.0
63499.41647818829,11011.0
63499.42648095823,11020.0
63499.43648372817,11005.0
63499.44648649811,11004.0
63499.45648926805,11025.0
63499.466492037995,10978.0
63499.47649480793,10999.0
63499.48649757788,11017.0
63499.496500347814,10960.0
63499.50650311776,10997.0
63499.5165058877,10980.0
63499.52650865764,10988.0
63499.536511427585,10998.0
63499.54651419752,10991.0
63499.55651696747,10970.0
63499.566519737404,10984.0
63499.57652250735,10946.0
63499.586525277286,10980.0
63499.59652804723,10940.0
63499.60653081717,10980.0
63499.61653358711,10946.0
63499.62653635705,10963.0
63499.636539126994,10946.0
63499.64654189693,10968.0
63499.656544666876,10948.0
63499.66654743681,10987.0
63499.67655020676,10947.0
63499.686552976695,10974.0
63499.69655574664,10973.0
63499.70655851658,10959.0
63499.71656128652,11005.0
63499.726564056466,10979.0
63499.7365668264,10985.0
63499.74656959635,11026.0
63499.756572366285,10991.0
63499.76657513623,11015.0
63499.77657790617,11028.0
63499.78658067611,11018.0
63499.79658344605,11013.0
63499.80658621599,11033.0
63499.81658898593,11000.0
63499.826591755875,11052.0
63499.83659452581,11059.0
63499.84659729576,11061.0
63499.856600065694,11060.0
63499.86660283564,11078.0
63499.876605605576,11064.0
63499.88660837552,11079.0
63499.89661114546,11078.0
63499.9066139154,11065.0
63499.91661668535,11075.0
63499.926619455284,11108.0
63499.93662222523,11116.0
63499.946624995166,11108.0
63499.95662776511,11122.0
63499.96663053505,11124.0
63499.97663330499,11138.0
63499.98663607493,11145.0
63499.996638844874,11171.0
63500.00664161481,11148.0
63500.016644384756,11154.0
63500.02664715469,11192.0
63500.03664992464,11162.0
63500.046652694575,11184.0
63500.05665546452,11198.0
63500.06665823446,11173.0
63500.0766610044,11211.0
63500.08666377434,11212.0
63500.09666654428,11211.0
63500.10666931422,11212.0
63500.116672084165,11167.0
63500.12667485411,11171.0
63500.13667762405,11183.0
63500.14668039399,11104.0
63500.15668316393,11116.0
63500.16668593387,11058.0
63500.17668870381,10997.0
63500.186691473755,10987.0
63500.19669424369,10954.0
63500.20669701364,10939.0
63500.216699783574,10932.0
63500.22670255352,10890.0
63500.236705323456,10904.0
63500.2467080934,10864.0
63500.25671086334,10850.0
63500.26671363328,10864.0
63500.27671640322,10829.0
63500.286719173164,10836.0
63500.2967219431,10812.0
63500.306724713046,10801.0
63500.31672748299,10818.0
63500.32673025293,10809.0
63500.33673302287,10796.0
63500.34673579281,10830.0
63500.356738562754,10807.0
63500.36674133269,10795.0
63500.376744102636,10802.0
63500.38674687257,10819.0
63500.39674964252,10786.0
63500.406752412455,10856.0
63500.4167551824,10809.0
63500.42675795234,10821.0
63500.43676072228,10788.0
63500.44676349222,10779.0
63500.45676626216,10797.0
63500.4667690321,10811.0
63500.476771802045,10774.0
63500.48677457198,10804.0
63500.49677734193,10792.0
63500.50678011187,10787.0
63500.51678288181,10807.0
63500.52678565175,10790.0
63500.53678842169,10796.0
63500.546791191635,10812.0
63500.55679396157,10798.0
63500.56679673152,10828.0
63500.576799501454,10828.0
63500.5868022714,10818.0
63500.596805041336,10854.0
63500.60680781128,10830.0
63500.61681058122,10853.0
63500.62681335116,10851.0
63500.6368161211,10866.0
63500.646818891044,10873.0
63500.65682166098,10883.0
63500.666824430926,10878.0
63500.67682720086,10920.0
63500.68682997081,10887.0
63500.69683274075,10913.0
63500.70683551069,10935.0
63500.716838280634,10912.0
63500.72684105057,10946.0
63500.736843820516,10936.0
63500.74684659045,10937.0
63500.7568493604,10963.0
63500.766852130335,10940.0
63500.77685490028,10963.0
63500.78685767022,10949.0
63500.79686044016,10972.0
63500.8068632101,10988.0
63500.81686598004,10989.0
63500.82686874998,10980.0
63500.836871519925,11001.0
63500.84687428986,11000.0
63500.85687705981,11017.0
63500.866879829744,11006.0
63500.87688259969,11018.0
63500.88688536963,11028.0
63500.89688813957,11047.0
63500.906890909515,11077.0
63500.91689367945,11091.0
63500.9268964494,11070.0
63500.936899219334,11051.0
63500.94690198928,11123.0
63500.956904759216,11107.0
63500.96690752916,11085.0
63500.9769102991,11110.0
63500.98691306904,11139.0
63500.99691583898,11091.0
63501.006918608924,11155.0
63501.01692137886,11140.0
63501.026924148806,11144.0
63501.03692691874,11153.0
63501.04692968869,11173.0
63501.056932458625,11160.0
63501.06693522857,11152.0
63501.07693799851,11127.0
63501.08694076845,11137.0
63501.096943538396,11098.0
63501.10694630833,11055.0
63501.11694907828,11055.0
63501.126951848215,11010.0
63501.13695461816,10964.0
63501.1469573881,10907.0
63501.15696015804,10891.0
63501.16696292798,10851.0
63501.17696569792,10828.0
63501.18696846786,10842.0
63501.196971237805,10844.0
63501.20697400774,10805.0
63501.21697677769,10807.0
63501.226979547624,10787.0
63501.23698231757,10774.0
63501.246985087506,10748.0
63501.25698785745,10734.0
63501.26699062739,10757.0
63501.27699339733,10716.0
63501.28699616728,10724.0
63501.296998937214,10714.0
63501.30700170716,10725.0
63501.317004477096,10718.0
63501.32700724704,10746.0
63501.33701001698,10701.0
63501.34701278692,10721.0
63501.35701555686,10733.0
63501.367018326804,10750.0
63501.37702109674,10725.0
63501.387023866686,10736.0
63501.39702663662,10721.0
63501.40702940657,10701.0
63501.417032176505,10737.0
63501.42703494645,10708.0
63501.43703771639,10736.0
63501.44704048633,10702.0
63501.45704325627,10714.0
63501.46704602621,10747.0
63501.47704879615,10742.0
63501.487051566095,10715.0
63501.49705433604,10756.0
63501.50705710598,10722.0
63501.51705987592,10724.0
63501.52706264586,10748.0
63501.5370654158,10769.0
63501.54706818574,10750.0
63501.557070955685,10772.0
63501.56707372562,10769.0
63501.57707649557,10768.0
63501.587079265504,10787.0
63501.59708203545,10790.0
63501.607084805386,10810.0
63501.61708757533,10811.0
63501.62709034527,10811.0
63501.63709311521,10821.0
63501.64709588515,10823.0
63501.657098655094,10841.0
63501.66710142503,10834.0
63501.677104194976,10865.0
63501.68710696492,10864.0
63501.69710973486,10877.0
63501.7071125048,10871.0
63501.71711527474,10872.0
63501.727118044684,10895.0
63501.73712081462,10918.0
63501.747123584566,10905.0
63501.7571263545,10901.0
63501.76712912445,10913.0
63501.777131894385,10950.0
63501.78713466433,10925.0
63501.79713743427,10972.0
63501.80714020421,10951.0
63501.81714297415,10956.0
63501.82714574409,10968.0
63501.83714851403,10959.0
63501.847151283975,11011.0
63501.85715405391,10992.0
63501.86715682386,10984.0
63501.8771595938,11006.0
63501.88716236374,11040.0
63501.89716513368,11006.0
63501.90716790362,11039.0
63501.917170673565,11033.0
63501.9271734435,11033.0
63501.93717621345,11057.0
63501.947178983384,11065.0
63501.95718175333,11103.0
63501.967184523266,11062.0
63501.97718729321,11105.0
63501.98719006315,11121.0
63501.99719283309,11111.0
63502.00719560303,11111.0
63502.017198372974,11153.0
63502.02720114291,11126.0
63502.037203912856,11155.0
63502.04720668279,11134.0
63502.05720945274,11169.0
63502.06721222268,11191.0
63502.07721499262,11187.0
63502.087217762564,11210.0
63502.0972205325,11202.0
63502.107223302446,11211.0
63502.11722607238,11204.0
63502.12722884233,11219.0
63502.137231612265,11175.0
63502.14723438221,11122.0
63502.15723715215,11126.0
63502.16723992209,11075.0
63502.17724269203,11051.0
63502.18724546197,11035.0
63502.19724823191,10996.0
63502.207251001855,10959.0
63502.21725377179,10964.0
63502.22725654174,10912.0
63502.237259311674,10918.0
63502.24726208162,10902.0
63502.25726485156,10884.0
63502.2672676215,10913.0
63502.277270391445,10855.0
63502.28727316138,10858.0
63502.29727593133,10882.0
63502.307278701264,10875.0
63502.31728147121,10844.0
63502.327284241146,10847.0
63502.33728701109,10826.0
63502.34728978103,10860.0
63502.35729255097,10824.0
63502.36729532091,10786.0
63502.377298090854,10839.0
63502.38730086079,10805.0
63502.397303630736,10827.0
63502.40730640067,10799.0
63502.41730917062,10798.0
63502.427311940555,10804.0
63502.4373147105,10805.0
63502.44731748044,10796.0
63502.45732025038,10848.0
63502.467323020326,10812.0
63502.47732579026,10797.0
63502.48732856021,10797.0
63502.497331330145,10774.0
63502.50733410009,10822.0
63502.51733687003,10814.0
63502.52733963997,10790.0
63502.53734240991,10825.0
63502.54734517985,10789.0
63502.55734794979,10815.0
63502.567350719735,10857.0
63502.57735348967,10826.0
63502.58735625962,10858.0
63502.597359029554,10845.0
63502.6073617995,10883.0
63502.617364569436,10877.0
63502.62736733938,10845.0
63502.63737010932,10876.0
63502.64737287926,10865.0
63502.65737564921,10880.0
63502.667378419144,10897.0
63502.67738118909,10906.0
63502.687383959026,10896.0
63502.69738672897,10932.0
63502.70738949891,10903.0
63502.71739226885,10913.0
63502.72739503879,10929.0
63502.737397808734,10916.0
63502.74740057867,10926.0
63502.757403348616,10969.0
63502.76740611855,10967.0
63502.7774088885,10963.0
63502.787411658435,10990.0
63502.79741442838,10938.0
63502.80741719832,10987.0
63502.81741996826,11001.0
63502.8274227382,10997.0
63502.83742550814,11024.0
63502.84742827808,11011.0
63502.857431048025,11018.0
63502.86743381797,11062.0
63502.87743658791,11033.0
63502.88743935785,11042.0
63502.89744212779,11036.0
63502.90744489773,11078.0
63502.91744766767,11084.0
63502.927450437615,11059.0
63502.93745320755,11066.0
63502.9474559775,11109.0
63502.957458747434,11087.0
63502.96746151738,11102.0
63502.977464287316,11121.0
63502.98746705726,11108.0
63502.9974698272,11151.0
63503.00747259714,11135.0
63503.01747536708,11141.0
63503.027478137024,11169.0
63503.03748090696,11147.0
63503.047483676906,11167.0
63503.05748644685,11235.0
63503.06748921679,11167.0
63503.07749198673,11204.0
63503.08749475667,11170.0
63503.097497526614,11150.0
63503.10750029655,11144.0
63503.117503066496,11077.0
63503.12750583643,11075.0
63503.13750860638,11050.0
63503.147511376315,11011.0
63503.15751414626,11024.0
63503.1675169162,10971.0
63503.17751968614,10956.0
63503.18752245608,10941.0
63503.19752522602,10913.0
63503.20752799596,10923.0
63503.217530765905,10917.0
63503.22753353584,10906.0
63503.23753630579,10883.0
63503.24753907573,10905.0
63503.25754184567,10939.0
63503.26754461561,10887.0
63503.27754738555,10895.0
63503.287550155495,10892.0
63503.29755292543,10896.0
63503.30755569538,10892.0
63503.317558465315,10902.0
63503.32756123526,10908.0
63503.337564005196,10885.0
63503.34756677514,10873.0
63503.35756954508,10925.0
63503.36757231502,10906.0
63503.37757508496,10896.0
63503.387577854905,10900.0
63503.39758062484,10909.0
63503.407583394786,10895.0
63503.41758616472,10875.0
63503.42758893467,10875.0
63503.43759170461,10923.0
63503.44759447455,10893.0
63503.457597244495,10898.0
63503.46760001443,10919.0
63503.477602784376,10931.0
63503.48760555431,10903.0
63503.49760832426,10914.0
63503.507611094195,10882.0
63503.51761386414,10935.0
63503.52761663408,10906.0
63503.53761940402,10926.0
63503.54762217396,10968.0
63503.557624943904,10952.0
63503.56762771384,10972.0
63503.577630483785,10979.0
63503.58763325372,10940.0
63503.59763602367,10998.0
63503.607638793605,10963.0
63503.61764156355,10997.0
63503.627644333494,11008.0
63503.63764710343,10991.0
63503.647649873375,11045.0
63503.65765264331,11026.0
63503.66765541326,11038.0
63503.677658183195,11027.0
63503.68766095314,11021.0
63503.69766372308,11041.0
63503.70766649302,11072.0
63503.71766926296,11052.0
63503.7276720329,11068.0
63503.73767480284,11071.0
63503.747677572785,11080.0
63503.75768034272,11078.0
63503.76768311267,11097.0
63503.777685882604,11094.0
63503.78768865255,11106.0
63503.797691422486,11091.0
63503.80769419243,11120.0
63503.81769696237,11123.0
63503.82769973231,11131.0
63503.83770250226,11131.0
63503.847705272194,11152.0
63503.85770804214,11155.0
63503.867710812076,11167.0
63503.87771358202,11183.0
63503.88771635196,11175.0
63503.8977191219,11191.0
63503.90772189184,11232.0
63503.917724661784,11224.0
63503.92772743172,11214.0
63503.937730201666,11228.0
63503.9477329716,11232.0
63503.95773574155,11259.0
63503.967738511485,11218.0
63503.97774128143,11219.0
63503.98774405137,11163.0
63503.99774682131,11163.0
63504.00774959125,11158.0
63504.01775236119,11119.0
63504.02775513114,11072.0
63504.037757901075,11093.0
63504.04776067102,11050.0
63504.05776344096,11013.0
63504.0677662109,11002.0
63504.07776898084,10997.0
63504.08777175078,10980.0
63504.09777452072,10952.0
63504.107777290665,10939.0
63504.1177800606,10950.0
63504.12778283055,10914.0
63504.137785600484,10917.0
63504.14778837043,10925.0
63504.157791140366,10879.0
63504.16779391031,10904.0
63504.17779668025,10888.0
63504.18779945019,10870.0
63504.19780222013,10877.0
63504.207804990074,10880.0
63504.21780776001,10869.0
63504.227810529956,10882.0
63504.2378132999,10846.0
63504.24781606984,10875.0
63504.25781883978,10890.0
63504.26782160972,10883.0
63504.277824379664,10875.0
63504.2878271496,10871.0
63504.297829919546,10876.0
63504.30783268948,10883.0
63504.31783545943,10854.0
63504.327838229365,10876.0
63504.33784099931,10901.0
63504.34784376925,10865.0
63504.35784653919,10850.0
63504.36784930913,10871.0
63504.37785207907,10868.0
63504.38785484901,10882.0
63504.397857618955,10882.0
63504.40786038889,10898.0
63504.41786315884,10870.0
63504.42786592878,10889.0
63504.43786869872,10866.0
63504.44787146866,10923.0
63504.4578742386,10905.0
63504.467877008545,10911.0
63504.47787977848,10927.0
63504.48788254843,10915.0
63504.497885318364,10946.0
63504.50788808831,10935.0
63504.517890858246,10950.0
63504.52789362819,10941.0
63504.53789639813,10953.0
63504.54789916807,10962.0
63504.55790193801,10961.0
63504.567904707954,10973.0
63504.57790747789,10982.0
63504.587910247836,10986.0
63504.59791301777,11011.0
63504.60791578772,11000.0
63504.61791855766,10998.0
63504.6279213276,11015.0
63504.637924097544,11018.0
63504.64792686748,11010.0
63504.657929637426,11050.0
63504.66793240736,11027.0
63504.67793517731,11028.0
63504.687937947245,11060.0
63504.69794071719,11068.0
63504.70794348713,11068.0
63504.71794625707,11076.0
63504.72794902701,11072.0
63504.73795179695,11097.0
63504.74795456689,11083.0
63504.757957336835,11088.0
63504.76796010677,11088.0
63504.77796287672,11120.0
63504.787965646654,11092.0
63504.7979684166,11118.0
63504.80797118654,11124.0
63504.81797395648,11146.0
63504.827976726425,11153.0
63504.83797949636,11168.0
63504.84798226631,11152.0
63504.857985036244,11186.0
63504.86798780619,11182.0
63504.877990576126,11179.0
63504.88799334607,11200.0
63504.89799611601,11218.0
63504.90799888595,11200.0
63504.91800165589,11179.0
63504.928004425834,11179.0
63504.93800719577,11183.0
63504.948009965716,11157.0
63504.95801273565,11121.0
63504.9680155056,11096.0
63504.978018275535,11044.0
63504.98802104548,11015.0
63504.998023815424,11002.0
63505.00802658536,10942.0
63505.018029355306,10931.0
63505.02803212524,10913.0
63505.03803489519,10886.0
63505.048037665125,10901.0
63505.05804043507,10881.0
63505.06804320501,10837.0
63505.07804597495,10871.0
63505.08804874489,10817.0
63505.09805151483,10803.0
63505.10805428477,10785.0
63505.118057054715,10807.0
63505.12805982465,10800.0
63505.1380625946,10769.0
63505.148065364534,10751.0
63505.15806813448,10765.0
63505.168070904416,10773.0
63505.17807367436,10740.0
63505.1880764443,10805.0
63505.19807921424,10764.0
63505.20808198419,10740.0
63505.218084754124,10740.0
63505.22808752407,10745.0
63505.238090294006,10769.0
63505.24809306395,10757.0
63505.25809583389,10724.0
63505.26809860383,10731.0
63505.27810137377,10745.0
63505.288104143714,10740.0
63505.29810691365,10750.0
63505.308109683596,10736.0
63505.31811245353,10756.0
63505.32811522348,10769.0
63505.338117993415,10761.0
63505.34812076336,10752.0
63505.3581235333,10755.0
63505.36812630324,10752.0
63505.37812907318,10731.0
63505.38813184312,10762.0
63505.39813461307,10765.0
63505.408137383005,10776.0
63505.41814015295,10770.0
63505.42814292289,10790.0
63505.43814569283,10795.0
63505.44814846277,10781.0
63505.45815123271,10806.0
63505.46815400265,10808.0
63505.478156772595,10812.0
63505.48815954253,10816.0
63505.49816231248,10846.0
63505.508165082414,10830.0
63505.51816785236,10834.0
63505.528170622296,10856.0
63505.53817339224,10873.0
63505.54817616218,10884.0
63505.55817893212,10881.0
63505.56818170206,10886.0
63505.578184472004,10899.0
63505.58818724194,10889.0
63505.598190011886,10910.0
63505.60819278183,10940.0
63505.61819555177,10893.0
63505.62819832171,10955.0
63505.63820109165,10934.0
63505.648203861594,10931.0
63505.65820663153,10959.0
63505.668209401476,10938.0
63505.67821217141,10960.0
63505.68821494136,10988.0
63505.698217711295,10963.0
63505.70822048124,11015.0
63505.71822325118,11004.0
63505.72822602112,10989.0
63505.73822879106,11023.0
63505.748231561,11013.0
63505.75823433094,11027.0
63505.768237100885,11048.0
63505.77823987082,11018.0
63505.78824264077,11074.0
63505.79824541071,11065.0
63505.80824818065,11072.0
63505.81825095059,11088.0
63505.82825372053,11067.0
63505.838256490475,11098.0
63505.84825926041,11112.0
63505.85826203036,11107.0
63505.868264800294,11123.0
63505.87826757024,11111.0
63505.888270340176,11162.0
63505.89827311012,11168.0
63505.90827588006,11155.0
63505.91827865,11140.0
63505.92828141994,11136.0
63505.938284189884,11112.0
63505.94828695982,11106.0
63505.958289729766,11067.0
63505.9682924997,11036.0
63505.97829526965,11011.0
63505.98829803959,10977.0
63505.99830080953,10958.0
63506.008303579474,10937.0
63506.01830634941,10915.0
63506.028309119356,10906.0
63506.03831188929,10877.0
63506.04831465924,10882.0
63506.058317429175,10879.0
63506.06832019912,10849.0
63506.07832296906,10854.0
63506.088325739,10855.0
63506.09832850894,10886.0
63506.10833127888,10838.0
63506.11833404882,10833.0
63506.128336818765,10833.0
63506.1383395887,10824.0
63506.14834235865,10839.0
63506.158345128584,10826.0
63506.16834789853,10830.0
63506.17835066847,10845.0
63506.18835343841,10812.0
63506.198356208355,10833.0
63506.20835897829,10827.0
63506.21836174824,10823.0
63506.228364518174,10861.0
63506.23836728812,10822.0
63506.248370058056,10822.0
63506.258372828,10863.0
63506.26837559794,10816.0
63506.27837836788,10857.0
63506.28838113782,10843.0
63506.298383907764,10822.0
63506.3083866777,10856.0
63506.318389447646,10825.0
63506.32839221758,10844.0
63506.33839498753,10857.0
63506.348397757465,10849.0
63506.35840052741,10867.0
63506.368403297354,10875.0
63506.37840606729,10869.0
63506.388408837236,10897.0
63506.39841160717,10882.0
63506.40841437712,10893.0
63506.418417147055,10922.0
63506.428419917,10895.0
63506.43842268694,10947.0
63506.44842545688,10927.0
63506.45842822682,10911.0
63506.46843099676,10924.0
63506.4784337667,10960.0
63506.488436536645,10965.0
63506.49843930658,10977.0
63506.50844207653,10957.0
63506.518444846464,10981.0
63506.52844761641,11000.0
63506.538450386346,11009.0
63506.54845315629,11036.0
63506.55845592623,10999.0
63506.56845869617,11024.0
63506.57846146612,11009.0
63506.588464236054,11064.0
63506.598467006,11044.0
63506.608469775936,11052.0
63506.61847254588,11082.0
63506.62847531582,11102.0
63506.63847808576,11095.0
63506.6484808557,11085.0
63506.658483625644,11107.0
63506.66848639558,11096.0
63506.678489165526,11112.0
63506.68849193546,11159.0
63506.69849470541,11148.0
63506.708497475345,11146.0
63506.71850024529,11185.0
63506.72850301523,11171.0
63506.73850578517,11187.0
63506.74850855511,11184.0
63506.75851132505,11186.0
63506.768514095,11238.0
63506.778516864935,11257.0
63506.78851963488,11243.0
63506.79852240482,11253.0
63506.80852517476,11245.0
63506.8185279447,11267.0
63506.82853071464,11275.0
63506.83853348458,11263.0
63506.848536254525,11271.0
63506.85853902446,11273.0
63506.86854179441,11247.0
63506.878544564344,11278.0
63506.88854733429,11199.0
63506.898550104226,11205.0
63506.90855287417,11193.0
63506.91855564411,11178.0
63506.92855841405,11169.0
63506.93856118399,11146.0
63506.948563953934,11119.0
63506.95856672387,11127.0
63506.968569493816,11118.0
63506.97857226376,11125.0
63506.9885750337,11124.0
63506.99857780364,11109.0
63507.00858057358,11109.0
63507.018583343524,11107.0
63507.02858611346,11110.0
63507.038588883406,11098.0
63507.04859165334,11100.0
63507.05859442329,11108.0
63507.068597193225,11085.0
63507.07859996317,11130.0
63507.08860273311,11125.0
63507.09860550305,11131.0
63507.10860827299,11118.0
63507.11861104293,11119.0
63507.12861381287,11149.0
63507.138616582815,11131.0
63507.14861935275,11146.0
63507.1586221227,11124.0
63507.16862489264,11131.0
63507.17862766258,11162.0
63507.18863043252,11177.0
63507.19863320246,11143.0
63507.208635972405,11171.0
63507.21863874234,11156.0
63507.22864151229,11166.0
63507.238644282224,11141.0
63507.24864705217,11157.0
63507.258649822106,11175.0
63507.26865259205,11167.0
63507.27865536199,11185.0
63507.28865813193,11220.0
63507.29866090187,11200.0
63507.308663671814,11211.0
63507.31866644175,11251.0
63507.328669211696,11218.0
63507.33867198163,11242.0
63507.34867475158,11225.0
63507.35867752152,11267.0
63507.36868029146,11260.0
63507.378683061404,11271.0
63507.38868583134,11257.0
63507.398688601286,11307.0
63507.40869137122,11286.0
63507.41869414117,11297.0
63507.428696911105,11328.0
63507.43869968105,11314.0
63507.44870245099,11342.0
63507.45870522093,11335.0
63507.46870799087,11374.0
63507.47871076081,11370.0
63507.48871353075,11359.0
63507.498716300695,11394.0
63507.50871907063,11374.0
63507.51872184058,11381.0
63507.528724610514,11394.0
63507.53872738046,11402.0
63507.5487301504,11409.0
63507.55873292034,11426.0
63507.568735690285,11418.0
63507.57873846022,11452.0
63507.58874123017,11450.0
63507.598744000104,11447.0
63507.60874677005,11497.0
63507.618749539986,11483.0
63507.62875230993,11494.0
63507.63875507987,11486.0
63507.64875784981,11519.0
63507.65876061975,11521.0
63507.668763389695,11525.0
63507.67876615963,11554.0
63507.688768929576,11549.0
63507.69877169951,11551.0
63507.70877446946,11550.0
63507.718777239395,11567.0
63507.72878000934,11558.0
63507.738782779285,11568.0
63507.74878554922,11602.0
63507.758788319166,11622.0
63507.7687910891,11616.0
63507.77879385905,11601.0
63507.788796628985,11626.0
63507.79879939893,11613.0
63507.80880216887,11636.0
63507.81880493881,11589.0
63507.82880770875,11589.0
63507.83881047869,11599.0
63507.84881324863,11536.0
63507.858816018575,11568.0
63507.86881878851,11512.0
63507.87882155846,11521.0
63507.888824328395,11459.0
63507.89882709834,11499.0
63507.90882986828,11466.0
63507.91883263822,11453.0
63507.92883540816,11434.0
63507.9388381781,11438.0
63507.94884094805,11434.0
63507.958843717985,11459.0
63507.96884648793,11450.0
63507.97884925787,11431.0
63507.98885202781,11419.0
63507.99885479775,11398.0
63508.00885756769,11405.0
63508.01886033763,11391.0
63508.028863107575,11395.0
63508.03886587751,11419.0
63508.04886864746,11383.0
63508.058871417394,11405.0
63508.06887418734,11396.0
63508.078876957275,11385.0
63508.08887972722,11401.0
63508.09888249716,11420.0
63508.1088852671,11396.0
63508.11888803704,11382.0
63508.128890806984,11376.0
63508.13889357693,11437.0
63508.148896346866,11408.0
63508.15889911681,11417.0
63508.16890188675,11425.0
63508.17890465669,11421.0
63508.18890742663,11412.0
63508.198910196574,11413.0
63508.20891296651,11430.0
63508.218915736456,11395.0
63508.22891850639,11403.0
63508.23892127634,11447.0
63508.248924046275,11447.0
63508.25892681622,11416.0
63508.26892958616,11431.0
63508.2789323561,11426.0
63508.28893512604,11440.0
63508.29893789598,11457.0
63508.30894066592,11481.0
63508.318943435865,11458.0
63508.3289462058,11457.0
63508.33894897575,11503.0
63508.34895174569,11450.0
63508.35895451563,11491.0
63508.36895728557,11521.0
63508.37896005551,11510.0
63508.388962825455,11489.0
63508.39896559539,11514.0
63508.40896836534,11515.0
63508.418971135274,11542.0
63508.42897390522,11532.0
63508.438976675156,11534.0
63508.4489794451,11526.0
63508.45898221504,11535.0
63508.46898498498,11568.0
63508.47898775492,11556.0
63508.488990524864,11578.0
63508.4989932948,11580.0
63508.508996064746,11569.0
63508.51899883468,11590.0
63508.52900160463,11611.0
63508.53900437457,11597.0
63508.54900714451,11595.0
63508.559009914454,11621.0
63508.56901268439,11609.0
63508.579015454336,11643.0
63508.58901822427,11657.0
63508.59902099422,11646.0
63508.609023764155,11657.0
63508.6190265341,11631.0
63508.62902930404,11646.0
63508.63903207398,11653.0
63508.64903484392,11677.0
63508.65903761386,11683.0
63508.6690403838,11690.0
63508.679043153745,11699.0
63508.68904592368,11707.0
63508.69904869363,11692.0
63508.709051463564,11711.0
63508.71905423351,11733.0
63508.72905700345,11733.0
63508.73905977339,11747.0
63508.749062543335,11756.0
63508.75906531327,11743.0
63508.76906808322,11789.0
63508.779070853154,11793.0
63508.7890736231,11761.0
63508.799076393036,11789.0
63508.80907916298,11773.0
63508.81908193292,11774.0
63508.82908470286,11786.0
63508.8390874728,11787.0
63508.849090242744,11799.0
63508.85909301268,11778.0
63508.869095782626,11738.0
63508.87909855256,11723.0
63508.88910132251,11700.0
63508.899104092445,11711.0
63508.90910686239,11638.0
63508.919109632334,11626.0
63508.92911240227,11589.0
63508.939115172216,11618.0
63508.94911794215,11539.0
63508.9591207121,11552.0
63508.969123482035,11548.0
63508.97912625198,11526.0
63508.98912902192,11506.0
63508.99913179186,11496.0
63509.0091345618,11488.0
63509.01913733174,11473.0
63509.02914010168,11462.0
63509.039142871625,11502.0
63509.04914564156,11437.0
63509.05914841151,11425.0
63509.069151181444,11452.0
63509.07915395139,11388.0
63509.089156721326,11404.0
63509.09915949127,11422.0
63509.109162261215,11383.0
63509.11916503115,11406.0
63509.1291678011,11377.0
63509.139170571034,11371.0
63509.14917334098,11396.0
63509.159176110916,11357.0
63509.16917888086,11366.0
63509.1791816508,11363.0
63509.18918442074,11330.0
63509.19918719068,11383.0
63509.209189960624,11337.0
63509.21919273056,11365.0
63509.229195500506,11358.0
63509.23919827044,11343.0
63509.24920104039,11351.0
63509.259203810325,11364.0
63509.26920658027,11358.0
63509.27920935021,11353.0
63509.28921212015,11340.0
63509.29921489009,11341.0
63509.30921766003,11335.0
63509.31922042998,11343.0
63509.329223199915,11358.0
63509.33922596986,11369.0
63509.3492287398,11355.0
63509.35923150974,11368.0
63509.36923427968,11359.0
63509.37923704962,11360.0
63509.38923981956,11356.0
63509.399242589505,11360.0
63509.40924535944,11377.0
63509.41924812939,11375.0
63509.429250899324,11361.0
63509.43925366927,11374.0
63509.449256439206,11384.0
63509.45925920915,11397.0
63509.46926197909,11395.0
63509.47926474903,11417.0
63509.48926751897,11406.0
63509.499270288914,11376.0
63509.50927305886,11392.0
63509.519275828796,11431.0
63509.52927859874,11414.0
63509.53928136868,11461.0
63509.54928413862,11417.0
63509.55928690856,11450.0
63509.569289678504,11432.0
63509.57929244844,11458.0
63509.589295218386,11481.0
63509.59929798832,11449.0
63509.60930075827,11461.0
63509.619303528205,11474.0
63509.62930629815,11471.0
63509.63930906809,11478.0
63509.64931183803,11480.0
63509.65931460797,11482.0
63509.66931737791,11518.0
63509.67932014785,11487.0
63509.689322917795,11508.0
63509.69932568773,11512.0
63509.70932845768,11488.0
63509.71933122762,11555.0
63509.72933399756,11534.0
63509.7393367675,11535.0
63509.74933953744,11558.0
63509.759342307385,11534.0
63509.76934507732,11557.0
63509.77934784727,11559.0
63509.789350617204,11548.0
63509.79935338715,11554.0
63509.809356157086,11560.0
63509.81935892703,11604.0
63509.82936169697,11634.0
63509.83936446691,11593.0
63509.84936723685,11594.0
63509.859370006794,11602.0
63509.86937277673,11603.0
63509.879375546676,11599.0
63509.88937831661,11561.0
63509.89938108656,11555.0
63509.9093838565,11550.0
63509.91938662644,11485.0
63509.929389396384,11481.0
63509.93939216632,11414.0
63509.949394936266,11389.0
63509.9593977062,11344.0
63509.96940047615,11314.0
63509.979403246085,11287.0
63509.98940601603,11269.0
63509.99940878597,11272.0
63510.00941155591,11214.0
63510.01941432585,11210.0
63510.02941709579,11197.0
63510.03941986573,11175.0
63510.049422635675,11178.0
63510.05942540561,11146.0
63510.06942817556,11121.0
63510.079430945494,11131.0
63510.08943371544,11081.0
63510.09943648538,11107.0
63510.10943925532,11060.0
63510.119442025265,11054.0
63510.1294447952,11081.0
63510.13944756515,11059.0
63510.149450335084,11026.0
63510.15945310503,11077.0
63510.169455874966,11027.0
63510.17945864491,11033.0
63510.18946141485,11026.0
63510.19946418479,11013.0
63510.20946695473,10987.0
63510.219469724674,11000.0
63510.22947249461,10962.0
63510.239475264556,10986.0
63510.24947803449,10964.0
63510.25948080444,10965.0
63510.269483574375,10971.0
63510.27948634432,10927.0
63510.289489114264,10937.0
63510.2994918842,10955.0
63510.309494654146,10945.0
63510.31949742408,10973.0
63510.32950019403,10934.0
63510.339502963965,10958.0
63510.34950573391,10967.0
63510.35950850385,10955.0
63510.36951127379,10969.0
63510.37951404373,10956.0
63510.38951681367,10967.0
63510.39951958361,10958.0
63510.409522353555,10954.0
63510.41952512349,10986.0
63510.42952789344,10983.0
63510.439530663374,10990.0
63510.44953343332,10992.0
63510.459536203256,10998.0
63510.4695389732,11016.0
63510.479541743145,10988.0
63510.48954451308,11031.0
63510.49954728303,10999.0
63510.509550052964,10992.0
63510.51955282291,11036.0
63510.529555592846,11065.0
63510.53955836279,11039.0
63510.54956113273,11048.0
63510.55956390267,11053.0
63510.56956667261,11087.0
63510.579569442554,11058.0
63510.58957221249,11070.0
63510.599574982436,11076.0
63510.60957775237,11092.0
63510.61958052232,11096.0
63510.629583292255,11072.0
63510.6395860622,11096.0
63510.64958883214,11118.0
63510.65959160208,11087.0
63510.66959437202,11108.0
63510.67959714196,11106.0
63510.68959991191,11124.0
63510.699602681845,11159.0
63510.70960545179,11151.0
63510.71960822173,11142.0
63510.72961099167,11175.0
63510.73961376161,11159.0
63510.74961653155,11176.0
63510.75961930149,11157.0
63510.769622071435,11172.0
63510.77962484137,11202.0
63510.78962761132,11221.0
63510.799630381254,11244.0
63510.8096331512,11245.0
63510.819635921136,11228.0
63510.82963869108,11230.0
63510.83964146102,11233.0
63510.84964423096,11177.0
63510.8596470009,11173.0
63510.869649770844,11129.0
63510.87965254079,11088.0
63510.889655310726,11045.0
63510.89965808067,11024.0
63510.90966085061,10977.0
63510.91966362055,10974.0
63510.92966639049,10921.0
63510.939669160434,10906.0
63510.94967193037,10880.0
63510.959674700316,10883.0
63510.96967747025,10813.0
63510.9796802402,10823.0
63510.989683010135,10818.0
63510.99968578008,10799.0
63511.00968855002,10844.0
63511.01969131996,10799.0
63511.0296940899,10792.0
63511.03969685984,10783.0
63511.04969962978,10773.0
63511.059702399725,10785.0
63511.06970516966,10775.0
63511.07970793961,10769.0
63511.08971070955,10783.0
63511.09971347949,10743.0
63511.10971624943,10763.0
63511.11971901937,10811.0
63511.129721789315,10746.0
63511.13972455925,10774.0
63511.1497273292,10760.0
63511.159730099134,10780.0
63511.16973286908,10765.0
63511.179735639016,10732.0
63511.18973840896,10746.0
63511.1997411789,10757.0
63511.20974394884,10746.0
63511.21974671878,10767.0
63511.229749488724,10744.0
63511.23975225866,10765.0
63511.249755028606,10765.0
63511.25975779854,10781.0
63511.26976056849,10770.0
63511.27976333843,10762.0
63511.28976610837,10781.0
63511.299768878314,10815.0
63511.30977164825,10788.0
63511.319774418196,10777.0
63511.32977718813,10803.0
63511.33977995808,10803.0
63511.349782728015,10791.0
63511.35978549796,10842.0
63511.3697882679,10836.0
63511.37979103784,10847.0
63511.38979380778,10856.0
63511.39979657772,10859.0
63511.40979934766,10862.0
63511.419802117605,10863.0
63511.42980488754,10872.0
63511.43980765749,10898.0
63511.449810427424,10915.0
63511.45981319737,10878.0
63511.46981596731,10900.0
63511.47981873725,10922.0
63511.489821507195,10918.0
63511.49982427713,10957.0
63511.50982704708,10947.0
63511.519829817014,10947.0
63511.52983258696,10962.0
63511.539835356896,10976.0
63511.54983812684,10952.0
63511.55984089678,10967.0
63511.56984366672,10985.0
63511.57984643666,10972.0
63511.589849206604,11027.0
63511.59985197654,11010.0
63511.609854746486,11012.0
63511.61985751642,11046.0
63511.62986028637,11030.0
63511.639863056305,11047.0
63511.64986582625,11059.0
63511.659868596194,11052.0
63511.66987136613,11084.0
63511.679874136076,11083.0
63511.68987690601,11100.0
63511.69987967596,11092.0
63511.709882445895,11088.0
63511.71988521584,11103.0
63511.72988798578,11105.0
63511.73989075572,11123.0
63511.74989352566,11151.0
63511.7598962956,11143.0
63511.76989906554,11142.0
63511.779901835485,11172.0
63511.78990460542,11161.0
63511.79990737537,11189.0
63511.809910145304,11195.0
63511.81991291525,11174.0
63511.829915685186,11189.0
63511.83991845513,11214.0
63511.849921225075,11183.0
63511.85992399501,11191.0
63511.86992676496,11167.0
63511.879929534894,11129.0
63511.88993230484,11112.0
63511.899935074776,11046.0
63511.90993784472,11023.0
63511.91994061466,10980.0
63511.9299433846,10971.0
63511.93994615454,10923.0
63511.949948924484,10892.0
63511.95995169442,10902.0
63511.969954464366,10876.0
63511.9799572343,10846.0
63511.98996000425,10858.0
63511.999962774185,10839.0
63512.00996554413,10831.0
63512.01996831407,10826.0
63512.02997108401,10797.0
63512.03997385395,10807.0
63512.04997662389,10803.0
63512.05997939384,10811.0
63512.069982163775,10779.0
63512.07998493372,10772.0
63512.08998770366,10774.0
63512.0999904736,10758.0
63512.10999324354,10796.0
63512.11999601348,10782.0
63512.12999878342,10766.0
63512.140001553365,10778.0
63512.1500043233,10760.0
63512.16000709325,10751.0
63512.170009863185,10789.0
63512.18001263313,10768.0
63512.190015403066,10791.0
63512.20001817301,10783.0
63512.21002094295,10769.0
63512.22002371289,10756.0
63512.23002648283,10770.0
63512.240029252775,10752.0
63512.25003202272,10772.0
63512.26003479266,10768.0
63512.2700375626,10762.0
63512.28004033254,10765.0
63512.29004310248,10784.0
63512.30004587242,10763.0
63512.310048642365,10788.0
63512.3200514123,10792.0
63512.33005418225,10820.0
63512.340056952184,10811.0
63512.35005972213,10824.0
63512.360062492065,10831.0
63512.37006526201,10843.0
63512.38006803195,10859.0
63512.39007080189,10850.0
63512.40007357183,10882.0
63512.410076341774,10869.0
63512.42007911171,10855.0
63512.430081881655,10875.0
63512.4400846516,10907.0
63512.45008742154,10906.0
63512.46009019148,10936.0
63512.47009296142,10908.0
63512.480095731364,10949.0
63512.4900985013,10933.0
63512.500101271246,10929.0
63512.51010404118,10971.0
63512.52010681113,10939.0
63512.530109581065,10962.0
63512.54011235101,10970.0
63512.55011512095,10965.0
63512.56011789089,10996.0
63512.57012066083,11001.0
63512.58012343077,10995.0
63512.59012620071,10988.0
63512.600128970655,11011.0
63512.61013174059,11020.0
63512.62013451054,11043.0
63512.630137280474,11017.0
63512.64014005042,11025.0
63512.65014282036,11058.0
63512.6601455903,11101.0
63512.670148360245,11083.0
63512.68015113018,11084.0
63512.69015390013,11095.0
63512.700156670064,11104.0
63512.71015944001,11108.0
63512.720162209946,11112.0
63512.73016497989,11128.0
63512.74016774983,11125.0
63512.75017051977,11130.0
63512.76017328971,11172.0
63512.770176059654,11169.0
63512.78017882959,11182.0
63512.790181599536,11200.0
63512.80018436947,11180.0
63512.81018713942,11206.0
63512.820189909355,11224.0
63512.8301926793,11219.0
63512.840195449244,11238.0
63512.85019821918,11225.0
63512.860200989126,11234.0
63512.87020375906,11235.0
63512.88020652901,11237.0
63512.890209298945,11237.0
63512.90021206889,11199.0
63512.91021483883,11163.0
63512.92021760877,11179.0
63512.93022037871,11117.0
63512.94022314865,11113.0
63512.95022591859,11094.0
63512.960228688535,11049.0
63512.97023145847,11050.0
63512.98023422842,11011.0
63512.990236998354,11017.0
63513.0002397683,11002.0
63513.010242538236,10938.0
63513.02024530818,10952.0
63513.030248078125,10965.0
63513.04025084806,10946.0
63513.05025361801,10961.0
63513.060256387944,10944.0
63513.07025915789,10926.0
63513.080261927826,10935.0
63513.09026469777,10925.0
63513.10026746771,10915.0
63513.11027023765,10927.0
63513.12027300759,10892.0
63513.130275777534,10901.0
63513.14027854747,10914.0
63513.150281317416,10932.0
63513.16028408735,10927.0
63513.1702868573,10915.0
63513.180289627235,10919.0
63513.19029239718,10920.0
63513.20029516712,10939.0
63513.21029793706,10919.0
63513.220300707006,10921.0
63513.23030347694,10945.0
63513.24030624689,10897.0
63513.250309016825,10950.0
63513.26031178677,10925.0
63513.27031455671,10930.0
63513.28031732665,10907.0
63513.29032009659,10910.0
63513.30032286653,10938.0
63513.31032563647,10945.0
63513.320328406415,10921.0
63513.33033117635,10964.0
63513.3403339463,10953.0
63513.350336716234,10936.0
63513.36033948618,10993.0
63513.370342256116,10972.0
63513.38034502606,10982.0
63513.390347796,10991.0
63513.40035056594,10993.0
63513.41035333588,11015.0
63513.420356105824,11030.0
63513.43035887577,11042.0
63513.440361645706,11065.0
63513.45036441565,11038.0
63513.46036718559,11067.0
63513.47036995553,11076.0
63513.48037272547,11066.0
63513.490375495414,11092.0
63513.50037826535,11080.0
63513.510381035296,11078.0
63513.52038380523,11089.0
63513.53038657518,11087.0
63513.540389345115,11117.0
63513.55039211506,11155.0
63513.560394885,11108.0
63513.57039765494,11142.0
63513.58040042488,11141.0
63513.59040319482,11143.0
63513.60040596476,11178.0
63513.610408734705,11156.0
63513.62041150465,11189.0
63513.63041427459,11175.0
63513.64041704453,11221.0
63513.65041981447,11203.0
63513.66042258441,11223.0
63513.67042535435,11222.0
63513.680428124295,11250.0
63513.69043089423,11246.0
63513.70043366418,11248.0
63513.710436434114,11281.0
63513.72043920406,11259.0
63513.730441973996,11266.0
63513.74044474394,11316.0
63513.75044751388,11310.0
63513.76045028382,11310.0
63513.77045305376,11344.0
63513.780455823704,11346.0
63513.79045859364,11330.0
63513.800461363586,11333.0
63513.81046413353,11359.0
63513.82046690347,11365.0
63513.83046967341,11373.0
63513.84047244335,11364.0
63513.850475213294,11390.0
63513.86047798323,11361.0
63513.870480753176,11333.0
63513.88048352311,11305.0
63513.89048629306,11299.0
63513.900489062995,11237.0
63513.91049183294,11222.0
63513.92049460288,11210.0
63513.93049737282,11190.0
63513.94050014276,11143.0
63513.9505029127,11162.0
63513.96050568264,11151.0
63513.970508452585,11100.0
63513.98051122252,11110.0
63513.99051399247,11094.0
63514.000516762404,11080.0
63514.01051953235,11085.0
63514.02052230229,11066.0
63514.03052507223,11075.0
63514.040527842175,11086.0
63514.05053061211,11057.0
63514.06053338206,11049.0
63514.070536151994,11049.0
63514.08053892194,11055.0
63514.090541691876,11084.0
63514.10054446182,11042.0
63514.11054723176,11057.0
63514.1205500017,11043.0
63514.13055277164,11033.0
63514.140555541584,11047.0
63514.15055831152,11049.0
63514.160561081466,11064.0
63514.1705638514,11059.0
63514.18056662135,11043.0
63514.190569391285,11046.0
63514.20057216123,11057.0
63514.210574931174,11000.0
63514.22057770111,11050.0
63514.230580471056,11044.0
63514.24058324099,11074.0
63514.25058601094,11039.0
63514.260588780875,11034.0
63514.27059155082,11051.0
63514.28059432076,11050.0
63514.2905970907,11064.0
63514.30059986064,11068.0
63514.31060263058,11074.0
63514.32060540052,11081.0
63514.330608170465,11072.0
63514.3406109404,11110.0
63514.35061371035,11094.0
63514.360616480284,11087.0
63514.37061925023,11109.0
63514.380622020166,11096.0
63514.39062479011,11114.0
63514.400627560055,11130.0
63514.41063032999,11131.0
63514.42063309994,11150.0
63514.430635869874,11153.0
63514.44063863982,11144.0
63514.450641409756,11186.0
63514.4606441797,11159.0
63514.47064694964,11171.0
63514.48064971958,11165.0
63514.49065248952,11177.0
63514.500655259464,11218.0
63514.5106580294,11184.0
63514.520660799346,11205.0
63514.53066356928,11231.0
63514.54066633923,11201.0
63514.550669109165,11215.0
63514.56067187911,11238.0
63514.57067464905,11255.0
63514.58067741899,11257.0
63514.590680188936,11252.0
63514.60068295887,11264.0
63514.61068572882,11250.0
63514.620688498755,11270.0
63514.6306912687,11276.0
63514.64069403864,11286.0
63514.65069680858,11283.0
63514.66069957852,11304.0
63514.67070234846,11300.0
63514.6807051184,11330.0
63514.690707888345,11321.0
63514.70071065828,11334.0
63514.71071342823,11340.0
63514.720716198164,11359.0
63514.73071896811,11408.0
63514.740721738046,11380.0
63514.75072450799,11421.0
63514.76072727793,11386.0
63514.77073004787,11392.0
63514.78073281781,11411.0
63514.790735587754,11414.0
63514.8007383577,11424.0
63514.810741127636,11408.0
63514.82074389758,11456.0
63514.83074666752,11449.0
63514.84074943746,11444.0
63514.8507522074,11431.0
63514.860754977344,11442.0
63514.87075774728,11408.0
63514.880760517226,11425.0
63514.89076328716,11398.0
63514.90076605711,11378.0
63514.910768827045,11314.0
63514.92077159699,11286.0
63514.93077436693,11250.0
63514.94077713687,11230.0
63514.95077990681,11222.0
63514.96078267675,11181.0
63514.97078544669,11152.0
63514.980788216635,11168.0
63514.99079098658,11123.0
63515.00079375652,11128.0
63515.01079652646,11125.0
63515.0207992964,11086.0
63515.03080206634,11107.0
63515.04080483628,11072.0
63515.050807606225,11067.0
63515.06081037616,11065.0
63515.07081314611,11050.0
63515.080815916044,11047.0
63515.09081868599,11039.0
63515.100821455926,11021.0
63515.11082422587,10990.0
63515.12082699581,11017.0
63515.13082976575,11036.0
63515.14083253569,11028.0
63515.150835305634,11008.0
63515.16083807557,10998.0
63515.170840845516,11017.0
63515.18084361546,10966.0
63515.1908463854,10993.0
63515.20084915534,10994.0
63515.21085192528,10974.0
63515.220854695224,10979.0
63515.23085746516,10956.0
63515.240860235106,10978.0
63515.25086300504,10980.0
63515.26086577499,10949.0
63515.270868544925,10975.0
63515.28087131487,10959.0
63515.29087408481,10992.0
63515.30087685475,10976.0
63515.31087962469,10994.0
63515.32088239463,10996.0
63515.33088516457,10990.0
63515.340887934515,10979.0
63515.35089070445,11021.0
63515.3608934744,10990.0
63515.370896244334,11020.0
63515.38089901428,11024.0
63515.39090178422,11019.0
63515.40090455416,11056.0
63515.410907324105,11039.0
63515.42091009404,11063.0
63515.43091286399,11069.0
63515.440915633924,11047.0
63515.45091840387,11067.0
63515.460921173806,11087.0
63515.47092394375,11055.0
63515.48092671369,11086.0
63515.49092948363,11094.0
63515.50093225357,11092.0
63515.510935023514,11123.0
63515.52093779345,11114.0
63515.530940563396,11113.0
63515.54094333333,11118.0
63515.55094610328,11137.0
63515.560948873215,11137.0
63515.57095164316,11138.0
63515.580954413104,11122.0
63515.59095718304,11141.0
63515.600959952986,11134.0
63515.61096272292,11165.0
63515.62096549287,11206.0
63515.630968262805,11200.0
63515.64097103275,11183.0
63515.65097380269,11193.0
63515.66097657263,11205.0
63515.67097934257,11220.0
63515.68098211251,11212.0
63515.69098488245,11229.0
63515.700987652395,11220.0
63515.71099042233,11263.0
63515.72099319228,11287.0
63515.730995962214,11268.0
63515.74099873216,11251.0
63515.751001502096,11286.0
63515.76100427204,11299.0
63515.771007041985,11309.0
63515.78100981192,11302.0
63515.79101258187,11344.0
63515.801015351804,11316.0
63515.81101812175,11346.0
63515.821020891686,11373.0
63515.83102366163,11332.0
63515.84102643157,11377.0
63515.85102920151,11369.0
63515.86103197145,11354.0
63515.871034741394,11365.0
63515.88103751133,11339.0
63515.891040281276,11349.0
63515.90104305121,11348.0
63515.91104582116,11297.0
63515.921048591095,11242.0
63515.93105136104,11223.0
63515.94105413098,11197.0
63515.95105690092,11179.0
63515.961059670866,11119.0
63515.9710624408,11101.0
63515.98106521075,11085.0
63515.991067980685,11050.0
63516.00107075063,11081.0
63516.01107352057,11028.0
63516.02107629051,10999.0
63516.03107906045,11029.0
63516.04108183039,10984.0
63516.05108460033,10992.0
63516.061087370275,10982.0
63516.07109014021,10965.0
63516.08109291016,10977.0
63516.091095680094,10962.0
63516.10109845004,10970.0
63516.111101219976,10969.0
63516.12110398992,10927.0
63516.13110675986,10954.0
63516.1411095298,10937.0
63516.15111229974,10932.0
63516.161115069684,10934.0
63516.17111783963,10929.0
63516.181120609566,10926.0
63516.19112337951,10913.0
63516.20112614945,10923.0
63516.21112891939,10941.0
63516.22113168933,10915.0
63516.231134459274,10891.0
63516.24113722921,10903.0
63516.251139999156,10917.0
63516.26114276909,10899.0
63516.27114553904,10888.0
63516.281148308975,10875.0
63516.29115107892,10874.0
63516.30115384886,10899.0
63516.3111566188,10915.0
63516.32115938874,10910.0
63516.33116215868,10908.0
63516.34116492862,10910.0
63516.351167698565,10912.0
63516.36117046851,10946.0
63516.37117323845,10917.0
63516.38117600839,10932.0
63516.39117877833,10939.0
63516.40118154827,10945.0
63516.41118431821,10977.0
63516.421187088155,10949.0
63516.43118985809,10977.0
63516.44119262804,11002.0
63516.451195397975,10963.0
63516.46119816792,10991.0
63516.471200937856,10984.0
63516.4812037078,10972.0
63516.49120647774,11029.0
63516.50120924768,11013.0
63516.51121201762,11020.0
63516.521214787565,11007.0
63516.5312175575,11047.0
63516.541220327446,11024.0
63516.55122309739,11051.0
63516.56122586733,11019.0
63516.57122863727,11064.0
63516.58123140721,11074.0
63516.591234177155,11073.0
63516.60123694709,11112.0
63516.61123971704,11051.0
63516.621242486974,11084.0
63516.63124525692,11106.0
63516.641248026855,11092.0
63516.6512507968,11106.0
63516.66125356674,11111.0
63516.67125633668,11105.0
63516.68125910662,11129.0
63516.691261876564,11120.0
63516.7012646465,11126.0
63516.711267416445,11154.0
63516.72127018638,11150.0
63516.73127295633,11186.0
63516.741275726265,11176.0
63516.75127849621,11171.0
63516.761281266154,11184.0
63516.77128403609,11176.0
63516.781286806035,11197.0
63516.79128957597,11162.0
63516.80129234592,11207.0
63516.811295115855,11182.0
63516.8212978858,11139.0
63516.83130065574,11085.0
63516.84130342568,11101.0
63516.85130619562,11020.0
63516.86130896556,11009.0
63516.8713117355,10995.0
63516.881314505445,10934.0
63516.89131727538,10905.0
63516.90132004533,11162.0
63516.911322815264,11207.0
63516.92132558521,11182.0
63516.931328355146,11139.0
63516.94133112509,11085.0
63516.951333895035,11101.0
63516.96133666497,11020.0
63516.97133943492,11009.0
63516.981342204854,10995.0
63516.9913449748,10934.0
63517.001347744736,10905.0
63517.01135051468,10916.0
63517.02135328462,10914.0
63517.03135605456,10914.0
63517.0413588245,10865.0
63517.051361594444,10891.0
63517.06136436438,10861.0
63517.071367134326,10859.0
63517.08136990426,10830.0
63517.09137267421,10835.0
63517.101375444145,10833.0
63517.11137821409,10820.0
63517.12138098403,10837.0
63517.13138375397,10826.0
63517.141386523916,10823.0
63517.15138929385,10814.0
63517.1613920638,10819.0
63517.171394833735,10825.0
63517.18139760368,10811.0
63517.19140037362,10791.0
63517.20140314356,10828.0
63517.2114059135,10814.0
63517.22140868344,10802.0
63517.23141145338,10816.0
63517.241414223325,10805.0
63517.25141699326,10820.0
63517.26141976321,10808.0
63517.271422533144,10795.0
63517.28142530309,10818.0
63517.291428073026,10821.0
63517.30143084297,10814.0
63517.31143361291,10836.0
63517.32143638285,10807.0
63517.3314391528,10809.0
63517.341441922734,10831.0
63517.35144469268,10853.0
63517.361447462616,10839.0
63517.37145023256,10850.0
63517.3814530025,10852.0
63517.39145577244,10868.0
63517.40145854238,10861.0
63517.411461312324,10902.0
63517.42146408226,10887.0
63517.431466852206,10872.0
63517.44146962214,10909.0
63517.45147239209,10915.0
63517.461475162025,10910.0
63517.47147793197,10908.0
63517.48148070191,10903.0
63517.49148347185,10946.0
63517.50148624179,10951.0
63517.51148901173,10972.0
63517.52149178167,10975.0
63517.531494551615,10948.0
63517.54149732156,10967.0
63517.5515000915,10997.0
63517.56150286144,10975.0
63517.57150563138,10976.0
63517.58150840132,11010.0
63517.59151117126,11015.0
63517.601513941205,11009.0
63517.61151671114,11046.0
63517.62151948109,11028.0
63517.631522251024,11048.0
63517.64152502097,11032.0
63517.651527790906,11051.0
63517.66153056085,11071.0
63517.67153333079,11066.0
63517.68153610073,11096.0
63517.69153887067,11072.0
63517.701541640614,11092.0
63517.71154441055,11099.0
63517.721547180496,11109.0
63517.73154995044,11130.0
63517.74155272038,11134.0
63517.75155549032,11131.0
63517.76155826026,11177.0
63517.771561030204,11152.0
63517.78156380014,11157.0
63517.791566570086,11176.0
63517.80156934002,11181.0
63517.81157210997,11192.0
63517.821574879905,11234.0
63517.83157764985,11225.0
63517.84158041979,11204.0
63517.85158318973,11197.0
63517.86158595967,11212.0
63517.87158872961,11188.0
63517.88159149955,11147.0
63517.891594269495,11130.0
63517.90159703943,11082.0
63517.91159980938,11031.0
63517.92160257932,11010.0
63517.93160534926,11017.0
63517.9416081192,10974.0
63517.95161088914,10939.0
63517.961613659085,10927.0
63517.97161642902,10904.0
63517.98161919897,10900.0
63517.991621968904,10895.0
63518.00162473885,10857.0
63518.011627508786,10894.0
63518.02163027873,10868.0
63518.03163304867,10851.0
63518.04163581861,10876.0
63518.05163858855,10845.0
63518.061641358494,10852.0
63518.07164412843,10839.0
63518.081646898376,10839.0
63518.09164966831,10817.0
63518.10165243826,10800.0
63518.111655208195,10827.0
63518.12165797814,10859.0
63518.131660748084,10820.0
63518.14166351802,10832.0
63518.151666287966,10825.0
63518.1616690579,10823.0
63518.17167182785,10844.0
63518.181674597785,10840.0
63518.19167736773,10824.0
63518.20168013767,10836.0
63518.21168290761,10833.0
63518.22168567755,10816.0
63518.23168844749,10831.0
63518.24169121743,10809.0
63518.251693987375,10831.0
63518.26169675731,10866.0
63518.27169952726,10835.0
63518.281702297194,10846.0
63518.29170506714,10856.0
63518.301707837076,10885.0
63518.31171060702,10853.0
63518.321713376965,10886.0
63518.3317161469,10882.0
63518.34171891685,10860.0
63518.351721686784,10891.0
63518.36172445673,10878.0
63518.371727226666,10915.0
63518.38172999661,10898.0
63518.39173276655,10922.0
63518.40173553649,10919.0
63518.41173830643,10931.0
63518.421741076374,10965.0
63518.43174384631,10952.0
63518.441746616256,10973.0
63518.45174938619,10965.0
63518.46175215614,10987.0
63518.471754926075,10987.0
63518.48175769602,10968.0
63518.49176046596,11014.0
63518.5017632359,11038.0
63518.511766005846,11021.0
63518.52176877578,11015.0
63518.53177154573,11054.0
63518.541774315665,11011.0
63518.55177708561,11045.0
63518.56177985555,11065.0
63518.57178262549,11026.0
63518.58178539543,11050.0
63518.59178816537,11072.0
63518.60179093531,11078.0
63518.611793705255,11127.0
63518.62179647519,11098.0
63518.63179924514,11122.0
63518.641802015074,11124.0
63518.65180478502,11149.0
63518.661807554956,11126.0
63518.6718103249,11162.0
63518.68181309484,11152.0
63518.69181586478,11170.0
63518.70181863473,11180.0
63518.711821404664,11166.0
63518.72182417461,11199.0
63518.731826944546,11198.0
63518.74182971449,11211.0
63518.75183248443,11212.0
63518.76183525437,11227.0
63518.77183802431,11231.0
63518.781840794254,11264.0
63518.79184356419,11246.0
63518.801846334136,11250.0
63518.81184910407,11266.0
63518.82185187402,11260.0
63518.831854643955,11222.0
63518.8418574139,11208.0
63518.85186018384,11209.0
63518.86186295378,11182.0
63518.87186572372,11139.0
63518.88186849366,11106.0
63518.8918712636,11052.0
63518.901874033545,11051.0
63518.91187680349,11020.0
63518.92187957343,11010.0
63518.93188234337,11034.0
63518.94188511331,10999.0
63518.95188788325,10982.0
63518.96189065319,10970.0
63518.971893423135,10951.0
63518.98189619307,10963.0
63518.99189896302,10947.0
63519.001901732954,10945.0
63519.0119045029,10928.0
63519.021907272836,10922.0
63519.03191004278,10927.0
63519.04191281272,10922.0
63519.05191558266,10928.0
63519.0619183526,10921.0
63519.071921122544,10935.0
63519.08192389248,10924.0
63519.091926662426,10924.0
63519.10192943237,10875.0
63519.11193220231,10916.0
63519.12193497225,10915.0
63519.13193774219,10932.0
63519.141940512134,10914.0
63519.15194328207,10919.0
63519.161946052016,10916.0
63519.17194882195,10919.0
63519.1819515919,10931.0
63519.191954361835,10917.0
63519.20195713178,10911.0
63519.21195990172,10931.0
63519.22196267166,10919.0
63519.2319654416,10959.0
63519.24196821154,10924.0
63519.25197098148,10926.0
63519.261973751425,10940.0
63519.27197652136,10933.0
63519.28197929131,10949.0
63519.29198206125,10978.0
63519.30198483119,10988.0
63519.31198760113,10993.0
63519.32199037107,10983.0
63519.331993141015,10964.0
63519.34199591095,11027.0
63519.3519986809,11005.0
63519.362001450834,11011.0
63519.37200422078,11018.0
63519.382006990716,11023.0
63519.39200976066,11052.0
63519.4020125306,11057.0
63519.41201530054,11050.0
63519.42201807048,11079.0
63519.432020840424,11054.0
63519.44202361036,11082.0
63519.452026380306,11093.0
63519.46202915024,11076.0
63519.47203192019,11098.0
63519.482034690125,11110.0
63519.49203746007,11114.0
63519.502040230014,11129.0
63519.51204299995,11121.0
63519.522045769896,11153.0
63519.53204853983,11142.0
63519.54205130978,11151.0
63519.552054079715,11187.0
63519.56205684966,11160.0
63519.5720596196,11189.0
63519.58206238954,11203.0
63519.59206515948,11175.0
63519.60206792942,11216.0
63519.61207069936,11231.0
63519.622073469305,11217.0
63519.63207623924,11252.0
63519.64207900919,11258.0
63519.652081779124,11260.0
63519.66208454907,11293.0
63519.672087319006,11265.0
63519.68209008895,11307.0
63519.692092858895,11282.0
63519.70209562883,11253.0
63519.71209839878,11268.0
63519.722101168714,11248.0
63519.73210393866,11229.0
63519.742106708596,11219.0
63519.75210947854,11202.0
63519.76211224848,11187.0
63519.77211501842,11191.0
63519.78211778836,11144.0
63519.792120558304,11169.0
63519.80212332824,11123.0
63519.812126098186,11147.0
63519.82212886812,11110.0
63519.83213163807,11132.0
63519.842134408005,11136.0
63519.85213717795,11118.0
63519.86213994789,11094.0
63519.87214271783,11116.0
63519.882145487776,11112.0
63519.89214825771,11095.0
63519.90215102766,11126.0
63519.912153797595,11077.0
63519.92215656754,11101.0
63519.93215933748,11112.0
63519.94216210742,11144.0
63519.95216487736,11114.0
63519.9621676473,11122.0
63519.97217041724,11125.0
63519.982173187185,11125.0
63519.99217595712,11128.0
63520.00217872707,11129.0
63520.012181497004,11135.0
63520.02218426695,11116.0
63520.032187036886,11144.0
63520.04218980683,11165.0
63520.05219257677,11142.0
63520.06219534671,11145.0
63520.07219811666,11156.0
63520.082200886594,11155.0
63520.09220365654,11157.0
63520.102206426476,11168.0
63520.11220919642,11180.0
63520.12221196636,11167.0
63520.1322147363,11180.0
63520.14221750624,11182.0
63520.152220276184,11220.0
63520.16222304612,11217.0
63520.172225816066,11222.0
63520.182228586,11234.0
63520.19223135595,11221.0
63520.202234125885,11254.0
63520.21223689583,11247.0
63520.22223966577,11265.0
63520.23224243571,11291.0
63520.24224520565,11266.0
63520.25224797559,11315.0
63520.26225074553,11301.0
63520.272253515475,11300.0
63520.28225628542,11319.0
63520.29225905536,11327.0
63520.3022618253,11346.0
63520.31226459524,11372.0
63520.32226736518,11334.0
63520.33227013512,11391.0
63520.342272905065,11373.0
63520.352275675,11378.0
63520.36227844495,11388.0
63520.372281214884,11389.0
63520.38228398483,11420.0
63520.392286754766,11426.0
63520.40228952471,11426.0
63520.41229229465,11453.0
63520.42229506459,11439.0
63520.43229783453,11469.0
63520.442300604474,11491.0
63520.45230337441,11472.0
63520.462306144356,11475.0
63520.4723089143,11512.0
63520.48231168424,11495.0
63520.49231445418,11523.0
63520.50231722412,11532.0
63520.512319994064,11525.0
63520.522322764,11553.0
63520.532325533946,11523.0
63520.54232830388,11568.0
63520.55233107383,11571.0
63520.562333843765,11583.0
63520.57233661371,11564.0
63520.58233938365,11585.0
63520.59234215359,11562.0
63520.60234492353,11555.0
63520.61234769347,11546.0
63520.62235046341,11526.0
63520.632353233355,11486.0
63520.64235600329,11485.0
63520.65235877324,11491.0
63520.66236154318,11476.0
63520.67236431312,11464.0
63520.68236708306,11453.0
63520.692369853,11439.0
63520.702372622945,11422.0
63520.71237539288,11447.0
63520.72237816283,11419.0
63520.732380932764,11440.0
63520.74238370271,11428.0
63520.752386472646,11454.0
63520.76238924259,11407.0
63520.77239201253,11432.0
63520.78239478247,11426.0
63520.79239755241,11405.0
63520.802400322355,11406.0
63520.81240309229,11438.0
63520.822405862236,11423.0
63520.83240863217,11441.0
63520.84241140212,11427.0
63520.852414172055,11453.0
63520.862416942,11431.0
63520.872419711945,11441.0
63520.88242248188,11465.0
63520.892425251826,11425.0
63520.90242802176,11448.0
63520.91243079171,11453.0
63520.922433561645,11454.0
63520.93243633159,11462.0
63520.94243910153,11464.0
63520.95244187147,11455.0
63520.96244464141,11467.0
63520.972447411354,11460.0
63520.98245018129,11469.0
63520.992452951235,11478.0
63521.00245572117,11475.0
63521.01245849112,11497.0
63521.022461261055,11482.0
63521.032464031,11513.0
63521.04246680094,11532.0
63521.05246957088,11544.0
63521.062472340825,11558.0
63521.07247511076,11556.0
63521.08247788071,11547.0
63521.092480650645,11549.0
63521.10248342059,11521.0
63521.11248619053,11561.0
63521.12248896047,11584.0
63521.13249173041,11564.0
63521.14249450035,11588.0
63521.15249727029,11596.0
63521.162500040235,11606.0
63521.17250281017,11610.0
63521.18250558012,11634.0
63521.192508350054,11628.0
63521.20251112,11636.0
63521.212513889936,11648.0
63521.22251665988,11654.0
63521.23251942982,11675.0
63521.24252219976,11697.0
63521.25252496971,11661.0
63521.262527739644,11685.0
63521.27253050959,11690.0
63521.282533279526,11698.0
63521.29253604947,11702.0
63521.30253881941,11740.0
63521.31254158935,11731.0
63521.32254435929,11722.0
63521.332547129234,11733.0
63521.34254989917,11751.0
63521.352552669116,11765.0
63521.36255543905,11778.0
63521.372558209,11766.0
63521.382560978935,11812.0
63521.39256374888,11803.0
63521.40256651882,11791.0
63521.41256928876,11830.0
63521.4225720587,11808.0
63521.43257482864,11828.0
63521.44257759859,11839.0
63521.452580368525,11843.0
63521.46258313847,11863.0
63521.47258590841,11867.0
63521.48258867835,11873.0
63521.49259144829,11876.0
63521.50259421823,11888.0
63521.51259698817,11883.0
63521.522599758115,11861.0
63521.53260252805,11883.0
63521.542605298,11871.0
63521.552608067934,11832.0
63521.56261083788,11821.0
63521.572613607816,11850.0
63521.58261637776,11787.0
63521.5926191477,11803.0
63521.60262191764,11826.0
63521.61262468758,11799.0
63521.622627457524,11818.0
63521.63263022746,11798.0
63521.642632997406,11814.0
63521.65263576735,11806.0
63521.66263853729,11776.0
63521.67264130723,11780.0
63521.68264407717,11777.0
63521.692646847114,11771.0
63521.70264961705,11790.0
63521.712652386996,11777.0
63521.72265515693,11762.0
63521.73265792688,11776.0
63521.742660696815,11771.0
63521.75266346676,11778.0
63521.7626662367,11751.0
63521.77266900664,11740.0
63521.78267177658,11757.0
63521.79267454652,11770.0
63521.80267731646,11815.0
63521.812680086405,11772.0
63521.82268285634,11811.0
63521.83268562629,11784.0
63521.84268839623,11821.0
63521.85269116617,11789.0
63521.86269393611,11798.0
63521.87269670605,11795.0
63521.882699475995,11803.0
63521.89270224593,11786.0
63521.90270501588,11814.0
63521.912707785814,11823.0
63521.92271055576,11818.0
63521.932713325696,11849.0
63521.94271609564,11833.0
63521.95271886558,11848.0
63521.96272163552,11842.0
63521.97272440546,11848.0
63521.982727175404,11846.0
63521.99272994534,11831.0
63522.002732715286,11853.0
63522.01273548522,11852.0
63522.02273825517,11857.0
63522.03274102511,11894.0
63522.04274379505,11886.0
63522.052746564994,11883.0
63522.06274933493,11913.0
63522.072752104876,11893.0
63522.08275487481,11911.0
63522.09275764476,11951.0
63522.102760414695,11900.0
63522.11276318464,11921.0
63522.12276595458,11943.0
63522.13276872452,11931.0
63522.14277149446,11961.0
63522.1527742644,11944.0
63522.16277703434,11978.0
63522.172779804285,11967.0
63522.18278257422,11961.0
63522.19278534417,12016.0
63522.202788114104,12002.0
63522.21279088405,11984.0
63522.222793653986,12019.0
63522.23279642393,12038.0
63522.242799193875,12010.0
63522.25280196381,12023.0
63522.26280473376,12016.0
63522.272807503694,12021.0
63522.28281027364,12044.0
63522.292813043576,12070.0
63522.30281581352,12076.0
63522.31281858346,12079.0
63522.3228213534,12074.0
63522.33282412334,12110.0
63522.342826893284,12054.0
63522.35282966322,12105.0
63522.362832433166,12093.0
63522.3728352031,12096.0
63522.38283797305,12089.0
63522.392840742985,12088.0
63522.40284351293,12135.0
63522.41284628287,12138.0
63522.42284905281,12128.0
63522.432851822756,12131.0
63522.44285459269,12141.0
63522.45285736264,12142.0
63522.462860132575,12168.0
63522.47286290252,12171.0
63522.48286567246,12175.0
63522.4928684424,12202.0
63522.50287121234,12170.0
63522.51287398228,12202.0
63522.52287675222,12195.0
63522.532879522165,12194.0
63522.5428822921,12224.0
63522.55288506205,12165.0
63522.562887831984,12153.0
63522.57289060193,12158.0
63522.582893371866,12141.0
63522.59289614181,12113.0
63522.60289891175,12114.0
63522.61290168169,12137.0
63522.62290445164,12140.0
63522.632907221574,12091.0
63522.64290999152,12124.0
63522.652912761456,12090.0
63522.6629155314,12102.0
63522.67291830134,12070.0
63522.68292107128,12092.0
63522.69292384122,12058.0
63522.702926611164,12056.0
63522.7129293811,12063.0
63522.722932151046,12054.0
63522.73293492098,12061.0
63522.74293769093,12065.0
63522.752940460865,12031.0
63522.76294323081,12031.0
63522.77294600075,12043.0
63522.78294877069,12059.0
63522.79295154063,12030.0
63522.80295431057,12010.0
63522.81295708052,12040.0
63522.822959850455,12045.0
63522.8329626204,12026.0
63522.84296539034,12058.0
63522.85296816028,12028.0
63522.86297093022,12028.0
63522.87297370016,12025.0
63522.8829764701,11999.0
63522.892979240045,12022.0
63522.90298200998,12052.0
63522.91298477993,12022.0
63522.922987549864,12052.0
63522.93299031981,12029.0
63522.942993089746,12012.0
63522.95299585969,12017.0
63522.96299862963,11996.0
63522.97300139957,12025.0
63522.98300416951,12039.0
63522.993006939454,11997.0
63523.0030097094,12039.0
63523.013012479336,12028.0
63523.02301524928,12022.0
63523.03301801922,12048.0
63523.04302078916,12010.0
63523.0530235591,12027.0
63523.063026329044,12037.0
63523.07302909898,12023.0
63523.083031868926,12054.0
63523.09303463886,12044.0
63523.10303740881,12025.0
63523.113040178745,12069.0
63523.12304294869,12039.0
63523.13304571863,12056.0
63523.14304848857,12062.0
63523.15305125851,12032.0
63523.16305402845,12096.0
63523.17305679839,12064.0
63523.183059568335,12052.0
63523.19306233827,12044.0
63523.20306510822,12056.0
63523.21306787816,12080.0
63523.2230706481,12097.0
63523.23307341804,12085.0
63523.24307618798,12091.0
63523.253078957925,12087.0
63523.26308172786,12106.0
63523.27308449781,12116.0
63523.283087267744,12070.0
63523.29309003769,12102.0
63523.303092807626,12080.0
63523.31309557757,12140.0
63523.32309834751,12113.0
63523.33310111745,12120.0
63523.34310388739,12131.0
63523.353106657334,12157.0
63523.36310942727,12129.0
63523.373112197216,12120.0
63523.38311496715,12119.0
63523.3931177371,12142.0
63523.40312050704,12122.0
63523.41312327698,12173.0
63523.423126046924,12151.0
63523.43312881686,12144.0
63523.443131586806,12151.0
63523.45313435674,12111.0
63523.46313712669,12120.0
63523.473139896625,12118.0
63523.48314266657,12098.0
63523.49314543651,12083.0
63523.50314820645,12045.0
63523.51315097639,12027.0
63523.52315374633,12017.0
63523.53315651627,11976.0
63523.543159286215,11965.0
63523.55316205615,11965.0
63523.5631648261,11937.0
63523.573167596034,11931.0
63523.58317036598,11916.0
63523.593173135916,11886.0
63523.60317590586,11890.0
63523.613178675805,11882.0
63523.62318144574,11862.0
63523.63318421569,11857.0
63523.643186985624,11842.0
63523.65318975557,11846.0
63523.663192525506,11830.0
63523.67319529545,11812.0
63523.68319806539,11830.0
63523.69320083533,11791.0
63523.70320360527,11800.0
63523.713206375214,11802.0
63523.72320914515,11773.0
63523.733211915096,11766.0
63523.74321468503,11765.0
63523.75321745498,11740.0
63523.763220224915,11757.0
63523.77322299486,11719.0
63523.7832257648,11716.0
63523.79322853474,11721.0
63523.803231304686,11726.0
63523.81323407462,11705.0
63523.82323684457,11689.0
63523.833239614505,11681.0
63523.84324238445,11688.0
63523.85324515439,11690.0
63523.86324792433,11683.0
63523.87325069427,11692.0
63523.88325346421,11653.0
63523.89325623415,11659.0
63523.903259004095,11662.0
63523.91326177403,11675.0
63523.92326454398,11656.0
63523.933267313914,11666.0
63523.94327008386,11652.0
63523.953272853796,11652.0
63523.96327562374,11660.0
63523.97327839368,11677.0
63523.98328116362,11645.0
63523.99328393357,11648.0
63524.003286703504,11644.0
63524.01328947345,11678.0
63524.023292243386,11646.0
63524.03329501333,11655.0
63524.04329778327,11669.0
63524.05330055321,11629.0
63524.06330332315,11654.0
63524.073306093094,11632.0
63524.08330886303,11625.0
63524.093311632976,11627.0
63524.10331440291,11639.0
63524.11331717286,11657.0
63524.123319942795,11668.0
63524.13332271274,11625.0
63524.14332548268,11647.0
63524.15332825262,11628.0
63524.16333102256,11640.0
63524.1733337925,11652.0
63524.18333656245,11640.0
63524.193339332385,11683.0
63524.20334210233,11670.0
63524.21334487227,11666.0
63524.22334764221,11658.0
63524.23335041215,11668.0
63524.24335318209,11652.0
63524.25335595203,11668.0
63524.263358721975,11647.0
63524.27336149191,11675.0
63524.28336426186,11693.0
63524.293367031794,11686.0
63524.30336980174,11718.0
63524.313372571676,11699.0
63524.32337534162,11700.0
63524.33337811156,11699.0
63524.3433808815,11712.0
63524.35338365144,11707.0
63524.363386421384,11716.0
63524.37338919133,11694.0
63524.383391961266,11683.0
63524.39339473121,11703.0
63524.40339750115,11705.0
63524.41340027109,11673.0
63524.42340304103,11641.0
63524.433405810974,11616.0
63524.44340858091,11590.0
63524.453411350856,11568.0
63524.46341412079,11506.0
63524.47341689074,11465.0
63524.483419660675,11452.0
63524.49342243062,11407.0
63524.50342520056,11380.0
63524.5134279705,11334.0
63524.52343074044,11327.0
63524.53343351038,11316.0
63524.54343628032,11244.0
63524.553439050265,11251.0
63524.5634418202,11243.0
63524.57344459015,11199.0
63524.58344736009,11213.0
63524.59345013003,11163.0
63524.60345289997,11150.0
63524.61345566991,11114.0
63524.623458439855,11107.0
63524.63346120979,11096.0
63524.64346397974,11088.0
63524.653466749674,11096.0
63524.66346951962,11070.0
63524.673472289556,11045.0
63524.6834750595,11033.0
63524.69347782944,11052.0
63524.70348059938,11031.0
63524.71348336932,11015.0
63524.723486139264,11029.0
63524.7334889092,10985.0
63524.743491679146,10980.0
63524.75349444908,10975.0
63524.76349721903,10953.0
