time,ppg
63478.95155577727,127044.0
63478.961606426834,127028.0
63478.97165707641,127055.0
63478.98170772597,127063.0
63478.99175837554,127049.0
63479.00180902511,127057.0
63479.011859674676,127059.0
63479.02191032425,127073.0
63479.031960973814,127051.0
63479.04201162338,127057.0
63479.05206227295,127036.0
63479.06211292252,127043.0
63479.072163572084,127037.0
63479.08221422166,127061.0
63479.09226487122,127061.0
63479.102315520795,127048.0
63479.11236617036,127063.0
63479.122416819926,127060.0
63479.1324674695,127055.0
63479.142518119064,127063.0
63479.15256876864,127069.0
63479.1626194182,127073.0
63479.17267006777,127084.0
63479.18272071734,127068.0
63479.19277136691,127062.0
63479.20282201648,127076.0
63479.212872666045,127083.0
63479.22292331561,127050.0
63479.23297396518,127051.0
63479.24302461475,127042.0
63479.25307526432,127048.0
63479.26312591389,127039.0
63479.27317656345,127049.0
63479.283227213025,127033.0
63479.29327786259,127035.0
63479.303328512164,127050.0
63479.31337916173,127045.0
63479.323429811295,127030.0
63479.33348046087,127012.0
63479.34353111043,127060.0
63479.35358176,127012.0
63479.36363240957,127034.0
63479.37368305914,127048.0
63479.38373370871,127050.0
63479.393784358275,126999.0
63479.40383500784,127026.0
63479.41388565741,127038.0
63479.42393630698,127018.0
63479.43398695655,126989.0
63479.44403760612,127032.0
63479.45408825568,127032.0
63479.464138905256,127018.0
63479.47418955482,127027.0
63479.484240204394,127022.0
63479.49429085396,127018.0
63479.504341503525,127007.0
63479.5143921531,126998.0
63479.52444280266,127024.0
63479.53449345223,127051.0
63479.5445441018,127019.0
63479.55459475137,127052.0
63479.56464540094,127043.0
63479.574696050506,126995.0
63479.58474670007,126987.0
63479.594797349644,127040.0
63479.60484799921,127006.0
63479.61489864878,127006.0
63479.62494929835,127021.0
63479.63499994791,127043.0
63479.645050597486,127036.0
63479.65510124705,127013.0
63479.665151896625,127050.0
63479.67520254619,127024.0
63479.685253195756,127022.0
63479.69530384533,127017.0
63479.705354494894,127039.0
63479.71540514447,127011.0
63479.72545579403,127021.0
63479.7355064436,127052.0
63479.74555709317,127043.0
63479.755607742736,127000.0
63479.76565839231,127037.0
63479.775709041875,127035.0
63479.78575969144,127024.0
63479.79581034101,127033.0
63479.80586099058,127047.0
63479.815911640144,127037.0
63479.82596228972,127058.0
63479.83601293928,127026.0
63479.846063588855,127058.0
63479.85611423842,127053.0
63479.866164887986,126988.0
63479.87621553756,127016.0
63479.886266187124,127066.0
63479.8963168367,127038.0
63479.90636748626,127015.0
63479.91641813583,127042.0
63479.9264687854,127054.0
63479.93651943497,127043.0
63479.94657008454,127043.0
63479.956620734105,127055.0
63479.96667138367,127024.0
63479.97672203324,127048.0
63479.98677268281,127053.0
63479.996823332374,127036.0
63480.00687398195,127033.0
63480.01692463151,127055.0
63480.026975281085,127062.0
63480.03702593065,127076.0
63480.04707658022,127077.0
63480.05712722979,127066.0
63480.067177879355,127073.0
63480.07722852893,127059.0
63480.08727917849,127053.0
63480.09732982806,127077.0
63480.10738047763,127066.0
63480.1174311272,127054.0
63480.12748177677,127059.0
63480.137532426335,127071.0
63480.1475830759,127066.0
63480.157633725474,127037.0
63480.16768437504,127049.0
63480.17773502461,127052.0
63480.18778567418,127080.0
63480.19783632374,127079.0
63480.207886973316,127110.0
63480.21793762288,127044.0
63480.227988272454,127066.0
63480.23803892202,127063.0
63480.248089571585,127062.0
63480.25814022116,127055.0
63480.26819087072,127051.0
63480.27824152029,127038.0
63480.28829216986,127056.0
63480.29834281943,127013.0
63480.308393469,127040.0
63480.318444118566,127031.0
63480.32849476813,127060.0
63480.338545417704,127018.0
63480.34859606727,127025.0
63480.35864671684,127052.0
63480.36869736641,127032.0
63480.37874801597,127050.0
63480.388798665546,127034.0
63480.39884931511,126998.0
63480.408899964685,127008.0
63480.41895061425,127020.0
63480.429001263816,127031.0
63480.43905191339,127033.0
63480.449102562954,127003.0
63480.45915321253,127004.0
63480.46920386209,127036.0
63480.47925451166,127028.0
63480.48930516123,127043.0
63480.499355810796,127029.0
63480.50940646036,127042.0
63480.519457109935,127002.0
63480.5295077595,127010.0
63480.53955840907,127047.0
63480.54960905864,127019.0
63480.559659708204,127008.0
63480.56971035778,127027.0
63480.57976100734,127005.0
63480.589811656915,127025.0
63480.59986230648,127012.0
63480.609912956046,127004.0
63480.61996360562,127027.0
63480.630014255185,127000.0
63480.64006490476,127016.0
63480.65011555432,127004.0
63480.66016620389,127008.0
63480.67021685346,127047.0
63480.68026750303,127022.0
63480.6903181526,127005.0
63480.700368802165,127065.0
63480.71041945173,127062.0
63480.7204701013,127032.0
63480.73052075087,127021.0
63480.740571400434,127003.0
63480.75062205001,127013.0
63480.76067269957,127048.0
63480.770723349146,127061.0
63480.78077399871,127022.0
63480.79082464828,127048.0
63480.80087529785,127014.0
63480.810925947415,127059.0
63480.82097659699,127027.0
63480.83102724655,127056.0
63480.84107789612,127042.0
63480.85112854569,127060.0
63480.86117919526,127042.0
63480.87122984483,127029.0
63480.881280494395,127048.0
63480.89133114396,127058.0
63480.901381793534,127063.0
63480.9114324431,127052.0
63480.92148309267,127059.0
63480.93153374224,127033.0
63480.9415843918,127073.0
63480.951635041376,127052.0
63480.96168569094,127044.0
63480.97173634051,127069.0
63480.98178699008,127026.0
63480.991837639645,127056.0
63481.00188828922,127063.0
63481.011938938784,127040.0
63481.02198958835,127044.0
63481.03204023792,127058.0
63481.04209088749,127061.0
63481.05214153706,127086.0
63481.062192186626,127092.0
63481.07224283619,127030.0
63481.082293485764,127061.0
63481.09234413533,127074.0
63481.1023947849,127060.0
63481.11244543447,127080.0
63481.12249608403,127083.0
63481.13254673361,127071.0
63481.14259738317,127063.0
63481.152648032745,127039.0
63481.16269868231,127094.0
63481.172749331876,127071.0
63481.18279998145,127063.0
63481.192850631014,127059.0
63481.20290128058,127065.0
63481.21295193015,127057.0
63481.22300257972,127040.0
63481.23305322929,127033.0
63481.243103878856,127063.0
63481.25315452842,127058.0
63481.263205177995,127033.0
63481.27325582756,127043.0
63481.28330647713,127014.0
63481.2933571267,127036.0
63481.303407776264,127019.0
63481.31345842584,127046.0
63481.3235090754,127009.0
63481.333559724975,127048.0
63481.34361037454,127000.0
63481.353661024106,127044.0
63481.36371167368,127014.0
63481.373762323245,127037.0
63481.38381297282,127037.0
63481.39386362238,127036.0
63481.40391427195,127030.0
63481.41396492152,127034.0
63481.42401557109,127028.0
63481.43406622065,127033.0
63481.444116870225,127045.0
63481.45416751979,127043.0
63481.46421816936,127036.0
63481.47426881893,127000.0
63481.484319468495,127028.0
63481.49437011807,127030.0
63481.50442076763,127038.0
63481.514471417206,127064.0
63481.52452206677,127040.0
63481.53457271634,127031.0
63481.54462336591,127014.0
63481.554674015475,127037.0
63481.56472466505,127033.0
63481.57477531461,127003.0
63481.58482596418,127031.0
63481.59487661375,127039.0
63481.60492726332,127043.0
63481.61497791289,127053.0
63481.625028562456,127040.0
63481.63507921202,127031.0
63481.645129861594,127032.0
63481.65518051116,127027.0
63481.665231160725,127029.0
63481.6752818103,126997.0
63481.68533245986,127006.0
63481.695383109436,127020.0
63481.705433759,127051.0
63481.71548440857,127062.0
63481.72553505814,127030.0
63481.735585707705,127070.0
63481.74563635728,127041.0
63481.755687006844,127001.0
63481.76573765641,127038.0
63481.77578830598,127061.0
63481.78583895555,127060.0
63481.79588960512,127034.0
63481.805940254686,127079.0
63481.81599090425,127053.0
63481.826041553824,127055.0
63481.83609220339,127036.0
63481.84614285296,127086.0
63481.85619350253,127064.0
63481.866244152094,127029.0
63481.87629480167,127047.0
63481.88634545123,127081.0
63481.8963961008,127048.0
63481.90644675037,127066.0
63481.916497399936,127057.0
63481.92654804951,127087.0
63481.936598699074,127040.0
63481.94664934864,127064.0
63481.95669999821,127075.0
63481.96675064778,127069.0
63481.97680129735,127053.0
63481.98685194692,127062.0
63481.99690259648,127059.0
63482.006953246055,127040.0
63482.01700389562,127080.0
63482.02705454519,127063.0
63482.03710519476,127061.0
63482.047155844324,127039.0
63482.0572064939,127051.0
63482.06725714346,127107.0
63482.077307793035,127083.0
63482.0873584426,127068.0
63482.097409092166,127106.0
63482.10745974174,127048.0
63482.117510391305,127075.0
63482.12756104087,127045.0
63482.13761169044,127100.0
63482.14766234001,127052.0
63482.15771298958,127076.0
63482.16776363915,127068.0
63482.17781428871,127108.0
63482.187864938285,127059.0
63482.19791558785,127093.0
63482.20796623742,127110.0
63482.21801688699,127083.0
63482.228067536555,127070.0
63482.23811818613,127084.0
63482.24816883569,127099.0
63482.258219485266,127062.0
63482.26827013483,127053.0
63482.2783207844,127040.0
63482.28837143397,127065.0
63482.298422083535,127031.0
63482.30847273311,127082.0
63482.31852338267,127053.0
63482.32857403224,127041.0
63482.33862468181,127039.0
63482.34867533138,127064.0
63482.35872598094,127045.0
63482.368776630516,127061.0
63482.37882728008,127057.0
63482.388877929654,127056.0
63482.39892857922,127027.0
63482.408979228785,127022.0
63482.41902987836,127057.0
63482.42908052792,127024.0
63482.439131177496,127057.0
63482.44918182706,127039.0
63482.45923247663,127059.0
63482.4692831262,127002.0
63482.479333775766,127043.0
63482.48938442534,126996.0
63482.499435074904,127076.0
63482.50948572447,127030.0
63482.51953637404,127047.0
63482.52958702361,127049.0
63482.53963767318,127073.0
63482.549688322746,127022.0
63482.55973897231,127055.0
63482.569789621884,127053.0
63482.57984027145,127063.0
63482.589890921015,127030.0
63482.59994157059,127073.0
63482.609992220154,127051.0
63482.62004286973,127022.0
63482.63009351929,127073.0
63482.64014416886,127072.0
63482.65019481843,127045.0
63482.660245467996,127073.0
63482.67029611757,127070.0
63482.680346767134,127031.0
63482.6903974167,127043.0
63482.70044806627,127020.0
63482.71049871584,127060.0
63482.72054936541,127029.0
63482.73060001498,127053.0
63482.74065066454,127067.0
63482.750701314115,127073.0
63482.76075196368,127037.0
63482.77080261325,127067.0
63482.78085326282,127036.0
63482.790903912384,127085.0
63482.80095456196,127023.0
63482.81100521152,127063.0
63482.82105586109,127065.0
63482.83110651066,127038.0
63482.84115716023,127032.0
63482.8512078098,127069.0
63482.861258459365,127071.0
63482.87130910893,127055.0
63482.8813597585,127057.0
63482.89141040807,127063.0
63482.90146105764,127090.0
63482.91151170721,127066.0
63482.92156235677,127074.0
63482.931613006345,127091.0
63482.94166365591,127051.0
63482.95171430548,127040.0
63482.96176495505,127085.0
63482.971815604615,127079.0
63482.98186625419,127073.0
63482.99191690375,127053.0
63483.001967553326,127090.0
63483.01201820289,127048.0
63483.02206885246,127074.0
63483.03211950203,127074.0
63483.042170151595,127104.0
63483.05222080116,127039.0
63483.06227145073,127048.0
63483.0723221003,127116.0
63483.08237274987,127080.0
63483.09242339944,127065.0
63483.102474049,127092.0
63483.112524698576,127073.0
63483.12257534814,127080.0
63483.132625997714,127105.0
63483.14267664728,127106.0
63483.152727296845,127114.0
63483.16277794642,127085.0
63483.17282859598,127082.0
63483.182879245556,127090.0
63483.19292989512,127125.0
63483.20298054469,127063.0
63483.21303119426,127094.0
63483.223081843826,127082.0
63483.2331324934,127084.0
63483.243183142964,127104.0
63483.25323379253,127131.0
63483.2632844421,127097.0
63483.27333509167,127086.0
63483.28338574123,127087.0
63483.293436390806,127095.0
63483.30348704037,127066.0
63483.313537689944,127066.0
63483.32358833951,127067.0
63483.333638989076,127036.0
63483.34368963865,127057.0
63483.353740288214,127057.0
63483.36379093779,127031.0
63483.37384158735,127044.0
63483.38389223692,127055.0
63483.39394288649,127034.0
63483.403993536056,127073.0
63483.41404418563,127048.0
63483.424094835194,127053.0
63483.43414548476,127068.0
63483.44419613433,127039.0
63483.4542467839,127037.0
63483.46429743347,127029.0
63483.47434808304,127043.0
63483.4843987326,127019.0
63483.494449382175,127021.0
63483.50450003174,127052.0
63483.51455068131,127029.0
63483.52460133088,127043.0
63483.534651980444,127045.0
63483.54470263002,127008.0
63483.55475327958,127029.0
63483.56480392915,127010.0
63483.57485457872,127026.0
63483.58490522829,127031.0
63483.59495587786,127013.0
63483.605006527425,127013.0
63483.61505717699,127067.0
63483.62510782656,127003.0
63483.63515847613,127027.0
63483.6452091257,127021.0
63483.65525977527,127035.0
63483.66531042483,127017.0
63483.675361074405,127027.0
63483.68541172397,127030.0
63483.695462373544,127073.0
63483.70551302311,127016.0
63483.715563672675,127033.0
63483.72561432225,127001.0
63483.73566497181,127054.0
63483.74571562138,127038.0
63483.75576627095,127038.0
63483.76581692052,127025.0
63483.77586757009,127046.0
63483.785918219655,127024.0
63483.79596886922,127022.0
63483.80601951879,127043.0
63483.81607016836,127023.0
63483.82612081793,127040.0
63483.8361714675,127042.0
63483.84622211706,127034.0
63483.856272766636,127001.0
63483.8663234162,127030.0
63483.876374065774,127032.0
63483.88642471534,127026.0
63483.896475364905,127015.0
63483.90652601448,127042.0
63483.91657666404,127038.0
63483.926627313616,127028.0
63483.93667796318,127065.0
63483.94672861275,127013.0
63483.95677926232,127007.0
63483.966829911886,127033.0
63483.97688056146,127052.0
63483.986931211024,127047.0
63483.99698186059,126988.0
63484.00703251016,127033.0
63484.01708315973,127017.0
63484.02713380929,127067.0
63484.037184458866,127055.0
63484.04723510843,127048.0
63484.057285758005,127032.0
63484.06733640757,127021.0
63484.077387057136,127020.0
63484.08743770671,127051.0
63484.097488356274,127044.0
63484.10753900585,127042.0
63484.11758965541,127036.0
63484.12764030498,127059.0
63484.13769095455,127012.0
63484.147741604116,127022.0
63484.15779225369,127074.0
63484.167842903254,127043.0
63484.17789355282,127019.0
63484.18794420239,127022.0
63484.19799485196,127053.0
63484.208045501524,127057.0
63484.2180961511,127054.0
63484.22814680066,127031.0
63484.238197450235,127049.0
63484.2482480998,127064.0
63484.258298749366,127074.0
63484.26834939894,127038.0
63484.278400048504,127063.0
63484.28845069808,127051.0
63484.29850134764,127064.0
63484.30855199721,127035.0
63484.31860264678,127066.0
63484.32865329635,127047.0
63484.33870394592,127065.0
63484.348754595485,127032.0
63484.35880524505,127047.0
63484.36885589462,127030.0
63484.37890654419,127043.0
63484.38895719376,127031.0
63484.39900784333,127011.0
63484.40905849289,127003.0
63484.419109142465,127019.0
63484.42915979203,127034.0
63484.439210441604,127018.0
63484.44926109117,127015.0
63484.459311740735,127008.0
63484.46936239031,127022.0
63484.47941303987,127036.0
63484.48946368944,126982.0
63484.49951433901,127011.0
63484.50956498858,126982.0
63484.51961563815,126979.0
63484.529666287715,126987.0
63484.53971693728,127006.0
63484.549767586854,126996.0
63484.55981823642,126997.0
63484.56986888599,126986.0
63484.57991953556,127002.0
63484.58997018512,127003.0
63484.600020834696,127009.0
63484.61007148426,127029.0
63484.620122133834,127008.0
63484.6301727834,127001.0
63484.640223432965,127018.0
63484.65027408254,127035.0
63484.6603247321,126995.0
63484.67037538167,126988.0
63484.68042603124,126975.0
63484.69047668081,126991.0
63484.70052733038,127005.0
63484.710577979946,126967.0
63484.72062862951,127022.0
63484.730679279084,127006.0
63484.74072992865,127005.0
63484.75078057822,127017.0
63484.76083122779,127037.0
63484.77088187735,126988.0
63484.780932526926,127009.0
63484.79098317649,126987.0
63484.801033826065,127006.0
63484.81108447563,127010.0
63484.821135125196,127023.0
63484.83118577477,126993.0
63484.841236424334,127014.0
63484.85128707391,127010.0
63484.86133772347,127016.0
63484.87138837304,127025.0
63484.88143902261,126983.0
63484.891489672176,127000.0
63484.90154032175,127014.0
63484.911590971315,127001.0
63484.92164162088,127023.0
63484.93169227045,127030.0
63484.94174292002,127018.0
63484.951793569584,127009.0
63484.96184421916,126992.0
63484.97189486872,127047.0
63484.981945518295,127038.0
63484.99199616786,127019.0
63485.002046817426,127011.0
63485.012097467,127030.0
63485.022148116564,127013.0
63485.03219876614,127021.0
63485.0422494157,127050.0
63485.05230006527,127038.0
63485.06235071484,127025.0
63485.07240136441,127020.0
63485.08245201398,127043.0
63485.092502663545,127032.0
63485.10255331311,127038.0
63485.11260396268,127028.0
63485.12265461225,127047.0
63485.13270526182,126994.0
63485.14275591139,127011.0
63485.15280656095,127011.0
63485.162857210526,127004.0
63485.17290786009,127025.0
63485.18295850966,126997.0
63485.19300915923,127033.0
63485.203059808795,127030.0
63485.21311045837,127037.0
63485.22316110793,127055.0
63485.2332117575,127025.0
63485.24326240707,126997.0
63485.25331305664,126998.0
63485.26336370621,127050.0
63485.273414355775,127030.0
63485.28346500534,127018.0
63485.293515654914,127051.0
63485.30356630448,127015.0
63485.31361695405,127036.0
63485.32366760362,127017.0
63485.33371825318,127035.0
63485.343768902756,127022.0
63485.35381955232,127019.0
63485.363870201894,127046.0
63485.37392085146,127028.0
63485.383971501025,127018.0
63485.3940221506,127043.0
63485.404072800164,127032.0
63485.41412344973,127024.0
63485.4241740993,126978.0
63485.43422474887,127025.0
63485.44427539844,126994.0
63485.454326048006,126957.0
63485.46437669757,126976.0
63485.474427347144,127016.0
63485.48447799671,126981.0
63485.49452864628,126989.0
63485.50457929585,126990.0
63485.51462994541,126982.0
63485.52468059499,126988.0
63485.53473124455,126989.0
63485.544781894125,126972.0
63485.55483254369,126992.0
63485.564883193256,126983.0
63485.57493384283,126980.0
63485.584984492394,127027.0
63485.59503514197,126943.0
63485.60508579153,126982.0
63485.6151364411,126939.0
63485.62518709067,127002.0
63485.635237740236,126968.0
63485.6452883898,126980.0
63485.655339039375,126968.0
63485.66538968894,126990.0
63485.67544033851,126961.0
63485.68549098808,126969.0
63485.695541637644,126995.0
63485.70559228722,126956.0
63485.71564293678,126983.0
63485.725693586355,126954.0
63485.73574423592,126981.0
63485.745794885486,126962.0
63485.75584553506,126974.0
63485.765896184625,126964.0
63485.7759468342,126987.0
63485.78599748376,126944.0
63485.79604813333,126994.0
63485.8060987829,126967.0
63485.81614943247,126947.0
63485.82620008204,126977.0
63485.836250731605,126984.0
63485.84630138117,126971.0
63485.85635203074,126940.0
63485.86640268031,126960.0
63485.876453329874,126966.0
63485.88650397945,126948.0
63485.89655462901,126986.0
63485.906605278586,127007.0
63485.91665592815,126954.0
63485.92670657772,126961.0
63485.93675722729,126970.0
63485.946807876855,126987.0
63485.95685852643,126967.0
63485.96690917599,126968.0
63485.97695982556,126977.0
63485.98701047513,127020.0
63485.9970611247,126945.0
63486.00711177427,126986.0
63486.017162423836,126982.0
63486.0272130734,127015.0
63486.037263722974,126952.0
63486.04731437254,126985.0
63486.05736502211,126979.0
63486.06741567168,126997.0
63486.07746632124,126973.0
63486.087516970816,127006.0
63486.09756762038,126994.0
63486.10761826995,126980.0
63486.11766891952,126990.0
63486.127719569085,127004.0
63486.13777021866,126986.0
63486.147820868224,126995.0
63486.15787151779,126998.0
63486.16792216736,127017.0
63486.17797281693,126995.0
63486.1880234665,126983.0
63486.198074116066,127007.0
63486.20812476563,126970.0
63486.218175415204,126992.0
63486.22822606477,127011.0
63486.23827671434,126991.0
63486.24832736391,126981.0
63486.258378013474,126962.0
63486.26842866305,126958.0
63486.27847931261,127012.0
63486.288529962185,126997.0
63486.29858061175,126998.0
63486.308631261316,126999.0
63486.31868191089,126998.0
63486.328732560454,126992.0
63486.33878321002,127025.0
63486.34883385959,127014.0
63486.35888450916,127027.0
63486.36893515873,127037.0
63486.3789858083,127016.0
63486.38903645786,126994.0
63486.399087107435,126992.0
63486.409137757,127019.0
63486.41918840657,126986.0
63486.42923905614,126990.0
63486.439289705704,126969.0
63486.44934035528,126990.0
63486.45939100484,126981.0
63486.469441654415,126983.0
63486.47949230398,126962.0
63486.489542953546,126982.0
63486.49959360312,126951.0
63486.509644252685,126974.0
63486.51969490226,127004.0
63486.52974555182,126957.0
63486.53979620139,126942.0
63486.54984685096,126979.0
63486.55989750053,126942.0
63486.56994815009,126988.0
63486.579998799665,126987.0
63486.59004944923,126967.0
63486.6001000988,126991.0
63486.61015074837,126955.0
63486.620201397935,126941.0
63486.63025204751,126965.0
63486.64030269707,126956.0
63486.650353346646,126929.0
63486.66040399621,126996.0
63486.67045464578,126957.0
63486.68050529535,126972.0
63486.690555944915,126942.0
63486.70060659449,126977.0
63486.71065724405,126965.0
63486.72070789362,126945.0
63486.73075854319,126980.0
63486.74080919276,126981.0
63486.75085984233,126945.0
63486.760910491896,126937.0
63486.77096114146,126945.0
63486.781011791034,126905.0
63486.7910624406,126891.0
63486.801113090165,126930.0
63486.81116373974,126969.0
63486.8212143893,126933.0
63486.831265038876,126954.0
63486.84131568844,126953.0
63486.85136633801,126949.0
63486.86141698758,126939.0
63486.871467637146,126950.0
63486.88151828672,126957.0
63486.891568936284,126941.0
63486.90161958585,126923.0
63486.91167023542,126991.0
63486.92172088499,126972.0
63486.93177153456,126962.0
63486.941822184126,126951.0
63486.95187283369,126991.0
63486.961923483264,126961.0
63486.97197413283,126951.0
63486.9820247824,126962.0
63486.99207543197,126992.0
63487.002126081534,126987.0
63487.01217673111,126982.0
63487.02222738067,127001.0
63487.03227803024,126961.0
63487.04232867981,126990.0
63487.052379329376,126975.0
63487.06242997895,126996.0
63487.072480628514,127004.0
63487.08253127808,126988.0
63487.09258192765,126981.0
63487.10263257722,127006.0
63487.11268322679,126952.0
63487.12273387636,126991.0
63487.13278452592,127000.0
63487.142835175495,127022.0
63487.15288582506,126974.0
63487.16293647463,126996.0
63487.1729871242,126997.0
63487.183037773764,126984.0
63487.19308842334,126989.0
63487.2031390729,126998.0
63487.213189722475,126975.0
63487.22324037204,126973.0
63487.23329102161,127021.0
63487.24334167118,126997.0
63487.253392320745,127004.0
63487.26344297031,126977.0
63487.27349361988,127002.0
63487.28354426945,127031.0
63487.29359491902,127002.0
63487.30364556859,126973.0
63487.31369621815,127002.0
63487.323746867725,126952.0
63487.33379751729,127002.0
63487.34384816686,126990.0
63487.35389881643,127000.0
63487.363949465995,127001.0
63487.37400011557,127010.0
63487.38405076513,126988.0
63487.394101414706,127040.0
63487.40415206427,127024.0
63487.41420271384,127017.0
63487.42425336341,127029.0
63487.434304012975,127005.0
63487.44435466255,126990.0
63487.45440531211,126984.0
63487.46445596168,126943.0
63487.47450661125,126904.0
63487.48455726082,126833.0
63487.49460791038,126823.0
63487.504658559956,126767.0
63487.51470920952,126783.0
63487.524759859094,126777.0
63487.53481050866,126741.0
63487.544861158225,126724.0
63487.5549118078,126690.0
63487.56496245736,126704.0
63487.575013106936,126726.0
63487.5850637565,126738.0
63487.59511440607,126736.0
63487.60516505564,126725.0
63487.615215705206,126763.0
63487.62526635478,126760.0
63487.635317004344,126766.0
63487.64536765391,126828.0
63487.65541830348,126818.0
63487.66546895305,126854.0
63487.67551960262,126832.0
63487.685570252186,126867.0
63487.69562090175,126870.0
63487.705671551324,126899.0
63487.71572220089,126875.0
63487.725772850456,126897.0
63487.73582350003,126890.0
63487.745874149594,126933.0
63487.75592479917,126932.0
63487.76597544873,126934.0
63487.7760260983,126907.0
63487.78607674787,126944.0
63487.796127397436,126959.0
63487.80617804701,126961.0
63487.816228696574,126924.0
63487.82627934614,126945.0
63487.83632999571,126947.0
63487.84638064528,126962.0
63487.85643129485,126958.0
63487.86648194442,126952.0
63487.87653259398,126969.0
63487.886583243555,126942.0
63487.89663389312,126958.0
63487.90668454269,126968.0
63487.91673519226,126972.0
63487.926785841824,126961.0
63487.9368364914,126976.0
63487.94688714096,126962.0
63487.95693779053,126938.0
63487.9669884401,126939.0
63487.97703908967,126987.0
63487.98708973924,126944.0
63487.997140388805,126979.0
63488.00719103837,126967.0
63488.01724168794,126985.0
63488.02729233751,126978.0
63488.03734298708,126984.0
63488.04739363665,126947.0
63488.05744428621,126965.0
63488.067494935785,126935.0
63488.07754558535,126873.0
63488.087596234924,126838.0
63488.09764688449,126799.0
63488.107697534055,126749.0
63488.11774818363,126712.0
63488.12779883319,126617.0
63488.137849482766,126609.0
63488.14790013233,126627.0
63488.1579507819,126610.0
63488.16800143147,126638.0
63488.178052081035,126592.0
63488.18810273061,126605.0
63488.19815338017,126597.0
63488.20820402974,126600.0
63488.21825467931,126615.0
63488.22830532888,126624.0
63488.23835597844,126654.0
63488.248406628016,126653.0
63488.25845727758,126685.0
63488.268507927154,126729.0
63488.27855857672,126725.0
63488.288609226285,126727.0
63488.29865987586,126783.0
63488.30871052542,126803.0
63488.318761174996,126803.0
63488.32881182456,126802.0
63488.33886247413,126851.0
63488.3489131237,126862.0
63488.358963773266,126885.0
63488.36901442284,126882.0
63488.379065072404,126916.0
63488.38911572197,126879.0
63488.39916637154,126909.0
63488.40921702111,126942.0
63488.41926767067,126943.0
63488.429318320246,126955.0
63488.43936896981,126959.0
63488.449419619385,126954.0
63488.45947026895,126980.0
63488.469520918516,126954.0
63488.47957156809,126972.0
63488.489622217654,126959.0
63488.49967286723,126929.0
63488.50972351679,126927.0
63488.51977416636,126957.0
63488.52982481593,126961.0
63488.539875465496,126917.0
63488.54992611507,126917.0
63488.559976764634,126932.0
63488.5700274142,126915.0
63488.58007806377,126915.0
63488.59012871334,126899.0
63488.60017936291,126928.0
63488.61023001248,126907.0
63488.62028066204,126930.0
63488.630331311615,126905.0
63488.64038196118,126933.0
63488.65043261075,126908.0
63488.66048326032,126949.0
63488.670533909884,126933.0
63488.68058455946,126919.0
63488.69063520902,126933.0
63488.70068585859,126980.0
63488.71073650816,126933.0
63488.72078715773,126947.0
63488.7308378073,126953.0
63488.740888456865,126955.0
63488.75093910643,126909.0
63488.760989756,126948.0
63488.77104040557,126951.0
63488.78109105514,126926.0
63488.79114170471,126910.0
63488.80119235427,126941.0
63488.811243003845,126946.0
63488.82129365341,126948.0
63488.831344302984,126942.0
63488.84139495255,126947.0
63488.851445602115,126947.0
63488.86149625169,126940.0
63488.87154690125,126916.0
63488.88159755082,126966.0
63488.89164820039,126946.0
63488.90169884996,126932.0
63488.91174949953,126950.0
63488.921800149095,126945.0
63488.93185079866,126955.0
63488.941901448234,126925.0
63488.9519520978,126970.0
63488.96200274737,126934.0
63488.97205339694,126966.0
63488.9821040465,126936.0
63488.992154696076,126996.0
63489.00220534564,126958.0
63489.012255995214,126974.0
63489.02230664478,126981.0
63489.032357294345,126983.0
63489.04240794392,126982.0
63489.05245859348,126989.0
63489.06250924306,126984.0
63489.07255989262,126982.0
63489.08261054219,126975.0
63489.09266119176,126977.0
63489.102711841326,126987.0
63489.1127624909,126981.0
63489.122813140464,126983.0
63489.13286379003,126982.0
63489.1429144396,126989.0
63489.15296508917,126984.0
63489.16301573873,126982.0
63489.173066388306,126975.0
63489.18311703787,126977.0
63489.193167687445,126987.0
63489.20321833701,126974.0
63489.213268986576,126989.0
63489.22331963615,126976.0
63489.233370285714,126975.0
63489.24342093529,126951.0
63489.25347158485,126997.0
63489.26352223442,127008.0
63489.27357288399,126965.0
63489.283623533556,126961.0
63489.29367418313,126981.0
63489.303724832695,126969.0
63489.31377548226,126985.0
63489.32382613183,126970.0
63489.3338767814,127000.0
63489.343927430964,126959.0
63489.35397808054,126993.0
63489.3640287301,126955.0
63489.374079379675,127010.0
63489.38413002924,126982.0
63489.394180678806,126992.0
63489.40423132838,127010.0
63489.414281977944,126976.0
63489.42433262752,126959.0
63489.43438327708,126979.0
63489.44443392665,126998.0
63489.45448457622,126963.0
63489.46453522579,126973.0
63489.47458587536,126987.0
63489.484636524925,126956.0
63489.49468717449,127013.0
63489.50473782406,126986.0
63489.51478847363,126987.0
63489.5248391232,126970.0
63489.53488977277,126957.0
63489.54494042233,126955.0
63489.554991071906,126985.0
63489.56504172147,126996.0
63489.575092371044,127014.0
63489.58514302061,127011.0
63489.595193670175,126998.0
63489.60524431975,126977.0
63489.61529496931,126978.0
63489.62534561888,127001.0
63489.63539626845,126982.0
63489.64544691802,126959.0
63489.65549756759,126984.0
63489.665548217155,126970.0
63489.67559886672,126919.0
63489.685649516294,126914.0
63489.69570016586,126958.0
63489.70575081543,126932.0
63489.715801465,126904.0
63489.72585211456,126922.0
63489.735902764136,126947.0
63489.7459534137,126917.0
63489.756004063274,126900.0
63489.76605471284,126913.0
63489.776105362405,126888.0
63489.78615601198,126889.0
63489.796206661544,126892.0
63489.80625731111,126823.0
63489.81630796068,126667.0
63489.82635861025,126523.0
63489.83640925982,126477.0
63489.846459909386,126430.0
63489.85651055895,126405.0
63489.866561208524,126430.0
63489.87661185809,126425.0
63489.88666250766,126448.0
63489.89671315723,126412.0
63489.90676380679,126365.0
63489.91681445637,126400.0
63489.92686510593,126375.0
63489.936915755505,126357.0
63489.94696640507,126396.0
63489.957017054636,126345.0
63489.96706770421,126350.0
63489.977118353774,126350.0
63489.98716900335,126370.0
63489.99721965291,126314.0
63490.00727030248,126295.0
63490.01732095205,126245.0
63490.027371601616,126275.0
63490.03742225119,126261.0
63490.047472900755,126280.0
63490.05752355032,126282.0
63490.06757419989,126269.0
63490.07762484946,126275.0
63490.087675499024,126267.0
63490.0977261486,126294.0
63490.10777679816,126297.0
63490.117827447735,126305.0
63490.1278780973,126346.0
63490.137928746866,126403.0
63490.14797939644,126393.0
63490.158030046005,126431.0
63490.16808069558,126430.0
63490.17813134514,126400.0
63490.18818199471,126413.0
63490.19823264428,126457.0
63490.20828329385,126506.0
63490.21833394342,126506.0
63490.228384592985,126503.0
63490.23843524255,126534.0
63490.24848589212,126506.0
63490.25853654169,126552.0
63490.26858719126,126541.0
63490.27863784083,126574.0
63490.28868849039,126572.0
63490.298739139966,126595.0
63490.30878978953,126594.0
63490.3188404391,126596.0
63490.32889108867,126629.0
63490.338941738235,126629.0
63490.34899238781,126638.0
63490.35904303737,126626.0
63490.36909368694,126625.0
63490.37914433651,126672.0
63490.38919498608,126673.0
63490.39924563565,126674.0
63490.409296285216,126678.0
63490.41934693478,126684.0
63490.429397584354,126687.0
63490.43944823392,126681.0
63490.44949888349,126706.0
63490.45954953306,126685.0
63490.46960018262,126653.0
63490.479650832196,126721.0
63490.48970148176,126686.0
63490.499752131334,126718.0
63490.5098027809,126716.0
63490.519853430465,126714.0
63490.52990408004,126757.0
63490.539954729604,126736.0
63490.55000537917,126727.0
63490.56005602874,126723.0
63490.57010667831,126759.0
63490.58015732788,126727.0
63490.590207977446,126708.0
63490.60025862701,126711.0
63490.610309276584,126650.0
63490.62035992615,126658.0
63490.63041057572,126639.0
63490.64046122529,126636.0
63490.650511874854,126619.0
63490.66056252443,126611.0
63490.67061317399,126670.0
63490.680663823565,126643.0
63490.69071447313,126652.0
63490.700765122696,126642.0
63490.71081577227,126659.0
63490.720866421834,126695.0
63490.73091707141,126644.0
63490.74096772097,126658.0
63490.75101837054,126662.0
63490.76106902011,126639.0
63490.77111966968,126657.0
63490.78117031924,126642.0
63490.791220968815,126671.0
63490.80127161838,126695.0
63490.81132226795,126662.0
63490.82137291752,126664.0
63490.831423567084,126668.0
63490.84147421666,126678.0
63490.85152486622,126654.0
63490.861575515795,126661.0
63490.87162616536,126646.0
63490.881676814926,126658.0
63490.8917274645,126680.0
63490.901778114065,126655.0
63490.91182876364,126700.0
63490.9218794132,126689.0
63490.93193006277,126679.0
63490.94198071234,126703.0
63490.95203136191,126674.0
63490.96208201148,126656.0
63490.972132661045,126646.0
63490.98218331061,126631.0
63490.99223396018,126650.0
63491.00228460975,126604.0
63491.012335259315,126670.0
63491.02238590889,126665.0
63491.03243655845,126665.0
63491.042487208026,126671.0
63491.05253785759,126679.0
63491.06258850716,126647.0
63491.07263915673,126679.0
63491.082689806295,126649.0
63491.09274045587,126662.0
63491.10279110543,126721.0
63491.112841755,126693.0
63491.12289240457,126673.0
63491.13294305414,126693.0
63491.14299370371,126697.0
63491.153044353276,126689.0
63491.16309500284,126706.0
63491.173145652414,126699.0
63491.18319630198,126696.0
63491.19324695155,126687.0
63491.20329760112,126723.0
63491.21334825068,126718.0
63491.223398900256,126726.0
63491.23344954982,126708.0
63491.24350019939,126752.0
63491.25355084896,126739.0
63491.263601498526,126738.0
63491.2736521481,126798.0
63491.283702797664,126749.0
63491.29375344723,126774.0
63491.3038040968,126744.0
63491.31385474637,126755.0
63491.32390539594,126749.0
63491.333956045506,126784.0
63491.34400669507,126782.0
63491.354057344644,126742.0
63491.36410799421,126763.0
63491.37415864378,126739.0
63491.38420929335,126781.0
63491.394259942914,126751.0
63491.40431059249,126785.0
63491.41436124205,126766.0
63491.424411891625,126764.0
63491.43446254119,126746.0
63491.444513190756,126769.0
63491.45456384033,126774.0
63491.464614489894,126773.0
63491.47466513946,126758.0
63491.48471578903,126784.0
63491.4947664386,126801.0
63491.50481708817,126787.0
63491.51486773774,126757.0
63491.5249183873,126790.0
63491.534969036875,126783.0
63491.54501968644,126759.0
63491.55507033601,126802.0
63491.56512098558,126775.0
63491.575171635144,126761.0
63491.58522228472,126754.0
63491.59527293428,126747.0
63491.605323583855,126748.0
63491.61537423342,126734.0
63491.62542488299,126737.0
63491.63547553256,126758.0
63491.645526182125,126688.0
63491.6555768317,126725.0
63491.66562748126,126723.0
63491.67567813083,126701.0
63491.6857287804,126706.0
63491.69577942997,126722.0
63491.70583007953,126708.0
63491.715880729105,126703.0
63491.72593137867,126723.0
63491.73598202824,126732.0
63491.74603267781,126755.0
63491.756083327375,126733.0
63491.76613397695,126744.0
63491.77618462651,126726.0
63491.786235276086,126702.0
63491.79628592565,126696.0
63491.80633657522,126754.0
63491.81638722479,126718.0
63491.826437874355,126714.0
63491.83648852393,126714.0
63491.84653917349,126748.0
63491.85658982306,126724.0
63491.86664047263,126714.0
63491.8766911222,126724.0
63491.88674177177,126732.0
63491.896792421336,126724.0
63491.9068430709,126698.0
63491.916893720474,126703.0
63491.92694437004,126725.0
63491.936995019605,126688.0
63491.94704566918,126721.0
63491.95709631874,126703.0
63491.967146968316,126704.0
63491.97719761788,126736.0
63491.98724826745,126707.0
63491.99729891702,126743.0
63492.007349566586,126713.0
63492.01740021616,126721.0
63492.027450865724,126712.0
63492.03750151529,126751.0
63492.04755216486,126710.0
63492.05760281443,126733.0
63492.067653464,126741.0
63492.077704113566,126701.0
63492.08775476313,126699.0
63492.097805412704,126748.0
63492.10785606227,126750.0
63492.11790671184,126723.0
63492.12795736141,126762.0
63492.138008010974,126718.0
63492.14805866055,126736.0
63492.15810931011,126732.0
63492.16815995968,126739.0
63492.17821060925,126736.0
63492.188261258816,126741.0
63492.19831190839,126713.0
63492.208362557954,126756.0
63492.21841320752,126715.0
63492.22846385709,126759.0
63492.23851450666,126751.0
63492.24856515623,126765.0
63492.2586158058,126707.0
63492.26866645536,126766.0
63492.278717104935,126759.0
63492.2887677545,126764.0
63492.29881840407,126745.0
63492.30886905364,126755.0
63492.318919703204,126732.0
63492.32897035278,126731.0
63492.33902100234,126786.0
63492.349071651915,126760.0
63492.35912230148,126776.0
63492.36917295105,126750.0
63492.37922360062,126750.0
63492.389274250185,126766.0
63492.39932489975,126769.0
63492.40937554932,126791.0
63492.41942619889,126787.0
63492.42947684846,126775.0
63492.43952749803,126756.0
63492.44957814759,126745.0
63492.459628797165,126802.0
63492.46967944673,126757.0
63492.479730096304,126775.0
63492.48978074587,126760.0
63492.499831395435,126796.0
63492.50988204501,126779.0
63492.51993269457,126779.0
63492.529983344146,126770.0
63492.54003399371,126787.0
63492.55008464328,126735.0
63492.56013529285,126758.0
63492.570185942415,126790.0
63492.58023659199,126755.0
63492.59028724155,126722.0
63492.60033789112,126714.0
63492.61038854069,126707.0
63492.62043919026,126702.0
63492.63048983982,126743.0
63492.640540489396,126722.0
63492.65059113896,126705.0
63492.660641788534,126694.0
63492.6706924381,126687.0
63492.680743087665,126727.0
63492.69079373724,126746.0
63492.7008443868,126700.0
63492.710895036376,126750.0
63492.72094568594,126719.0
63492.73099633551,126660.0
63492.74104698508,126689.0
63492.751097634646,126731.0
63492.76114828422,126710.0
63492.771198933784,126698.0
63492.78124958335,126726.0
63492.79130023292,126730.0
63492.80135088249,126714.0
63492.81140153206,126690.0
63492.821452181626,126732.0
63492.83150283119,126700.0
63492.841553480765,126724.0
63492.85160413033,126705.0
63492.861654779896,126763.0
63492.87170542947,126691.0
63492.881756079034,126704.0
63492.89180672861,126703.0
63492.90185737817,126728.0
63492.91190802774,126711.0
63492.92195867731,126718.0
63492.932009326876,126717.0
63492.94205997645,126718.0
63492.952110626014,126678.0
63492.96216127558,126714.0
63492.97221192515,126690.0
63492.98226257472,126681.0
63492.99231322429,126697.0
63493.00236387386,126711.0
63493.01241452342,126699.0
63493.022465172995,126688.0
63493.03251582256,126694.0
63493.04256647213,126743.0
63493.0526171217,126721.0
63493.062667771264,126701.0
63493.07271842084,126732.0
63493.0827690704,126736.0
63493.09281971997,126734.0
63493.10287036954,126716.0
63493.11292101911,126701.0
63493.12297166868,126702.0
63493.133022318245,126732.0
63493.14307296781,126712.0
63493.15312361738,126739.0
63493.16317426695,126710.0
63493.17322491652,126717.0
63493.18327556609,126743.0
63493.19332621565,126741.0
63493.203376865225,126720.0
63493.21342751479,126737.0
63493.223478164364,126760.0
63493.23352881393,126722.0
63493.243579463495,126716.0
63493.25363011307,126743.0
63493.26368076263,126738.0
63493.273731412206,126713.0
63493.28378206177,126728.0
63493.29383271134,126730.0
63493.30388336091,126733.0
63493.313934010475,126728.0
63493.32398466005,126717.0
63493.334035309614,126742.0
63493.34408595918,126720.0
63493.35413660875,126745.0
63493.36418725832,126745.0
63493.37423790788,126744.0
63493.384288557456,126733.0
63493.39433920702,126720.0
63493.404389856594,126770.0
63493.41444050616,126755.0
63493.424491155725,126755.0
63493.4345418053,126745.0
63493.44459245486,126721.0
63493.45464310444,126747.0
63493.464693754,126736.0
63493.47474440357,126760.0
63493.48479505314,126736.0
63493.494845702706,126691.0
63493.50489635228,126719.0
63493.514947001844,126731.0
63493.52499765141,126692.0
63493.53504830098,126678.0
63493.54509895055,126690.0
63493.55514960011,126714.0
63493.565200249686,126728.0
63493.57525089925,126700.0
63493.585301548825,126696.0
63493.59535219839,126681.0
63493.605402847956,126670.0
63493.61545349753,126700.0
63493.625504147094,126691.0
63493.63555479667,126713.0
63493.64560544623,126682.0
63493.6556560958,126684.0
63493.66570674537,126708.0
63493.675757394936,126639.0
63493.68580804451,126675.0
63493.695858694075,126707.0
63493.70590934364,126688.0
63493.71595999321,126679.0
63493.72601064278,126714.0
63493.73606129235,126669.0
63493.74611194192,126698.0
63493.75616259148,126674.0
63493.766213241055,126691.0
63493.77626389062,126674.0
63493.78631454019,126685.0
63493.79636518976,126684.0
63493.806415839324,126694.0
63493.8164664889,126702.0
63493.82651713846,126688.0
63493.83656778803,126693.0
63493.8466184376,126697.0
63493.85666908717,126707.0
63493.86671973674,126682.0
63493.876770386305,126699.0
63493.88682103587,126700.0
63493.89687168544,126672.0
63493.90692233501,126685.0
63493.91697298458,126678.0
63493.92702363415,126680.0
63493.93707428371,126692.0
63493.947124933286,126708.0
63493.95717558285,126680.0
63493.967226232424,126685.0
63493.97727688199,126667.0
63493.987327531555,126718.0
63493.99737818113,126703.0
63494.00742883069,126682.0
63494.01747948026,126686.0
63494.02753012983,126664.0
63494.0375807794,126703.0
63494.04763142897,126707.0
63494.057682078535,126684.0
63494.0677327281,126692.0
63494.077783377674,126698.0
63494.08783402724,126687.0
63494.09788467681,126722.0
63494.10793532638,126673.0
63494.11798597594,126697.0
63494.128036625516,126690.0
63494.13808727508,126683.0
63494.148137924654,126712.0
63494.15818857422,126723.0
63494.168239223785,126703.0
63494.17828987336,126733.0
63494.188340522924,126717.0
63494.1983911725,126716.0
63494.20844182206,126697.0
63494.21849247163,126720.0
63494.2285431212,126737.0
63494.238593770766,126716.0
63494.24864442034,126707.0
63494.258695069904,126685.0
63494.26874571947,126695.0
63494.27879636904,126709.0
63494.28884701861,126750.0
63494.29889766817,126740.0
63494.30894831775,126729.0
63494.31899896731,126700.0
63494.329049616885,126678.0
63494.33910026645,126670.0
63494.349150916016,126654.0
63494.35920156559,126669.0
63494.369252215154,126673.0
63494.37930286473,126633.0
63494.38935351429,126636.0
63494.39940416386,126668.0
63494.40945481343,126655.0
63494.419505462996,126612.0
63494.42955611257,126634.0
63494.439606762135,126650.0
63494.4496574117,126663.0
63494.45970806127,126687.0
63494.46975871084,126652.0
63494.479809360404,126620.0
63494.48986000998,126637.0
63494.49991065954,126616.0
63494.509961309115,126668.0
63494.52001195868,126661.0
63494.530062608246,126645.0
63494.54011325782,126626.0
63494.550163907385,126668.0
63494.56021455696,126613.0
63494.57026520652,126643.0
63494.58031585609,126637.0
63494.59036650566,126626.0
63494.60041715523,126574.0
63494.6104678048,126629.0
63494.620518454365,126627.0
63494.63056910393,126632.0
63494.6406197535,126616.0
63494.65067040307,126642.0
63494.66072105264,126623.0
63494.67077170221,126638.0
63494.68082235177,126626.0
63494.690873001346,126633.0
63494.70092365091,126625.0
63494.710974300484,126630.0
63494.72102495005,126604.0
63494.731075599615,126614.0
63494.74112624919,126624.0
63494.75117689875,126634.0
63494.76122754832,126675.0
63494.77127819789,126651.0
63494.78132884746,126665.0
63494.79137949703,126627.0
63494.801430146596,126673.0
63494.81148079616,126654.0
63494.821531445734,126632.0
63494.8315820953,126659.0
63494.84163274487,126649.0
63494.85168339444,126662.0
63494.861734044,126670.0
63494.871784693576,126630.0
63494.88183534314,126662.0
63494.891885992714,126657.0
63494.90193664228,126660.0
63494.911987291845,126695.0
63494.92203794142,126658.0
63494.932088590984,126666.0
63494.94213924056,126661.0
63494.95218989012,126669.0
63494.96224053969,126628.0
63494.97229118926,126674.0
63494.982341838826,126662.0
63494.99239248839,126656.0
63495.002443137964,126659.0
63495.01249378753,126654.0
63495.0225444371,126668.0
63495.03259508667,126698.0
63495.042645736234,126658.0
63495.05269638581,126713.0
63495.06274703537,126679.0
63495.072797684945,126697.0
63495.08284833451,126651.0
63495.092898984076,126653.0
63495.10294963365,126686.0
63495.113000283214,126671.0
63495.12305093279,126673.0
63495.13310158235,126630.0
63495.14315223192,126656.0
63495.15320288149,126627.0
63495.16325353106,126677.0
63495.17330418063,126646.0
63495.183354830195,126629.0
63495.19340547976,126602.0
63495.20345612933,126598.0
63495.2135067789,126619.0
63495.223557428464,126613.0
63495.23360807804,126623.0
63495.2436587276,126628.0
63495.253709377175,126581.0
63495.26376002674,126624.0
63495.273810676306,126628.0
63495.28386132588,126577.0
63495.293911975445,126612.0
63495.30396262502,126606.0
63495.31401327458,126617.0
63495.32406392415,126573.0
63495.33411457372,126609.0
63495.34416522329,126585.0
63495.35421587286,126549.0
63495.364266522425,126556.0
63495.37431717199,126583.0
63495.38436782156,126587.0
63495.39441847113,126607.0
63495.4044691207,126573.0
63495.41451977027,126601.0
63495.42457041983,126562.0
63495.434621069406,126579.0
63495.44467171897,126590.0
63495.45472236854,126601.0
63495.46477301811,126609.0
63495.474823667675,126588.0
63495.48487431725,126583.0
63495.49492496681,126576.0
63495.50497561638,126551.0
63495.51502626595,126601.0
63495.52507691552,126617.0
63495.53512756509,126584.0
63495.545178214656,126606.0
63495.55522886422,126597.0
63495.565279513794,126614.0
63495.57533016336,126588.0
63495.58538081293,126604.0
63495.5954314625,126592.0
63495.60548211206,126610.0
63495.615532761636,126566.0
63495.6255834112,126631.0
63495.635634060774,126602.0
63495.64568471034,126596.0
63495.655735359906,126618.0
63495.66578600948,126596.0
63495.675836659044,126609.0
63495.68588730861,126605.0
63495.69593795818,126641.0
63495.70598860775,126612.0
63495.71603925732,126615.0
63495.726089906886,126607.0
63495.73614055645,126625.0
63495.746191206024,126653.0
63495.75624185559,126629.0
63495.76629250516,126611.0
63495.77634315473,126651.0
63495.786393804294,126605.0
63495.79644445387,126596.0
63495.80649510343,126601.0
63495.816545753005,126644.0
63495.82659640257,126602.0
63495.836647052136,126631.0
63495.84669770171,126640.0
63495.856748351274,126661.0
63495.86679900085,126662.0
63495.87684965041,126662.0
63495.88690029998,126647.0
63495.89695094955,126621.0
63495.90700159912,126637.0
63495.91705224868,126656.0
63495.927102898255,126648.0
63495.93715354782,126634.0
63495.94720419739,126628.0
63495.95725484696,126655.0
63495.967305496524,126648.0
63495.9773561461,126638.0
63495.98740679566,126673.0
63495.997457445235,126639.0
63496.0075080948,126652.0
63496.01755874437,126636.0
63496.02760939394,126666.0
63496.037660043505,126674.0
63496.04771069308,126646.0
63496.05776134264,126663.0
63496.06781199221,126659.0
63496.07786264178,126632.0
63496.08791329135,126655.0
63496.09796394092,126642.0
63496.108014590485,126646.0
63496.11806524005,126619.0
63496.12811588962,126630.0
63496.13816653919,126643.0
63496.148217188755,126578.0
63496.15826783833,126582.0
63496.16831848789,126599.0
63496.178369137466,126585.0
63496.18841978703,126570.0
63496.1984704366,126582.0
63496.20852108617,126586.0
63496.218571735735,126545.0
63496.22862238531,126540.0
63496.23867303487,126576.0
63496.24872368444,126575.0
63496.25877433401,126591.0
63496.26882498358,126537.0
63496.27887563315,126584.0
63496.288926282716,126571.0
63496.29897693228,126572.0
63496.309027581854,126593.0
63496.31907823142,126571.0
63496.32912888099,126559.0
63496.33917953056,126547.0
63496.34923018012,126541.0
63496.359280829696,126573.0
63496.36933147926,126526.0
63496.37938212883,126554.0
63496.3894327784,126553.0
63496.399483427966,126551.0
63496.40953407754,126553.0
63496.419584727104,126554.0
63496.42963537667,126548.0
63496.43968602624,126553.0
63496.44973667581,126537.0
63496.45978732538,126579.0
63496.469837974946,126581.0
63496.47988862451,126535.0
63496.489939274084,126582.0
63496.49998992365,126551.0
63496.51004057322,126538.0
63496.52009122279,126541.0
63496.530141872354,126557.0
63496.54019252193,126549.0
63496.55024317149,126572.0
63496.560293821065,126527.0
63496.57034447063,126573.0
63496.580395120196,126567.0
63496.59044576977,126512.0
63496.600496419334,126548.0
63496.6105470689,126548.0
63496.62059771847,126562.0
63496.63064836804,126563.0
63496.64069901761,126575.0
63496.65074966718,126569.0
63496.66080031674,126568.0
63496.670850966315,126547.0
63496.68090161588,126585.0
63496.69095226545,126530.0
63496.70100291502,126583.0
63496.711053564584,126571.0
63496.72110421416,126592.0
63496.73115486372,126551.0
63496.741205513295,126571.0
63496.75125616286,126550.0
63496.76130681243,126599.0
63496.771357462,126585.0
63496.781408111565,126578.0
63496.79145876114,126585.0
63496.8015094107,126574.0
63496.81156006027,126598.0
63496.82161070984,126616.0
63496.83166135941,126591.0
63496.84171200897,126580.0
63496.851762658545,126570.0
63496.86181330811,126632.0
63496.871863957684,126595.0
63496.88191460725,126582.0
63496.891965256815,126634.0
63496.90201590639,126609.0
63496.91206655595,126604.0
63496.922117205526,126596.0
63496.93216785509,126603.0
63496.94221850466,126590.0
63496.95226915423,126605.0
63496.962319803795,126567.0
63496.97237045337,126611.0
63496.98242110293,126636.0
63496.9924717525,126608.0
63497.00252240207,126608.0
63497.01257305164,126607.0
63497.02262370121,126583.0
63497.032674350776,126603.0
63497.04272500034,126578.0
63497.052775649914,126631.0
63497.06282629948,126611.0
63497.072876949045,126604.0
63497.08292759862,126614.0
63497.09297824818,126603.0
63497.103028897756,126598.0
63497.11307954732,126574.0
63497.12313019689,126555.0
63497.13318084646,126539.0
63497.143231496026,126524.0
63497.1532821456,126541.0
63497.163332795164,126577.0
63497.17338344473,126522.0
63497.1834340943,126542.0
63497.19348474387,126540.0
63497.20353539344,126526.0
63497.213586043006,126503.0
63497.22363669257,126572.0
63497.233687342145,126552.0
63497.24373799171,126521.0
63497.25378864128,126531.0
63497.26383929085,126526.0
63497.273889940414,126506.0
63497.28394058999,126539.0
63497.29399123955,126530.0
63497.30404188912,126523.0
63497.31409253869,126553.0
63497.324143188256,126527.0
63497.33419383783,126542.0
63497.344244487394,126551.0
63497.35429513696,126522.0
63497.36434578653,126537.0
63497.3743964361,126527.0
63497.38444708567,126545.0
63497.39449773524,126546.0
63497.4045483848,126544.0
63497.414599034375,126571.0
63497.42464968394,126535.0
63497.43470033351,126565.0
63497.44475098308,126537.0
63497.454801632644,126528.0
63497.46485228222,126551.0
63497.47490293178,126566.0
63497.484953581356,126544.0
63497.49500423092,126508.0
63497.50505488049,126561.0
63497.51510553006,126524.0
63497.525156179625,126560.0
63497.53520682919,126552.0
63497.54525747876,126518.0
63497.55530812833,126513.0
63497.5653587779,126545.0
63497.57540942747,126579.0
63497.58546007703,126548.0
63497.595510726605,126575.0
63497.60556137617,126563.0
63497.615612025744,126560.0
63497.62566267531,126581.0
63497.635713324875,126586.0
63497.64576397445,126568.0
63497.65581462401,126575.0
63497.665865273586,126596.0
63497.67591592315,126556.0
63497.68596657272,126563.0
63497.69601722229,126565.0
63497.706067871855,126560.0
63497.71611852143,126591.0
63497.726169170994,126578.0
63497.73621982056,126575.0
63497.74627047013,126603.0
63497.7563211197,126591.0
63497.76637176926,126600.0
63497.776422418836,126591.0
63497.7864730684,126535.0
63497.796523717974,126567.0
63497.80657436754,126604.0
63497.816625017105,126590.0
63497.82667566668,126582.0
63497.83672631624,126596.0
63497.84677696582,126592.0
63497.85682761538,126596.0
63497.86687826495,126605.0
63497.87692891452,126621.0
63497.886979564086,126597.0
63497.89703021366,126612.0
63497.907080863224,126614.0
63497.91713151279,126574.0
63497.92718216236,126633.0
63497.93723281193,126601.0
63497.9472834615,126625.0
63497.957334111066,126606.0
63497.96738476063,126596.0
63497.977435410205,126620.0
63497.98748605977,126606.0
63497.99753670934,126619.0
63498.00758735891,126610.0
63498.017638008474,126620.0
63498.02768865805,126607.0
63498.03773930761,126608.0
63498.04778995718,126615.0
63498.05784060675,126578.0
63498.067891256316,126557.0
63498.07794190589,126556.0
63498.087992555455,126547.0
63498.09804320502,126559.0
63498.10809385459,126553.0
63498.11814450416,126532.0
63498.12819515373,126580.0
63498.1382458033,126554.0
63498.14829645286,126545.0
63498.158347102435,126576.0
63498.168397752,126532.0
63498.17844840157,126556.0
63498.18849905114,126574.0
63498.198549700704,126533.0
63498.20860035028,126560.0
63498.21865099984,126552.0
63498.22870164941,126548.0
63498.23875229898,126570.0
63498.24880294855,126543.0
63498.25885359812,126529.0
63498.268904247685,126546.0
63498.27895489725,126569.0
63498.28900554682,126572.0
63498.29905619639,126558.0
63498.30910684596,126545.0
63498.31915749553,126553.0
63498.32920814509,126527.0
63498.339258794666,126550.0
63498.34930944423,126535.0
63498.359360093804,126545.0
63498.36941074337,126573.0
63498.379461392935,126528.0
63498.38951204251,126560.0
63498.39956269207,126577.0
63498.409613341646,126564.0
63498.41966399121,126553.0
63498.42971464078,126558.0
63498.43976529035,126549.0
63498.449815939915,126554.0
63498.45986658949,126560.0
63498.469917239054,126566.0
63498.47996788862,126560.0
63498.49001853819,126551.0
63498.50006918776,126562.0
63498.51011983732,126567.0
63498.520170486896,126599.0
63498.53022113646,126564.0
63498.540271786034,126583.0
63498.5503224356,126593.0
63498.560373085165,126559.0
63498.57042373474,126566.0
63498.580474384304,126617.0
63498.59052503388,126553.0
63498.60057568344,126563.0
63498.61062633301,126597.0
63498.62067698258,126616.0
63498.630727632146,126599.0
63498.64077828172,126618.0
63498.650828931284,126617.0
63498.66087958085,126602.0
63498.67093023042,126596.0
63498.68098087999,126594.0
63498.69103152955,126633.0
63498.70108217913,126606.0
63498.71113282869,126607.0
63498.721183478265,126617.0
63498.73123412783,126617.0
63498.741284777396,126612.0
63498.75133542697,126629.0
63498.761386076534,126622.0
63498.77143672611,126612.0
63498.78148737567,126598.0
63498.79153802524,126623.0
63498.80158867481,126616.0
63498.811639324376,126637.0
63498.82168997395,126628.0
63498.831740623515,126600.0
63498.84179127308,126627.0
63498.85184192265,126603.0
63498.86189257222,126597.0
63498.87194322179,126653.0
63498.88199387136,126639.0
63498.89204452092,126633.0
63498.902095170495,126667.0
63498.91214582006,126611.0
63498.92219646963,126649.0
63498.9322471192,126621.0
63498.942297768765,126640.0
63498.95234841834,126626.0
63498.9623990679,126661.0
63498.97244971747,126648.0
63498.98250036704,126659.0
63498.99255101661,126641.0
63499.00260166618,126650.0
63499.012652315745,126686.0
63499.02270296531,126650.0
63499.03275361488,126681.0
63499.04280426445,126662.0
63499.05285491402,126666.0
63499.06290556359,126641.0
63499.07295621315,126628.0
63499.083006862726,126639.0
63499.09305751229,126632.0
63499.103108161864,126603.0
63499.11315881143,126636.0
63499.123209460995,126634.0
63499.13326011057,126579.0
63499.14331076013,126630.0
63499.1533614097,126626.0
63499.16341205927,126590.0
63499.17346270884,126609.0
63499.18351335841,126621.0
63499.193564007976,126612.0
63499.20361465754,126582.0
63499.213665307114,126616.0
63499.22371595668,126620.0
63499.23376660625,126639.0
63499.24381725582,126611.0
63499.25386790538,126588.0
63499.263918554956,126600.0
63499.27396920452,126589.0
63499.284019854094,126589.0
63499.29407050366,126615.0
63499.304121153225,126639.0
63499.3141718028,126598.0
63499.324222452364,126637.0
63499.33427310194,126625.0
63499.3443237515,126604.0
63499.35437440107,126595.0
63499.36442505064,126628.0
63499.374475700206,126629.0
63499.38452634978,126603.0
63499.394576999344,126620.0
63499.40462764891,126624.0
63499.41467829848,126613.0
63499.42472894805,126613.0
63499.434779597614,126629.0
63499.44483024719,126644.0
63499.45488089675,126618.0
63499.464931546325,126612.0
63499.47498219589,126650.0
63499.485032845456,126616.0
63499.49508349503,126618.0
63499.505134144594,126599.0
63499.51518479417,126663.0
63499.52523544373,126600.0
63499.5352860933,126627.0
63499.54533674287,126622.0
63499.55538739244,126627.0
63499.56543804201,126607.0
63499.575488691575,126632.0
63499.58553934114,126615.0
63499.59558999071,126654.0
63499.60564064028,126643.0
63499.61569128985,126638.0
63499.62574193942,126652.0
63499.63579258898,126615.0
63499.645843238555,126644.0
63499.65589388812,126678.0
63499.665944537686,126643.0
63499.67599518726,126656.0
63499.686045836825,126637.0
63499.6960964864,126687.0
63499.70614713596,126665.0
63499.71619778553,126656.0
63499.7262484351,126661.0
63499.73629908467,126685.0
63499.74634973424,126670.0
63499.756400383805,126688.0
63499.76645103337,126650.0
63499.77650168294,126677.0
63499.78655233251,126670.0
63499.79660298208,126684.0
63499.80665363165,126688.0
63499.81670428121,126667.0
63499.826754930786,126690.0
63499.83680558035,126680.0
63499.846856229924,126675.0
63499.85690687949,126657.0
63499.866957529055,126682.0
63499.87700817863,126695.0
63499.88705882819,126652.0
63499.89710947776,126678.0
63499.90716012733,126685.0
63499.9172107769,126687.0
63499.92726142647,126656.0
63499.937312076036,126657.0
63499.9473627256,126699.0
63499.957413375174,126713.0
63499.96746402474,126709.0
63499.97751467431,126716.0
63499.98756532388,126695.0
63499.99761597344,126660.0
63500.007666623016,126687.0
63500.01771727258,126705.0
63500.027767922154,126702.0
63500.03781857172,126707.0
63500.047869221286,126761.0
63500.05791987086,126728.0
63500.067970520424,126715.0
63500.07802117,126673.0
63500.08807181956,126738.0
63500.09812246913,126686.0
63500.1081731187,126692.0
63500.118223768266,126714.0
63500.12827441783,126750.0
63500.138325067404,126721.0
63500.14837571697,126707.0
63500.15842636654,126716.0
63500.16847701611,126686.0
63500.178527665674,126674.0
63500.18857831525,126707.0
63500.19862896481,126666.0
63500.208679614385,126657.0
63500.21873026395,126655.0
63500.228780913516,126622.0
63500.23883156309,126663.0
63500.248882212654,126666.0
63500.25893286223,126633.0
63500.26898351179,126646.0
63500.27903416136,126672.0
63500.28908481093,126642.0
63500.2991354605,126633.0
63500.30918611007,126673.0
63500.319236759635,126635.0
63500.3292874092,126650.0
63500.33933805877,126688.0
63500.34938870834,126651.0
63500.359439357904,126665.0
63500.36949000748,126635.0
63500.37954065704,126682.0
63500.389591306615,126652.0
63500.39964195618,126658.0
63500.40969260575,126638.0
63500.41974325532,126683.0
63500.429793904885,126659.0
63500.43984455446,126665.0
63500.44989520402,126677.0
63500.45994585359,126684.0
63500.46999650316,126677.0
63500.48004715273,126663.0
63500.4900978023,126689.0
63500.500148451865,126671.0
63500.51019910143,126635.0
63500.520249751,126661.0
63500.53030040057,126674.0
63500.54035105014,126688.0
63500.55040169971,126661.0
63500.56045234927,126662.0
63500.570502998846,126651.0
63500.58055364841,126620.0
63500.59060429798,126645.0
63500.60065494755,126685.0
63500.610705597115,126680.0
63500.62075624669,126690.0
63500.63080689625,126664.0
63500.64085754582,126689.0
63500.65090819539,126678.0
63500.66095884496,126666.0
63500.67100949453,126683.0
63500.681060144096,126664.0
63500.69111079366,126699.0
63500.701161443234,126689.0
63500.7112120928,126724.0
63500.72126274237,126701.0
63500.73131339194,126691.0
63500.7413640415,126653.0
63500.751414691076,126710.0
63500.76146534064,126708.0
63500.771515990215,126698.0
63500.78156663978,126725.0
63500.791617289346,126681.0
63500.80166793892,126690.0
63500.811718588484,126699.0
63500.82176923805,126687.0
63500.83181988762,126669.0
63500.84187053719,126723.0
63500.85192118676,126707.0
63500.861971836326,126708.0
63500.87202248589,126664.0
63500.882073135464,126717.0
63500.89212378503,126707.0
63500.9021744346,126690.0
63500.91222508417,126678.0
63500.922275733734,126722.0
63500.93232638331,126718.0
63500.94237703287,126741.0
63500.952427682445,126701.0
63500.96247833201,126688.0
63500.972528981576,126729.0
63500.98257963115,126710.0
63500.992630280714,126748.0
63501.00268093029,126705.0
63501.01273157985,126724.0
63501.02278222942,126737.0
63501.03283287899,126751.0
63501.04288352856,126735.0
63501.05293417812,126718.0
63501.062984827695,126734.0
63501.07303547726,126733.0
63501.08308612683,126704.0
63501.0931367764,126759.0
63501.103187425964,126739.0
63501.11323807554,126754.0
63501.1232887251,126715.0
63501.133339374675,126752.0
63501.14339002424,126735.0
63501.15344067381,126740.0
63501.16349132338,126727.0
63501.173541972945,126699.0
63501.18359262252,126703.0
63501.19364327208,126685.0
63501.20369392165,126713.0
63501.21374457122,126706.0
63501.22379522079,126692.0
63501.23384587036,126720.0
63501.243896519925,126674.0
63501.25394716949,126733.0
63501.263997819064,126691.0
63501.27404846863,126698.0
63501.284099118195,126689.0
63501.29414976777,126720.0
63501.30420041733,126704.0
63501.314251066906,126676.0
63501.32430171647,126693.0
63501.33435236604,126707.0
63501.34440301561,126691.0
63501.354453665175,126698.0
63501.36450431475,126668.0
63501.37455496431,126702.0
63501.38460561388,126710.0
63501.39465626345,126684.0
63501.40470691302,126691.0
63501.41475756259,126665.0
63501.424808212156,126700.0
63501.43485886172,126689.0
63501.444909511294,126681.0
63501.45496016086,126679.0
63501.46501081043,126690.0
63501.47506146,126699.0
63501.48511210956,126682.0
63501.495162759136,126687.0
63501.5052134087,126707.0
63501.51526405827,126685.0
63501.52531470784,126680.0
63501.535365357406,126700.0
63501.54541600698,126724.0
63501.555466656544,126700.0
63501.56551730611,126691.0
63501.57556795568,126717.0
63501.58561860525,126717.0
63501.59566925482,126716.0
63501.605719904386,126693.0
63501.61577055395,126725.0
63501.625821203525,126731.0
63501.63587185309,126730.0
63501.64592250266,126697.0
63501.65597315223,126686.0
63501.666023801794,126699.0
63501.67607445137,126721.0
63501.68612510093,126733.0
63501.696175750505,126750.0
63501.70622640007,126749.0
63501.716277049636,126734.0
63501.72632769921,126757.0
63501.736378348774,126747.0
63501.74642899834,126736.0
63501.75647964791,126744.0
63501.76653029748,126764.0
63501.77658094705,126710.0
63501.78663159662,126732.0
63501.79668224618,126742.0
63501.806732895755,126738.0
63501.81678354532,126742.0
63501.82683419489,126717.0
63501.83688484446,126741.0
63501.846935494024,126764.0
63501.8569861436,126736.0
63501.86703679316,126773.0
63501.877087442736,126754.0
63501.8871380923,126735.0
63501.89718874187,126748.0
63501.90723939144,126736.0
63501.917290041005,126745.0
63501.92734069058,126735.0
63501.93739134014,126747.0
63501.94744198971,126785.0
63501.95749263928,126769.0
63501.96754328885,126746.0
63501.97759393841,126794.0
63501.987644587985,126775.0
63501.99769523755,126755.0
63502.007745887124,126755.0
63502.01779653669,126784.0
63502.027847186255,126759.0
63502.03789783583,126781.0
63502.04794848539,126788.0
63502.057999134966,126793.0
63502.06804978453,126747.0
63502.0781004341,126796.0
63502.08815108367,126780.0
63502.098201733235,126762.0
63502.10825238281,126766.0
63502.118303032374,126809.0
63502.12835368194,126792.0
63502.13840433151,126806.0
63502.14845498108,126791.0
63502.15850563065,126803.0
63502.168556280216,126775.0
63502.17860692978,126735.0
63502.188657579354,126748.0
63502.19870822892,126754.0
63502.208758878485,126756.0
63502.21880952806,126739.0
63502.22886017762,126762.0
63502.2389108272,126730.0
63502.24896147676,126742.0
63502.25901212633,126712.0
63502.2690627759,126774.0
63502.279113425466,126738.0
63502.28916407504,126745.0
63502.299214724604,126755.0
63502.30926537417,126737.0
63502.31931602374,126749.0
63502.32936667331,126758.0
63502.33941732288,126771.0
63502.349467972446,126765.0
63502.35951862201,126746.0
63502.369569271585,126757.0
63502.37961992115,126781.0
63502.38967057072,126758.0
63502.39972122029,126771.0
63502.409771869854,126763.0
63502.41982251943,126757.0
63502.42987316899,126768.0
63502.43992381856,126784.0
63502.44997446813,126774.0
63502.460025117696,126739.0
63502.47007576727,126749.0
63502.480126416835,126780.0
63502.4901770664,126751.0
63502.50022771597,126767.0
63502.51027836554,126772.0
63502.52032901511,126758.0
63502.53037966468,126745.0
63502.54043031424,126771.0
63502.550480963815,126756.0
63502.56053161338,126795.0
63502.57058226295,126774.0
63502.58063291252,126777.0
63502.590683562084,126770.0
63502.60073421166,126740.0
63502.61078486122,126775.0
63502.620835510796,126786.0
63502.63088616036,126770.0
63502.64093680993,126776.0
63502.6509874595,126769.0
63502.661038109065,126796.0
63502.67108875864,126819.0
63502.6811394082,126783.0
63502.69119005777,126782.0
63502.70124070734,126795.0
63502.71129135691,126748.0
63502.72134200647,126796.0
63502.731392656046,126803.0
63502.74144330561,126800.0
63502.751493955184,126770.0
63502.76154460475,126813.0
63502.771595254315,126830.0
63502.78164590389,126801.0
63502.79169655345,126810.0
63502.801747203026,126811.0
63502.81179785259,126803.0
63502.82184850216,126808.0
63502.83189915173,126797.0
63502.841949801295,126815.0
63502.85200045087,126816.0
63502.862051100434,126801.0
63502.87210175,126798.0
63502.88215239957,126828.0
63502.89220304914,126781.0
63502.9022536987,126813.0
63502.912304348276,126824.0
63502.92235499784,126807.0
63502.932405647414,126777.0
63502.94245629698,126803.0
63502.952506946545,126804.0
63502.96255759612,126817.0
63502.972608245684,126797.0
63502.98265889526,126824.0
63502.99270954482,126818.0
63503.00276019439,126836.0
63503.01281084396,126856.0
63503.022861493526,126808.0
63503.0329121431,126835.0
63503.042962792664,126834.0
63503.05301344223,126836.0
63503.0630640918,126847.0
63503.07311474137,126832.0
63503.08316539094,126816.0
63503.09321604051,126861.0
63503.10326669007,126843.0
63503.113317339645,126817.0
63503.12336798921,126835.0
63503.13341863878,126857.0
63503.14346928835,126874.0
63503.153519937914,126853.0
63503.16357058749,126850.0
63503.17362123705,126864.0
63503.18367188662,126817.0
63503.19372253619,126839.0
63503.203773185756,126797.0
63503.21382383533,126796.0
63503.223874484895,126819.0
63503.23392513446,126819.0
63503.24397578403,126837.0
63503.2540264336,126783.0
63503.26407708317,126784.0
63503.27412773274,126813.0
63503.2841783823,126824.0
63503.294229031875,126807.0
63503.30427968144,126794.0
63503.31433033101,126816.0
63503.32438098058,126787.0
63503.334431630145,126825.0
63503.34448227972,126825.0
63503.35453292928,126817.0
63503.36458357885,126846.0
63503.37463422842,126818.0
63503.38468487799,126819.0
63503.39473552756,126805.0
63503.404786177125,126800.0
63503.41483682669,126823.0
63503.42488747626,126825.0
63503.43493812583,126800.0
63503.4449887754,126810.0
63503.45503942497,126801.0
63503.46509007453,126840.0
63503.475140724106,126781.0
63503.48519137367,126818.0
63503.495242023244,126803.0
63503.50529267281,126834.0
63503.515343322375,126795.0
63503.52539397195,126803.0
63503.53544462151,126796.0
63503.545495271086,126797.0
63503.55554592065,126790.0
63503.56559657022,126823.0
63503.57564721979,126820.0
63503.585697869355,126799.0
63503.59574851893,126826.0
63503.605799168494,126820.0
63503.61584981806,126806.0
63503.62590046763,126825.0
63503.6359511172,126842.0
63503.64600176676,126815.0
63503.656052416336,126810.0
63503.6661030659,126810.0
63503.676153715474,126850.0
63503.68620436504,126831.0
63503.696255014605,126836.0
63503.70630566418,126832.0
63503.716356313744,126823.0
63503.72640696332,126825.0
63503.73645761288,126795.0
63503.74650826245,126855.0
63503.75655891202,126840.0
63503.766609561586,126833.0
63503.77666021116,126829.0
63503.786710860724,126813.0
63503.79676151029,126860.0
63503.80681215986,126839.0
63503.81686280943,126837.0
63503.826913458994,126853.0
63503.83696410857,126829.0
63503.84701475813,126837.0
63503.857065407705,126816.0
63503.86711605727,126852.0
63503.877166706836,126860.0
63503.88721735641,126848.0
63503.897268005974,126844.0
63503.90731865555,126827.0
63503.91736930511,126849.0
63503.92741995468,126861.0
63503.93747060425,126854.0
63503.94752125382,126815.0
63503.95757190339,126822.0
63503.967622552955,126848.0
63503.97767320252,126856.0
63503.98772385209,126845.0
63503.99777450166,126828.0
63504.00782515123,126861.0
63504.0178758008,126853.0
63504.02792645036,126824.0
63504.037977099935,126891.0
63504.0480277495,126877.0
63504.05807839907,126862.0
63504.06812904864,126839.0
63504.078179698205,126879.0
63504.08823034778,126840.0
63504.09828099734,126862.0
63504.10833164691,126882.0
63504.11838229648,126851.0
63504.12843294605,126857.0
63504.13848359562,126866.0
63504.148534245185,126902.0
63504.15858489475,126909.0
63504.16863554432,126863.0
63504.17868619389,126856.0
63504.18873684346,126867.0
63504.19878749303,126871.0
63504.20883814259,126842.0
63504.218888792166,126863.0
63504.22893944173,126874.0
63504.238990091304,126844.0
63504.24904074087,126845.0
63504.259091390435,126847.0
63504.26914204001,126840.0
63504.27919268957,126821.0
63504.28924333914,126823.0
63504.29929398871,126852.0
63504.30934463828,126805.0
63504.31939528785,126800.0
63504.329445937416,126867.0
63504.33949658698,126850.0
63504.349547236554,126828.0
63504.35959788612,126857.0
63504.36964853569,126816.0
63504.37969918526,126829.0
63504.38974983482,126844.0
63504.399800484396,126846.0
63504.40985113396,126867.0
63504.419901783534,126836.0
63504.4299524331,126849.0
63504.440003082665,126830.0
63504.45005373224,126822.0
63504.460104381804,126838.0
63504.47015503138,126857.0
63504.48020568094,126859.0
63504.49025633051,126867.0
63504.50030698008,126827.0
63504.510357629646,126849.0
63504.52040827922,126830.0
63504.530458928784,126851.0
63504.54050957835,126877.0
63504.55056022792,126850.0
63504.56061087749,126871.0
63504.570661527054,126853.0
63504.58071217663,126842.0
63504.59076282619,126842.0
63504.600813475765,126827.0
63504.61086412533,126866.0
63504.620914774896,126851.0
63504.63096542447,126855.0
63504.641016074034,126859.0
63504.65106672361,126873.0
63504.66111737317,126841.0
63504.67116802274,126864.0
63504.68121867231,126869.0
63504.69126932188,126853.0
63504.70131997145,126857.0
63504.711370621015,126824.0
63504.72142127058,126861.0
63504.73147192015,126855.0
63504.74152256972,126859.0
63504.75157321929,126869.0
63504.76162386886,126903.0
63504.77167451842,126856.0
63504.781725167995,126893.0
63504.79177581756,126883.0
63504.80182646713,126866.0
63504.8118771167,126876.0
63504.821927766265,126902.0
63504.83197841584,126855.0
63504.8420290654,126885.0
63504.85207971497,126898.0
63504.86213036454,126866.0
63504.87218101411,126885.0
63504.88223166368,126893.0
63504.892282313245,126878.0
63504.90233296281,126878.0
63504.91238361238,126918.0
63504.92243426195,126899.0
63504.93248491152,126882.0
63504.94253556109,126876.0
63504.95258621065,126877.0
63504.962636860226,126889.0
63504.97268750979,126912.0
63504.982738159364,126918.0
63504.99278880893,126922.0
63505.002839458495,126899.0
63505.01289010807,126884.0
63505.02294075763,126885.0
63505.0329914072,126920.0
63505.04304205677,126909.0
63505.05309270634,126887.0
63505.06314335591,126899.0
63505.073194005476,126913.0
63505.08324465504,126903.0
63505.093295304614,126876.0
63505.10334595418,126896.0
63505.11339660375,126854.0
63505.12344725332,126867.0
63505.13349790288,126853.0
63505.143548552456,126879.0
63505.15359920202,126860.0
63505.163649851595,126863.0
63505.17370050116,126869.0
63505.183751150726,126875.0
63505.1938018003,126858.0
63505.203852449864,126867.0
63505.21390309944,126896.0
63505.223953749,126880.0
63505.23400439857,126864.0
63505.24405504814,126878.0
63505.254105697706,126862.0
63505.26415634727,126847.0
63505.274206996844,126854.0
63505.28425764641,126865.0
63505.29430829598,126836.0
63505.30435894555,126848.0
63505.314409595114,126832.0
63505.32446024469,126844.0
63505.33451089425,126859.0
63505.344561543825,126835.0
63505.35461219339,126882.0
63505.364662842956,126839.0
63505.37471349253,126831.0
63505.384764142094,126842.0
63505.39481479167,126879.0
63505.40486544123,126843.0
63505.4149160908,126869.0
63505.42496674037,126864.0
63505.43501738994,126884.0
63505.44506803951,126843.0
63505.455118689075,126881.0
63505.46516933864,126897.0
63505.47521998821,126868.0
63505.48527063778,126879.0
63505.495321287344,126881.0
63505.50537193692,126899.0
63505.51542258648,126874.0
63505.525473236055,126874.0
63505.53552388562,126873.0
63505.54557453519,126895.0
63505.55562518476,126864.0
63505.565675834325,126906.0
63505.5757264839,126883.0
63505.58577713346,126884.0
63505.59582778303,126906.0
63505.6058784326,126898.0
63505.61592908217,126887.0
63505.62597973174,126892.0
63505.636030381305,126900.0
63505.64608103087,126879.0
63505.656131680444,126880.0
63505.66618233001,126868.0
63505.67623297958,126899.0
63505.68628362915,126869.0
63505.69633427871,126890.0
63505.706384928286,126881.0
63505.71643557785,126925.0
63505.72648622742,126878.0
63505.73653687699,126901.0
63505.746587526555,126871.0
63505.75663817613,126900.0
63505.76668882569,126881.0
63505.77673947526,126873.0
63505.78679012483,126892.0
63505.7968407744,126858.0
63505.80689142397,126888.0
63505.816942073536,126903.0
63505.8269927231,126892.0
63505.837043372674,126906.0
63505.84709402224,126897.0
63505.85714467181,126910.0
63505.86719532138,126911.0
63505.87724597094,126910.0
63505.887296620516,126882.0
63505.89734727008,126889.0
63505.907397919655,126895.0
63505.91744856922,126843.0
63505.927499218786,126868.0
63505.93754986836,126871.0
63505.947600517924,126863.0
63505.95765116749,126838.0
63505.96770181706,126859.0
63505.97775246663,126828.0
63505.9878031162,126871.0
63505.997853765766,126875.0
63506.00790441533,126862.0
63506.017955064905,126830.0
63506.02800571447,126856.0
63506.03805636404,126833.0
63506.04810701361,126876.0
63506.058157663174,126847.0
63506.06820831275,126863.0
63506.07825896231,126862.0
63506.088309611885,126826.0
63506.09836026145,126838.0
63506.108410911016,126860.0
63506.11846156059,126885.0
63506.128512210154,126873.0
63506.13856285973,126842.0
63506.14861350929,126853.0
63506.15866415886,126875.0
63506.16871480843,126876.0
63506.178765458,126881.0
63506.18881610756,126856.0
63506.198866757135,126845.0
63506.2089174067,126837.0
63506.21896805627,126874.0
63506.22901870584,126874.0
63506.239069355404,126866.0
63506.24912000498,126859.0
63506.25917065454,126872.0
63506.269221304115,126839.0
63506.27927195368,126876.0
63506.28932260325,126872.0
63506.29937325282,126881.0
63506.309423902385,126814.0
63506.31947455196,126860.0
63506.32952520152,126824.0
63506.33957585109,126842.0
63506.34962650066,126838.0
63506.35967715023,126883.0
63506.3697277998,126858.0
63506.379778449365,126865.0
63506.38982909893,126835.0
63506.399879748504,126871.0
63506.40993039807,126894.0
63506.419981047635,126855.0
63506.43003169721,126857.0
63506.44008234677,126900.0
63506.450132996346,126873.0
63506.46018364591,126856.0
63506.47023429548,126887.0
63506.48028494505,126870.0
63506.490335594615,126868.0
63506.50038624419,126893.0
63506.510436893754,126917.0
63506.52048754332,126883.0
63506.53053819289,126878.0
63506.54058884246,126869.0
63506.55063949203,126900.0
63506.560690141596,126878.0
63506.57074079116,126889.0
63506.580791440734,126888.0
63506.5908420903,126896.0
63506.60089273987,126894.0
63506.61094338944,126901.0
63506.620994039,126887.0
63506.63104468858,126931.0
63506.64109533814,126901.0
63506.65114598771,126884.0
63506.66119663728,126909.0
63506.671247286846,126858.0
63506.68129793642,126887.0
63506.691348585984,126902.0
63506.70139923555,126849.0
63506.71144988512,126860.0
63506.72150053469,126866.0
63506.73155118426,126842.0
63506.741601833826,126872.0
63506.75165248339,126837.0
63506.761703132965,126855.0
63506.77175378253,126869.0
63506.7818044321,126850.0
63506.79185508167,126860.0
63506.801905731234,126836.0
63506.81195638081,126877.0
63506.82200703037,126876.0
63506.832057679945,126872.0
63506.84210832951,126914.0
63506.852158979076,126858.0
63506.86220962865,126830.0
63506.872260278215,126881.0
63506.88231092778,126843.0
63506.89236157735,126863.0
63506.90241222692,126858.0
63506.91246287649,126882.0
63506.92251352606,126853.0
63506.93256417562,126865.0
63506.942614825195,126855.0
63506.95266547476,126891.0
63506.96271612433,126832.0
63506.9727667739,126862.0
63506.982817423464,126837.0
63506.99286807304,126852.0
63507.0029187226,126875.0
63507.012969372176,126847.0
63507.02302002174,126873.0
63507.03307067131,126846.0
63507.04312132088,126830.0
63507.053171970445,126845.0
63507.06322262002,126870.0
63507.07327326958,126834.0
63507.08332391915,126842.0
63507.09337456872,126846.0
63507.10342521829,126845.0
63507.11347586785,126821.0
63507.123526517425,126856.0
63507.13357716699,126846.0
63507.143627816564,126854.0
63507.15367846613,126834.0
63507.163729115695,126882.0
63507.17377976527,126855.0
63507.18383041483,126844.0
63507.193881064406,126856.0
63507.20393171397,126868.0
63507.21398236354,126840.0
63507.22403301311,126872.0
63507.234083662675,126881.0
63507.24413431225,126875.0
63507.254184961814,126824.0
63507.26423561138,126866.0
63507.27428626095,126894.0
63507.28433691052,126874.0
63507.29438756009,126884.0
63507.304438209656,126882.0
63507.31448885922,126852.0
63507.324539508794,126868.0
63507.33459015836,126891.0
63507.344640807925,126884.0
63507.3546914575,126884.0
63507.364742107064,126908.0
63507.37479275664,126872.0
63507.3848434062,126873.0
63507.39489405577,126852.0
63507.40494470534,126850.0
63507.414995354906,126912.0
63507.42504600448,126898.0
63507.435096654044,126856.0
63507.44514730361,126846.0
63507.45519795318,126869.0
63507.46524860275,126874.0
63507.47529925232,126864.0
63507.48534990189,126851.0
63507.49540055145,126836.0
63507.505451201025,126825.0
63507.51550185059,126838.0
63507.52555250016,126813.0
63507.53560314973,126861.0
63507.545653799294,126846.0
63507.55570444887,126815.0
63507.56575509843,126799.0
63507.575805748,126828.0
63507.58585639757,126843.0
63507.595907047136,126857.0
63507.60595769671,126853.0
63507.616008346275,126829.0
63507.62605899584,126826.0
63507.63610964541,126829.0
63507.64616029498,126837.0
63507.65621094455,126818.0
63507.66626159412,126814.0
63507.67631224368,126810.0
63507.686362893255,126828.0
63507.69641354282,126777.0
63507.70646419239,126804.0
63507.71651484196,126821.0
63507.726565491525,126812.0
63507.7366161411,126799.0
63507.74666679066,126796.0
63507.756717440236,126817.0
63507.7667680898,126791.0
63507.77681873937,126806.0
63507.78686938894,126788.0
63507.796920038505,126816.0
63507.80697068808,126788.0
63507.81702133764,126823.0
63507.82707198721,126823.0
63507.83712263678,126820.0
63507.84717328635,126802.0
63507.85722393591,126792.0
63507.867274585486,126816.0
63507.87732523505,126831.0
63507.887375884624,126798.0
63507.89742653419,126823.0
63507.907477183755,126786.0
63507.91752783333,126818.0
63507.92757848289,126808.0
63507.937629132466,126840.0
63507.94767978203,126849.0
63507.9577304316,126841.0
63507.96778108117,126845.0
63507.977831730735,126844.0
63507.98788238031,126829.0
63507.997933029874,126834.0
63508.00798367944,126854.0
63508.01803432901,126869.0
63508.02808497858,126817.0
63508.03813562814,126858.0
63508.048186277716,126871.0
63508.05823692728,126844.0
63508.068287576854,126855.0
63508.07833822642,126830.0
63508.088388875985,126811.0
63508.09843952556,126859.0
63508.108490175124,126833.0
63508.1185408247,126839.0
63508.12859147426,126824.0
63508.13864212383,126812.0
63508.1486927734,126823.0
63508.158743422966,126835.0
63508.16879407254,126873.0
63508.178844722104,126832.0
63508.18889537167,126864.0
63508.19894602124,126850.0
63508.20899667081,126848.0
63508.21904732038,126837.0
63508.22909796995,126863.0
63508.23914861951,126811.0
63508.249199269085,126821.0
63508.25924991865,126789.0
63508.26930056822,126815.0
63508.27935121779,126807.0
63508.289401867354,126804.0
63508.29945251693,126825.0
63508.30950316649,126815.0
63508.31955381606,126814.0
63508.32960446563,126798.0
63508.3396551152,126800.0
63508.34970576477,126807.0
63508.359756414335,126788.0
63508.3698070639,126800.0
63508.37985771347,126821.0
63508.38990836304,126768.0
63508.39995901261,126774.0
63508.41000966218,126797.0
63508.42006031174,126763.0
63508.430110961315,126775.0
63508.44016161088,126804.0
63508.45021226045,126774.0
63508.46026291002,126796.0
63508.470313559585,126780.0
63508.48036420916,126821.0
63508.49041485872,126800.0
63508.50046550829,126769.0
63508.51051615786,126772.0
63508.52056680743,126774.0
63508.530617457,126796.0
63508.540668106565,126780.0
63508.55071875613,126793.0
63508.5607694057,126773.0
63508.57082005527,126771.0
63508.58087070484,126788.0
63508.59092135441,126815.0
63508.60097200397,126782.0
63508.611022653546,126791.0
63508.62107330311,126804.0
63508.631123952684,126774.0
63508.64117460225,126810.0
63508.651225251815,126802.0
63508.66127590139,126805.0
63508.67132655095,126818.0
63508.681377200526,126790.0
63508.69142785009,126827.0
63508.70147849966,126764.0
63508.71152914923,126770.0
63508.721579798796,126815.0
63508.73163044837,126813.0
63508.741681097934,126807.0
63508.7517317475,126809.0
63508.76178239707,126791.0
63508.77183304664,126797.0
63508.7818836962,126808.0
63508.791934345776,126782.0
63508.80198499534,126814.0
63508.812035644914,126826.0
63508.82208629448,126797.0
63508.832136944045,126772.0
63508.84218759362,126814.0
63508.852238243184,126774.0
63508.86228889276,126801.0
63508.87233954232,126769.0
63508.88239019189,126830.0
63508.89244084146,126789.0
63508.902491491026,126819.0
63508.9125421406,126815.0
63508.922592790164,126802.0
63508.93264343973,126789.0
63508.9426940893,126805.0
63508.95274473887,126833.0
63508.962795388434,126772.0
63508.97284603801,126797.0
63508.98289668757,126803.0
63508.992947337145,126825.0
63509.00299798671,126822.0
63509.013048636276,126811.0
63509.02309928585,126815.0
63509.033149935414,126812.0
63509.04320058499,126797.0
63509.05325123455,126845.0
63509.06330188412,126808.0
63509.07335253369,126793.0
63509.08340318326,126794.0
63509.09345383283,126802.0
63509.103504482395,126746.0
63509.11355513196,126797.0
63509.12360578153,126767.0
63509.1336564311,126782.0
63509.14370708067,126739.0
63509.15375773024,126785.0
63509.1638083798,126750.0
63509.173859029375,126798.0
63509.18390967894,126755.0
63509.193960328514,126783.0
63509.20401097808,126781.0
63509.214061627645,126761.0
63509.22411227722,126753.0
63509.23416292678,126769.0
63509.24421357635,126782.0
63509.25426422592,126756.0
63509.26431487549,126771.0
63509.27436552506,126767.0
63509.284416174625,126764.0
63509.29446682419,126749.0
63509.30451747376,126798.0
63509.31456812333,126775.0
63509.3246187729,126778.0
63509.33466942247,126790.0
63509.34472007203,126791.0
63509.354770721606,126774.0
63509.36482137117,126736.0
63509.374872020744,126763.0
63509.38492267031,126768.0
63509.394973319875,126764.0
63509.40502396945,126780.0
63509.41507461901,126784.0
63509.425125268586,126784.0
63509.43517591815,126774.0
63509.44522656772,126755.0
63509.45527721729,126765.0
63509.465327866856,126798.0
63509.47537851642,126783.0
63509.485429165994,126776.0
63509.49547981556,126839.0
63509.50553046513,126760.0
63509.5155811147,126775.0
63509.52563176426,126745.0
63509.535682413836,126800.0
63509.5457330634,126766.0
63509.555783712975,126762.0
63509.56583436254,126779.0
63509.575885012106,126795.0
63509.58593566168,126783.0
63509.595986311244,126789.0
63509.60603696082,126799.0
63509.61608761038,126761.0
63509.62613825995,126759.0
63509.63618890952,126822.0
63509.646239559086,126781.0
63509.65629020866,126774.0
63509.666340858224,126775.0
63509.67639150779,126815.0
63509.68644215736,126801.0
63509.69649280693,126801.0
63509.706543456494,126801.0
63509.71659410607,126793.0
63509.72664475563,126796.0
63509.736695405205,126788.0
63509.74674605477,126799.0
63509.756796704336,126810.0
63509.76684735391,126775.0
63509.776898003474,126781.0
63509.78694865305,126818.0
63509.79699930261,126790.0
63509.80704995218,126810.0
63509.81710060175,126810.0
63509.82715125132,126797.0
63509.83720190089,126802.0
63509.847252550455,126818.0
63509.85730320002,126806.0
63509.86735384959,126827.0
63509.87740449916,126799.0
63509.88745514873,126803.0
63509.8975057983,126795.0
63509.90755644786,126791.0
63509.917607097435,126766.0
63509.927657747,126776.0
63509.93770839657,126756.0
63509.94775904614,126768.0
63509.957809695705,126797.0
63509.96786034528,126777.0
63509.97791099484,126798.0
63509.98796164441,126784.0
63509.99801229398,126785.0
63510.00806294355,126761.0
63510.01811359312,126766.0
63510.028164242685,126738.0
63510.03821489225,126778.0
63510.048265541824,126792.0
63510.05831619139,126754.0
63510.06836684096,126769.0
63510.07841749053,126758.0
63510.08846814009,126740.0
63510.098518789666,126767.0
63510.10856943923,126718.0
63510.118620088804,126776.0
63510.12867073837,126746.0
63510.138721387935,126758.0
63510.14877203751,126753.0
63510.15882268707,126737.0
63510.16887333664,126717.0
63510.17892398621,126760.0
63510.18897463578,126744.0
63510.19902528535,126791.0
63510.209075934916,126746.0
63510.21912658448,126767.0
63510.229177234054,126778.0
63510.23922788362,126754.0
63510.24927853319,126764.0
63510.25932918276,126776.0
63510.26937983232,126761.0
63510.279430481896,126746.0
63510.28948113146,126807.0
63510.299531781035,126788.0
63510.3095824306,126779.0
63510.319633080166,126742.0
63510.32968372974,126784.0
63510.339734379304,126773.0
63510.34978502888,126769.0
63510.35983567844,126810.0
63510.36988632801,126800.0
63510.37993697758,126797.0
63510.389987627146,126799.0
63510.40003827671,126756.0
63510.410088926285,126775.0
63510.42013957585,126793.0
63510.43019022542,126768.0
63510.44024087499,126822.0
63510.450291524554,126803.0
63510.46034217413,126794.0
63510.47039282369,126784.0
63510.480443473265,126822.0
63510.49049412283,126790.0
63510.500544772396,126790.0
63510.51059542197,126794.0
63510.520646071534,126827.0
63510.53069672111,126823.0
63510.54074737067,126805.0
63510.55079802024,126805.0
63510.56084866981,126745.0
63510.57089931938,126839.0
63510.58094996895,126835.0
63510.591000618515,126807.0
63510.60105126808,126829.0
63510.61110191765,126783.0
63510.62115256722,126818.0
63510.631203216784,126828.0
63510.64125386636,126812.0
63510.65130451592,126800.0
63510.661355165495,126812.0
63510.67140581506,126819.0
63510.68145646463,126819.0
63510.6915071142,126826.0
63510.701557763765,126817.0
63510.71160841334,126818.0
63510.7216590629,126834.0
63510.73170971247,126812.0
63510.74176036204,126798.0
63510.75181101161,126835.0
63510.76186166118,126821.0
63510.771912310745,126815.0
63510.78196296031,126831.0
63510.792013609884,126843.0
63510.80206425945,126828.0
63510.81211490902,126862.0
63510.82216555859,126831.0
63510.83221620815,126818.0
63510.842266857726,126826.0
63510.85231750729,126819.0
63510.86236815686,126785.0
63510.87241880643,126811.0
63510.882469455995,126790.0
63510.89252010557,126804.0
63510.902570755134,126793.0
63510.9126214047,126797.0
63510.92267205427,126775.0
63510.93272270384,126785.0
63510.94277335341,126815.0
63510.952824002976,126793.0
63510.96287465254,126778.0
63510.972925302114,126773.0
63510.98297595168,126805.0
63510.99302660125,126760.0
63511.00307725082,126799.0
63511.01312790038,126794.0
63511.023178549956,126819.0
63511.03322919952,126806.0
63511.043279849095,126794.0
63511.05333049866,126780.0
63511.063381148226,126792.0
63511.0734317978,126821.0
63511.083482447364,126808.0
63511.09353309693,126747.0
63511.1035837465,126771.0
63511.11363439607,126809.0
63511.12368504564,126790.0
63511.133735695206,126792.0
63511.14378634477,126817.0
63511.153836994345,126784.0
63511.16388764391,126803.0
63511.17393829348,126830.0
63511.18398894305,126769.0
63511.194039592614,126827.0
63511.20409024219,126798.0
63511.21414089175,126766.0
63511.224191541325,126835.0
63511.23424219089,126777.0
63511.244292840456,126810.0
63511.25434349003,126819.0
63511.264394139595,126796.0
63511.27444478917,126767.0
63511.28449543873,126802.0
63511.2945460883,126812.0
63511.30459673787,126830.0
63511.31464738744,126814.0
63511.324698037,126813.0
63511.334748686575,126845.0
63511.34479933614,126803.0
63511.35484998571,126827.0
63511.36490063528,126799.0
63511.374951284844,126785.0
63511.38500193442,126801.0
63511.39505258398,126845.0
63511.405103233556,126826.0
63511.41515388312,126828.0
63511.42520453269,126812.0
63511.43525518226,126809.0
63511.445305831825,126806.0
63511.4553564814,126830.0
63511.46540713096,126834.0
63511.47545778053,126837.0
63511.4855084301,126839.0
63511.49555907967,126823.0
63511.50560972924,126832.0
63511.515660378805,126794.0
63511.52571102837,126817.0
63511.535761677944,126833.0
63511.54581232751,126848.0
63511.555862977075,126823.0
63511.56591362665,126801.0
63511.57596427621,126844.0
63511.586014925786,126799.0
63511.59606557535,126811.0
63511.60611622492,126846.0
63511.61616687449,126843.0
63511.626217524055,126795.0
63511.63626817363,126823.0
63511.646318823194,126855.0
63511.65636947276,126833.0
63511.66642012233,126827.0
63511.6764707719,126832.0
63511.68652142147,126867.0
63511.696572071036,126839.0
63511.7066227206,126858.0
63511.716673370174,126857.0
63511.72672401974,126868.0
63511.73677466931,126849.0
63511.74682531888,126839.0
63511.75687596844,126861.0
63511.76692661802,126856.0
63511.77697726758,126848.0
63511.78702791715,126853.0
63511.79707856672,126854.0
63511.807129216286,126864.0
63511.81717986586,126855.0
63511.827230515424,126873.0
63511.83728116499,126885.0
63511.84733181456,126840.0
63511.85738246413,126867.0
63511.8674331137,126884.0
63511.877483763266,126854.0
63511.88753441283,126860.0
63511.897585062405,126880.0
63511.90763571197,126840.0
63511.91768636154,126839.0
63511.92773701111,126806.0
63511.937787660674,126872.0
63511.94783831025,126839.0
63511.95788895981,126814.0
63511.967939609385,126855.0
63511.97799025895,126801.0
63511.988040908516,126830.0
63511.99809155809,126817.0
63512.008142207655,126820.0
63512.01819285722,126798.0
63512.02824350679,126794.0
63512.03829415636,126819.0
63512.04834480593,126837.0
63512.0583954555,126807.0
63512.06844610506,126834.0
63512.078496754635,126857.0
63512.0885474042,126841.0
63512.09859805377,126795.0
63512.10864870334,126823.0
63512.118699352905,126844.0
63512.12875000248,126792.0
63512.13880065204,126811.0
63512.148851301616,126816.0
63512.15890195118,126855.0
63512.16895260075,126794.0
63512.17900325032,126826.0
63512.189053899885,126823.0
63512.19910454946,126798.0
63512.20915519902,126839.0
63512.21920584859,126819.0
63512.22925649816,126837.0
63512.23930714773,126837.0
63512.24935779729,126832.0
63512.259408446866,126840.0
63512.26945909643,126822.0
63512.279509746004,126808.0
63512.28956039557,126829.0
63512.299611045135,126827.0
63512.30966169471,126818.0
63512.31971234427,126851.0
63512.329762993846,126852.0
63512.33981364341,126812.0
63512.34986429298,126829.0
63512.35991494255,126827.0
63512.369965592115,126856.0
63512.38001624169,126819.0
63512.390066891254,126841.0
63512.40011754082,126830.0
63512.41016819039,126864.0
63512.42021883996,126828.0
63512.43026948953,126821.0
63512.440320139096,126823.0
63512.45037078866,126853.0
63512.460421438234,126807.0
63512.4704720878,126858.0
63512.48052273737,126837.0
63512.49057338694,126824.0
63512.500624036504,126845.0
63512.51067468608,126823.0
63512.52072533564,126831.0
63512.53077598521,126849.0
63512.54082663478,126845.0
63512.550877284346,126853.0
63512.56092793392,126869.0
63512.570978583484,126829.0
63512.58102923305,126828.0
63512.59107988262,126831.0
63512.60113053219,126856.0
63512.61118118176,126841.0
63512.62123183133,126859.0
63512.63128248089,126829.0
63512.641333130465,126852.0
63512.65138378003,126830.0
63512.6614344296,126882.0
63512.67148507917,126844.0
63512.681535728734,126846.0
63512.69158637831,126873.0
63512.70163702787,126827.0
63512.71168767744,126826.0
63512.72173832701,126857.0
63512.731788976576,126866.0
63512.74183962615,126844.0
63512.751890275715,126833.0
63512.76194092528,126861.0
63512.77199157485,126895.0
63512.78204222442,126864.0
63512.79209287399,126843.0
63512.80214352356,126868.0
63512.81219417312,126873.0
63512.822244822695,126834.0
63512.83229547226,126880.0
63512.84234612183,126864.0
63512.8523967714,126860.0
63512.862447420965,126860.0
63512.87249807054,126851.0
63512.8825487201,126877.0
63512.892599369676,126870.0
63512.90265001924,126895.0
63512.91270066881,126859.0
63512.92275131838,126824.0
63512.932801967945,126846.0
63512.94285261752,126823.0
63512.95290326708,126867.0
63512.96295391665,126825.0
63512.97300456622,126830.0
63512.98305521579,126826.0
63512.99310586535,126859.0
63513.003156514926,126801.0
63513.01320716449,126850.0
63513.023257814064,126849.0
63513.03330846363,126834.0
63513.043359113195,126814.0
63513.05340976277,126853.0
63513.06346041233,126877.0
63513.073511061906,126829.0
63513.08356171147,126846.0
63513.09361236104,126842.0
63513.10366301061,126804.0
63513.113713660176,126819.0
63513.12376430975,126877.0
63513.133814959314,126860.0
63513.14386560888,126817.0
63513.15391625845,126844.0
63513.16396690802,126859.0
63513.17401755758,126836.0
63513.184068207156,126850.0
63513.19411885672,126865.0
63513.204169506294,126829.0
63513.21422015586,126850.0
63513.224270805425,126783.0
63513.234321455,126853.0
63513.244372104564,126863.0
63513.25442275414,126843.0
63513.2644734037,126817.0
63513.27452405327,126867.0
63513.28457470284,126836.0
63513.294625352406,126862.0
63513.30467600198,126840.0
63513.314726651544,126843.0
63513.32477730111,126855.0
63513.33482795068,126839.0
63513.34487860025,126844.0
63513.35492924982,126854.0
63513.36497989939,126824.0
63513.37503054895,126855.0
63513.385081198525,126847.0
63513.39513184809,126872.0
63513.40518249766,126875.0
63513.41523314723,126890.0
63513.425283796794,126863.0
63513.43533444637,126853.0
63513.44538509593,126856.0
63513.4554357455,126865.0
63513.46548639507,126866.0
63513.47553704464,126847.0
63513.48558769421,126874.0
63513.495638343775,126878.0
63513.50568899334,126863.0
63513.51573964291,126877.0
63513.52579029248,126890.0
63513.53584094205,126883.0
63513.54589159162,126863.0
63513.55594224118,126867.0
63513.565992890755,126903.0
63513.57604354032,126845.0
63513.58609418989,126862.0
63513.59614483946,126843.0
63513.606195489025,126898.0
63513.6162461386,126845.0
63513.62629678816,126879.0
63513.63634743773,126866.0
63513.6463980873,126894.0
63513.65644873687,126869.0
63513.66649938644,126880.0
63513.676550036005,126891.0
63513.68660068557,126899.0
63513.69665133514,126846.0
63513.70670198471,126887.0
63513.71675263428,126870.0
63513.72680328385,126881.0
63513.73685393341,126917.0
63513.746904582986,126898.0
63513.75695523255,126882.0
63513.767005882124,126871.0
63513.77705653169,126898.0
63513.787107181255,126890.0
63513.79715783083,126866.0
63513.80720848039,126860.0
63513.817259129966,126892.0
63513.82730977953,126875.0
63513.8373604291,126863.0
63513.84741107867,126867.0
63513.857461728236,126865.0
63513.86751237781,126844.0
63513.877563027374,126863.0
63513.88761367694,126853.0
63513.89766432651,126874.0
63513.90771497608,126860.0
63513.91776562564,126853.0
63513.927816275216,126866.0
63513.93786692478,126842.0
63513.947917574355,126860.0
63513.95796822392,126863.0
63513.968018873486,126874.0
63513.97806952306,126864.0
63513.988120172624,126855.0
63513.9981708222,126867.0
63514.00822147176,126857.0
63514.01827212133,126856.0
63514.0283227709,126871.0
63514.038373420466,126860.0
63514.04842407004,126875.0
63514.058474719604,126840.0
63514.06852536917,126888.0
63514.07857601874,126858.0
63514.08862666831,126865.0
63514.09867731788,126836.0
63514.10872796745,126831.0
63514.11877861701,126881.0
63514.128829266585,126850.0
63514.13887991615,126880.0
63514.148930565716,126868.0
63514.15898121529,126841.0
63514.169031864854,126840.0
63514.17908251443,126871.0
63514.18913316399,126898.0
63514.19918381356,126876.0
63514.20923446313,126886.0
63514.2192851127,126867.0
63514.22933576227,126845.0
63514.239386411835,126867.0
63514.2494370614,126849.0
63514.25948771097,126901.0
63514.26953836054,126865.0
63514.27958901011,126857.0
63514.28963965968,126902.0
63514.29969030924,126873.0
63514.309740958815,126860.0
63514.31979160838,126917.0
63514.329842257954,126881.0
63514.33989290752,126857.0
63514.349943557085,126896.0
63514.35999420666,126863.0
63514.37004485622,126890.0
63514.38009550579,126864.0
63514.39014615536,126878.0
63514.40019680493,126898.0
63514.4102474545,126902.0
63514.420298104065,126888.0
63514.43034875363,126908.0
63514.4403994032,126910.0
63514.45045005277,126899.0
63514.46050070234,126865.0
63514.47055135191,126879.0
63514.48060200147,126915.0
63514.490652651046,126907.0
63514.50070330061,126881.0
63514.510753950184,126909.0
63514.52080459975,126892.0
63514.530855249315,126904.0
63514.54090589889,126915.0
63514.55095654845,126919.0
63514.561007198026,126892.0
63514.57105784759,126899.0
63514.58110849716,126916.0
63514.59115914673,126923.0
63514.601209796296,126917.0
63514.61126044586,126920.0
63514.621311095434,126907.0
63514.631361745,126927.0
63514.64141239457,126913.0
63514.65146304414,126917.0
63514.6615136937,126920.0
63514.671564343276,126925.0
63514.68161499284,126895.0
63514.691665642415,126926.0
63514.70171629198,126901.0
63514.711766941546,126929.0
63514.72181759112,126932.0
63514.731868240684,126928.0
63514.74191889026,126917.0
63514.75196953982,126891.0
63514.76202018939,126919.0
63514.77207083896,126901.0
63514.782121488526,126915.0
63514.7921721381,126893.0
63514.802222787665,126907.0
63514.81227343723,126921.0
63514.8223240868,126919.0
63514.83237473637,126866.0
63514.842425385934,126865.0
63514.85247603551,126906.0
63514.86252668507,126889.0
63514.872577334645,126856.0
63514.88262798421,126913.0
63514.892678633776,126882.0
63514.90272928335,126902.0
63514.912779932914,126899.0
63514.92283058249,126910.0
63514.93288123205,126885.0
63514.94293188162,126890.0
63514.95298253119,126881.0
63514.96303318076,126906.0
63514.97308383033,126872.0
63514.983134479895,126895.0
63514.99318512946,126895.0
63515.00323577903,126917.0
63515.0132864286,126895.0
63515.02333707817,126897.0
63515.03338772774,126903.0
63515.0434383773,126887.0
63515.053489026875,126910.0
63515.06353967644,126895.0
63515.07359032601,126884.0
63515.08364097558,126896.0
63515.093691625145,126912.0
63515.10374227472,126907.0
63515.11379292428,126876.0
63515.12384357385,126906.0
63515.13389422342,126916.0
63515.14394487299,126905.0
63515.15399552256,126890.0
63515.164046172125,126913.0
63515.17409682169,126926.0
63515.184147471264,126906.0
63515.19419812083,126866.0
63515.2042487704,126923.0
63515.21429941997,126917.0
63515.22435006953,126859.0
63515.234400719106,126911.0
63515.24445136867,126929.0
63515.254502018244,126901.0
63515.26455266781,126924.0
63515.274603317375,126922.0
63515.28465396695,126903.0
63515.29470461651,126892.0
63515.30475526608,126916.0
63515.31480591565,126915.0
63515.32485656522,126909.0
63515.33490721479,126897.0
63515.344957864356,126935.0
63515.35500851392,126958.0
63515.365059163494,126914.0
63515.37510981306,126916.0
63515.38516046263,126919.0
63515.3952111122,126927.0
63515.40526176176,126927.0
63515.415312411336,126906.0
63515.4253630609,126949.0
63515.435413710475,126924.0
63515.44546436004,126902.0
63515.455515009606,126938.0
63515.46556565918,126900.0
63515.475616308744,126932.0
63515.48566695832,126890.0
63515.49571760788,126943.0
63515.50576825745,126920.0
63515.51581890702,126929.0
63515.525869556586,126921.0
63515.53592020615,126963.0
63515.545970855725,126948.0
63515.55602150529,126933.0
63515.56607215486,126939.0
63515.57612280443,126951.0
63515.586173453994,126943.0
63515.59622410357,126948.0
63515.60627475313,126965.0
63515.616325402705,126916.0
63515.62637605227,126944.0
63515.636426701836,126945.0
63515.64647735141,126960.0
63515.656528000975,126931.0
63515.66657865055,126982.0
63515.67662930011,126943.0
63515.68667994968,126943.0
63515.69673059925,126950.0
63515.70678124882,126942.0
63515.71683189839,126982.0
63515.726882547955,126958.0
63515.73693319752,126948.0
63515.74698384709,126992.0
63515.75703449666,126961.0
63515.767085146224,126955.0
63515.7771357958,126919.0
63515.78718644536,126967.0
63515.797237094936,126923.0
63515.8072877445,126940.0
63515.81733839407,126911.0
63515.82738904364,126925.0
63515.837439693205,126941.0
63515.84749034278,126930.0
63515.85754099234,126933.0
63515.86759164191,126929.0
63515.87764229148,126925.0
63515.88769294105,126923.0
63515.89774359062,126903.0
63515.907794240185,126938.0
63515.91784488975,126925.0
63515.927895539324,126933.0
63515.93794618889,126952.0
63515.94799683846,126927.0
63515.95804748803,126936.0
63515.96809813759,126939.0
63515.978148787166,126937.0
63515.98819943673,126919.0
63515.9982500863,126915.0
63516.00830073587,126932.0
63516.018351385435,126949.0
63516.02840203501,126926.0
63516.038452684574,126966.0
63516.04850333414,126942.0
63516.05855398371,126908.0
63516.06860463328,126943.0
63516.07865528285,126935.0
63516.088705932416,126941.0
63516.09875658198,126949.0
63516.108807231554,126966.0
63516.11885788112,126960.0
63516.12890853069,126942.0
63516.13895918026,126929.0
63516.14900982982,126972.0
63516.1590604794,126947.0
63516.16911112896,126918.0
63516.179161778535,126935.0
63516.1892124281,126926.0
63516.199263077666,126932.0
63516.20931372724,126921.0
63516.219364376804,126941.0
63516.22941502637,126954.0
63516.23946567594,126917.0
63516.24951632551,126952.0
63516.25956697508,126948.0
63516.269617624646,126925.0
63516.27966827421,126947.0
63516.289718923785,126964.0
63516.29976957335,126944.0
63516.30982022292,126924.0
63516.31987087249,126954.0
63516.329921522054,126974.0
63516.33997217163,126954.0
63516.35002282119,126908.0
63516.360073470765,126954.0
63516.37012412033,126983.0
63516.380174769896,126941.0
63516.39022541947,126938.0
63516.400276069035,126940.0
63516.41032671861,126941.0
63516.42037736817,126921.0
63516.43042801774,126930.0
63516.44047866731,126966.0
63516.45052931688,126939.0
63516.46057996644,126951.0
63516.470630616015,126950.0
63516.48068126558,126931.0
63516.49073191515,126952.0
63516.50078256472,126955.0
63516.510833214285,126992.0
63516.52088386386,126962.0
63516.53093451342,126937.0
63516.540985162996,126969.0
63516.55103581256,127007.0
63516.56108646213,126970.0
63516.5711371117,126951.0
63516.581187761265,126967.0
63516.59123841084,126963.0
63516.6012890604,126991.0
63516.61133970997,126961.0
63516.62139035954,126964.0
63516.63144100911,126974.0
63516.64149165868,126940.0
63516.651542308246,126992.0
63516.66159295781,126961.0
63516.671643607384,126981.0
63516.68169425695,126989.0
63516.691744906515,126995.0
63516.70179555609,126970.0
63516.71184620565,126971.0
63516.721896855226,126938.0
63516.73194750479,126974.0
63516.74199815436,126942.0
63516.75204880393,126956.0
63516.762099453495,126971.0
63516.77215010307,126973.0
63516.782200752634,126942.0
63516.7922514022,126946.0
63516.80230205177,126969.0
63516.81235270134,126931.0
63516.82240335091,126903.0
63516.832454000476,126941.0
63516.84250465004,126976.0
63516.852555299614,126939.0
63516.86260594918,126973.0
63516.87265659875,126953.0
63516.88270724832,126966.0
63516.892757897884,126954.0
63516.90280854746,126943.0
63516.91285919702,126954.0
63516.92290984659,126932.0
63516.93296049616,126929.0
63516.943011145726,126929.0
63516.9530617953,126975.0
63516.963112444864,126940.0
63516.97316309443,126955.0
63516.983213744,126964.0
63516.99326439357,126952.0
63517.00331504314,126959.0
63517.01336569271,126995.0
63517.02341634227,126953.0
63517.033466991845,126962.0
63517.04351764141,126947.0
63517.05356829098,126982.0
63517.06361894055,126949.0
63517.073669590114,126961.0
63517.08372023969,126955.0
63517.09377088925,126932.0
63517.103821538825,126949.0
63517.11387218839,126974.0
63517.123922837956,126961.0
63517.13397348753,126995.0
63517.144024137095,126966.0
63517.15407478666,126996.0
63517.16412543623,126968.0
63517.1741760858,126984.0
63517.18422673537,126968.0
63517.19427738494,126948.0
63517.2043280345,126974.0
63517.214378684075,126959.0
63517.22442933364,126958.0
63517.23447998321,126977.0
63517.24453063278,126972.0
63517.254581282345,126961.0
63517.26463193192,126996.0
63517.27468258148,126981.0
63517.284733231056,126990.0
63517.29478388062,126966.0
63517.30483453019,126991.0
63517.31488517976,126944.0
63517.324935829325,126979.0
63517.3349864789,126974.0
63517.34503712846,126988.0
63517.35508777803,126934.0
63517.3651384276,126978.0
63517.37518907717,126972.0
63517.38523972673,127011.0
63517.395290376306,127011.0
63517.40534102587,126992.0
63517.415391675444,127000.0
63517.42544232501,126970.0
63517.435492974575,126972.0
63517.44554362415,126996.0
63517.45559427371,126995.0
63517.465644923286,127001.0
63517.47569557285,126990.0
63517.48574622242,127012.0
63517.49579687199,126984.0
63517.505847521556,126959.0
63517.51589817113,127003.0
63517.525948820694,126994.0
63517.53599947026,126967.0
63517.54605011983,126985.0
63517.5561007694,127000.0
63517.56615141897,127013.0
63517.576202068536,127000.0
63517.5862527181,127005.0
63517.596303367674,126990.0
63517.60635401724,127035.0
63517.61640466681,127004.0
63517.62645531638,127012.0
63517.636505965944,126995.0
63517.64655661552,127027.0
63517.65660726508,126985.0
63517.66665791465,126990.0
63517.67670856422,126950.0
63517.686759213786,126996.0
63517.69680986336,126970.0
63517.706860512924,126985.0
63517.71691116249,126980.0
63517.72696181206,126972.0
63517.73701246163,126973.0
63517.7470631112,126980.0
63517.75711376077,126978.0
63517.76716441033,126943.0
63517.777215059905,126976.0
63517.78726570947,126980.0
63517.79731635904,126963.0
63517.80736700861,126981.0
63517.817417658174,126983.0
63517.82746830775,126961.0
63517.83751895731,126979.0
63517.84756960688,126964.0
63517.85762025645,126980.0
63517.86767090602,126977.0
63517.87772155559,126972.0
63517.887772205155,126969.0
63517.89782285472,126973.0
63517.90787350429,126974.0
63517.91792415386,126965.0
63517.92797480343,126977.0
63517.938025453,126979.0
63517.94807610256,126969.0
63517.958126752135,126944.0
63517.9681774017,126997.0
63517.97822805127,126977.0
63517.98827870084,126975.0
63517.998329350405,126988.0
63518.00837999998,126963.0
63518.01843064954,126960.0
63518.028481299116,126972.0
63518.03853194868,126990.0
63518.04858259825,126994.0
63518.05863324782,126979.0
63518.068683897385,126974.0
63518.07873454696,127006.0
63518.08878519652,126987.0
63518.09883584609,126983.0
63518.10888649566,126987.0
63518.11893714523,127008.0
63518.12898779479,127007.0
63518.139038444366,127006.0
63518.14908909393,127021.0
63518.159139743504,126972.0
63518.16919039307,126973.0
63518.179241042635,126978.0
63518.18929169221,126988.0
63518.19934234177,127014.0
63518.209392991346,126979.0
63518.21944364091,126961.0
63518.22949429048,126994.0
63518.23954494005,126961.0
63518.249595589616,126976.0
63518.25964623919,126992.0
63518.269696888754,127003.0
63518.27974753832,126989.0
63518.28979818789,127004.0
63518.29984883746,126984.0
63518.30989948702,126990.0
63518.319950136596,126966.0
63518.33000078616,127017.0
63518.340051435734,126987.0
63518.3501020853,127003.0
63518.360152734866,127000.0
63518.37020338444,127012.0
63518.380254034004,126990.0
63518.39030468358,127016.0
63518.40035533314,127025.0
63518.41040598271,126995.0
63518.42045663228,127011.0
63518.430507281846,127000.0
63518.44055793142,127025.0
63518.450608580984,126998.0
63518.46065923055,127018.0
63518.47070988012,127007.0
63518.48076052969,126990.0
63518.49081117926,126994.0
63518.50086182883,127033.0
63518.51091247839,127011.0
63518.520963127965,127026.0
63518.53101377753,127049.0
63518.5410644271,127042.0
63518.55111507667,126980.0
63518.561165726234,127011.0
63518.57121637581,127015.0
63518.58126702537,127039.0
63518.59131767494,126996.0
63518.60136832451,127011.0
63518.61141897408,126996.0
63518.62146962365,126991.0
63518.631520273215,126994.0
63518.64157092278,127005.0
63518.65162157235,127005.0
63518.66167222192,126971.0
63518.67172287149,126977.0
63518.68177352106,127019.0
63518.69182417062,127010.0
63518.701874820195,126955.0
63518.71192546976,127027.0
63518.721976119334,126997.0
63518.7320267689,127000.0
63518.742077418465,126981.0
63518.75212806804,127021.0
63518.7621787176,126979.0
63518.77222936717,127000.0
63518.78228001674,126978.0
63518.79233066631,127012.0
63518.80238131588,126986.0
63518.812431965445,126943.0
63518.82248261501,126974.0
63518.83253326458,126995.0
63518.84258391415,126985.0
63518.85263456372,126982.0
63518.86268521329,127004.0
63518.87273586285,126981.0
63518.882786512426,127002.0
63518.89283716199,126985.0
63518.902887811564,127000.0
63518.91293846113,126962.0
63518.922989110695,127001.0
63518.93303976027,127011.0
63518.94309040983,126988.0
63518.953141059406,126954.0
63518.96319170897,126983.0
63518.97324235854,126948.0
63518.98329300811,127015.0
63518.993343657676,126966.0
63519.00339430725,126986.0
63519.013444956814,126982.0
63519.02349560638,126975.0
63519.03354625595,126973.0
63519.04359690552,127025.0
63519.05364755508,126989.0
63519.063698204656,126964.0
63519.07374885422,127008.0
63519.083799503795,127003.0
63519.09385015336,126989.0
63519.103900802926,126974.0
63519.1139514525,127010.0
63519.124002102064,127002.0
63519.13405275164,126992.0
63519.1441034012,126981.0
63519.15415405077,127017.0
63519.16420470034,126989.0
63519.174255349906,127001.0
63519.18430599948,127003.0
63519.194356649044,127009.0
63519.20440729861,126982.0
63519.21445794818,127030.0
63519.22450859775,127019.0
63519.23455924732,126982.0
63519.24460989689,126995.0
63519.25466054645,127004.0
63519.264711196025,126990.0
63519.27476184559,127030.0
63519.284812495156,127010.0
63519.29486314473,127008.0
63519.304913794294,127020.0
63519.31496444387,126988.0
63519.32501509343,126971.0
63519.335065743,127018.0
63519.34511639257,127020.0
63519.35516704214,127007.0
63519.36521769171,127039.0
63519.375268341275,127019.0
63519.38531899084,126993.0
63519.39536964041,126983.0
63519.40542028998,127022.0
63519.41547093955,127015.0
63519.42552158912,127024.0
63519.43557223868,127041.0
63519.445622888255,127052.0
63519.45567353782,127019.0
63519.465724187394,127029.0
63519.47577483696,127015.0
63519.485825486525,127017.0
63519.4958761361,126995.0
63519.50592678566,127017.0
63519.51597743523,127047.0
63519.5260280848,127022.0
63519.53607873437,127030.0
63519.54612938394,127029.0
63519.556180033505,127042.0
63519.56623068307,127016.0
63519.576281332644,127025.0
63519.58633198221,127021.0
63519.59638263178,127018.0
63519.60643328135,127001.0
63519.61648393091,127000.0
63519.626534580486,127007.0
63519.63658523005,127037.0
63519.646635879624,126994.0
63519.65668652919,127006.0
63519.666737178755,126988.0
63519.67678782833,126972.0
63519.68683847789,126938.0
63519.69688912747,127013.0
63519.70693977703,126982.0
63519.7169904266,126969.0
63519.72704107617,127020.0
63519.737091725736,126971.0
63519.7471423753,126955.0
63519.757193024874,126950.0
63519.76724367444,126999.0
63519.77729432401,126996.0
63519.78734497358,126990.0
63519.79739562314,126979.0
63519.807446272716,126998.0
63519.81749692228,126975.0
63519.827547571855,126986.0
63519.83759822142,126990.0
63519.847648870986,126976.0
63519.85769952056,126963.0
63519.867750170124,126977.0
63519.8778008197,126999.0
63519.88785146926,126978.0
63519.89790211883,126954.0
63519.9079527684,126989.0
63519.918003417966,126965.0
63519.92805406754,126962.0
63519.938104717105,127004.0
63519.94815536667,126971.0
63519.95820601624,126970.0
63519.96825666581,126951.0
63519.978307315374,126952.0
63519.98835796495,127001.0
63519.99840861451,126974.0
63520.008459264085,126956.0
63520.01850991365,126995.0
63520.028560563216,126948.0
63520.03861121279,126973.0
63520.048661862354,126977.0
63520.05871251193,126997.0
63520.06876316149,126999.0
63520.07881381106,126981.0
63520.08886446063,126961.0
63520.0989151102,126978.0
63520.10896575977,127004.0
63520.119016409335,126984.0
63520.1290670589,126966.0
63520.13911770847,126981.0
63520.14916835804,126946.0
63520.15921900761,126987.0
63520.16926965718,126967.0
63520.17932030674,126963.0
63520.189370956316,127019.0
63520.19942160588,127002.0
63520.20947225545,127025.0
63520.21952290502,126980.0
63520.229573554585,126994.0
63520.23962420416,126991.0
63520.24967485372,126995.0
63520.25972550329,126976.0
63520.26977615286,126980.0
63520.27982680243,127030.0
63520.289877452,126990.0
63520.299928101565,127012.0
63520.30997875113,127009.0
63520.320029400704,127003.0
63520.33008005027,126981.0
63520.34013069984,127001.0
63520.35018134941,127026.0
63520.36023199897,127014.0
63520.370282648546,126997.0
63520.38033329811,127002.0
63520.390383947684,127008.0
63520.40043459725,127007.0
63520.410485246815,126985.0
63520.42053589639,127012.0
63520.430586545954,127017.0
63520.44063719552,126979.0
63520.45068784509,127017.0
63520.46073849466,127037.0
63520.47078914423,127022.0
63520.480839793796,127017.0
63520.49089044336,126998.0
63520.500941092934,127009.0
63520.5109917425,127001.0
63520.52104239207,127009.0
63520.53109304164,127019.0
63520.5411436912,126982.0
63520.55119434078,127004.0
63520.56124499034,126982.0
63520.571295639915,127006.0
63520.58134628948,127044.0
63520.591396939046,127021.0
63520.60144758862,127016.0
63520.611498238184,126993.0
63520.62154888776,127009.0
63520.63159953732,126979.0
63520.64165018689,127003.0
63520.65170083646,126989.0
63520.661751486026,126974.0
63520.67180213559,126983.0
63520.681852785165,126998.0
63520.69190343473,126974.0
63520.7019540843,126968.0
63520.71200473387,126990.0
63520.722055383434,126989.0
63520.73210603301,126985.0
63520.74215668257,126970.0
63520.752207332145,127016.0
63520.76225798171,126974.0
63520.772308631276,126986.0
63520.78235928085,126995.0
63520.792409930415,126968.0
63520.80246057999,126972.0
63520.81251122955,126993.0
63520.82256187912,126980.0
63520.83261252869,126978.0
63520.84266317826,126953.0
63520.85271382783,126992.0
63520.862764477395,126991.0
63520.87281512696,126976.0
63520.88286577653,126993.0
63520.8929164261,126988.0
63520.902967075664,126983.0
63520.91301772524,126949.0
63520.9230683748,126968.0
63520.933119024376,127013.0
63520.94316967394,126982.0
63520.95322032351,126952.0
63520.96327097308,127012.0
63520.973321622645,126972.0
63520.98337227222,126972.0
63520.99342292178,127014.0
63521.00347357135,127014.0
63521.01352422092,127003.0
63521.02357487049,126995.0
63521.03362552006,126997.0
63521.043676169626,127025.0
63521.05372681919,126962.0
63521.063777468764,127008.0
63521.07382811833,127009.0
63521.0838787679,126971.0
63521.09392941747,127014.0
63521.10398006703,126999.0
63521.114030716606,126999.0
63521.12408136617,127023.0
63521.13413201574,126971.0
63521.14418266531,126998.0
63521.154233314875,126965.0
63521.16428396445,126981.0
63521.174334614014,127044.0
63521.18438526358,127020.0
63521.19443591315,126990.0
63521.20448656272,127008.0
63521.21453721229,126999.0
63521.224587861856,127011.0
63521.23463851142,127039.0
63521.244689160994,127002.0
63521.25473981056,127013.0
63521.26479046013,127014.0
63521.2748411097,127046.0
63521.284891759264,127035.0
63521.29494240884,126993.0
63521.3049930584,127007.0
63521.315043707975,127020.0
63521.32509435754,126976.0
63521.335145007106,127023.0
63521.34519565668,126964.0
63521.355246306244,126976.0
63521.36529695581,126989.0
63521.37534760538,127009.0
63521.38539825495,127018.0
63521.39544890452,126995.0
63521.40549955409,126992.0
63521.41555020365,127032.0
63521.425600853225,127010.0
63521.43565150279,127026.0
63521.44570215236,127015.0
63521.45575280193,126999.0
63521.465803451494,127030.0
63521.47585410107,127018.0
63521.48590475063,127021.0
63521.495955400205,127044.0
63521.50600604977,127002.0
63521.516056699336,127022.0
63521.52610734891,127058.0
63521.536157998475,127008.0
63521.54620864805,127057.0
63521.55625929761,127036.0
63521.56630994718,127025.0
63521.57636059675,127002.0
63521.58641124632,127011.0
63521.59646189588,127013.0
63521.606512545455,127011.0
63521.61656319502,126996.0
63521.62661384459,127003.0
63521.63666449416,126985.0
63521.646715143725,126968.0
63521.6567657933,126983.0
63521.66681644286,126988.0
63521.676867092436,126998.0
63521.686917742,126979.0
63521.69696839157,126998.0
63521.70701904114,126970.0
63521.717069690705,126977.0
63521.72712034028,126976.0
63521.73717098984,126956.0
63521.74722163941,126952.0
63521.75727228898,126974.0
63521.76732293855,126934.0
63521.77737358812,126978.0
63521.787424237686,126996.0
63521.79747488725,126972.0
63521.807525536824,126960.0
63521.81757618639,126934.0
63521.827626835955,126966.0
63521.83767748553,126968.0
63521.84772813509,126968.0
63521.857778784666,126938.0
63521.86782943423,126956.0
63521.8778800838,126972.0
63521.88793073337,126964.0
63521.897981382936,126961.0
63521.90803203251,126987.0
63521.918082682074,126942.0
63521.92813333164,126961.0
63521.93818398121,126919.0
63521.94823463078,126989.0
63521.95828528035,126951.0
63521.968335929916,126964.0
63521.97838657948,126962.0
63521.988437229054,126951.0
63521.99848787862,126940.0
63522.00853852819,126997.0
63522.01858917776,126987.0
63522.028639827324,126967.0
63522.0386904769,126947.0
63522.04874112646,126971.0
63522.05879177603,127000.0
63522.0688424256,126955.0
63522.078893075166,126988.0
63522.08894372474,126964.0
63522.098994374304,126989.0
63522.10904502387,126996.0
63522.11909567344,127002.0
63522.12914632301,126974.0
63522.13919697258,126929.0
63522.14924762215,126967.0
63522.15929827171,126982.0
63522.169348921285,126982.0
63522.17939957085,126974.0
63522.18945022042,126957.0
63522.19950086999,126971.0
63522.209551519554,126972.0
63522.21960216913,126978.0
63522.22965281869,126962.0
63522.239703468265,126992.0
63522.24975411783,126985.0
63522.2598047674,126969.0
63522.26985541697,126990.0
63522.279906066535,126934.0
63522.28995671611,126968.0
63522.30000736567,126974.0
63522.31005801524,126940.0
63522.32010866481,126949.0
63522.33015931438,126972.0
63522.34020996394,126971.0
63522.350260613515,126998.0
63522.36031126308,126935.0
63522.37036191265,127005.0
63522.38041256222,126978.0
63522.390463211785,126955.0
63522.40051386136,126976.0
63522.41056451092,126979.0
63522.420615160496,126979.0
63522.43066581006,126959.0
63522.44071645963,126985.0
63522.4507671092,127009.0
63522.460817758765,126985.0
63522.47086840834,126979.0
63522.4809190579,126994.0
63522.49096970747,126984.0
63522.50102035704,126983.0
63522.51107100661,127019.0
63522.52112165617,127020.0
63522.531172305746,126964.0
63522.54122295531,126962.0
63522.551273604884,126983.0
63522.56132425445,127003.0
63522.571374904015,126980.0
63522.58142555359,126996.0
63522.59147620315,126959.0
63522.601526852726,126966.0
63522.61157750229,126994.0
63522.62162815186,126984.0
63522.63167880143,126973.0
63522.641729450996,126938.0
63522.65178010057,126952.0
63522.661830750134,126950.0
63522.6718813997,126977.0
63522.68193204927,126928.0
63522.69198269884,126961.0
63522.70203334841,126942.0
63522.712083997976,126961.0
63522.72213464754,126912.0
63522.732185297114,126947.0
63522.74223594668,126944.0
63522.75228659625,126947.0
63522.76233724582,126921.0
63522.772387895384,126928.0
63522.78243854496,126951.0
63522.79248919452,126937.0
63522.80253984409,126963.0
63522.81259049366,126937.0
63522.822641143226,126912.0
63522.8326917928,126931.0
63522.842742442364,126973.0
63522.85279309193,126945.0
63522.8628437415,126899.0
63522.87289439107,126937.0
63522.88294504064,126948.0
63522.89299569021,126915.0
63522.90304633977,126932.0
63522.913096989345,126935.0
63522.92314763891,126939.0
63522.93319828848,126929.0
63522.94324893805,126893.0
63522.953299587614,126942.0
63522.96335023719,126956.0
63522.97340088675,126931.0
63522.98345153632,126946.0
63522.99350218589,126938.0
63523.00355283546,126922.0
63523.01360348503,126953.0
63523.023654134595,126967.0
63523.03370478416,126938.0
63523.04375543373,126941.0
63523.0538060833,126973.0
63523.06385673287,126960.0
63523.07390738244,126930.0
63523.083958032,126913.0
63523.094008681575,126928.0
63523.10405933114,126917.0
63523.114109980714,126948.0
63523.12416063028,126945.0
63523.134211279845,126949.0
63523.14426192942,126940.0
63523.15431257898,126936.0
63523.164363228556,126936.0
63523.17441387812,126972.0
63523.18446452769,126918.0
63523.19451517726,126953.0
63523.204565826825,126984.0
63523.2146164764,126924.0
63523.22466712596,126942.0
63523.23471777553,126955.0
63523.2447684251,126926.0
63523.25481907467,126974.0
63523.26486972423,126942.0
63523.274920373806,126958.0
63523.28497102337,126953.0
63523.295021672944,126935.0
