LslMarkerSourceTimestamp,EmotiBitTimestamp,PI,PG,PR
1032476.118505,88238.0,171711.0,6154.0,113224.0
1032476.118505,88238.0,171683.0,6172.0,113252.0
1032476.118505,88238.0,171683.0,6141.0,113224.0
1032476.118505,88238.0,171683.0,6141.0,113279.0
1032476.118505,88238.0,171683.0,6141.0,113248.0
1032476.118505,88238.0,171683.0,6141.0,113236.0
1032476.118505,88238.0,171683.0,6141.0,113265.0
1032476.118505,88238.0,171683.0,6141.0,113252.0
1032476.118505,88238.0,171722.0,6154.0,113224.0
1032476.118505,88238.0,171722.0,6154.0,113279.0
1032476.118505,88238.0,171722.0,6154.0,113248.0
1032476.118505,88238.0,171722.0,6154.0,113236.0
1032476.118505,88238.0,171722.0,6154.0,113265.0
1032476.118505,88238.0,171722.0,6154.0,113252.0
1032476.118505,88238.0,171722.0,6171.0,113224.0
1032476.118505,88238.0,171722.0,6171.0,113279.0
1032476.118505,88238.0,171722.0,6171.0,113248.0
1032476.118505,88238.0,171722.0,6171.0,113236.0
1032476.118505,88238.0,171722.0,6171.0,113265.0
1032476.118505,88238.0,171722.0,6171.0,113252.0
1032476.118505,88238.0,171722.0,6158.0,113224.0
1032476.118505,88238.0,171722.0,6158.0,113279.0
1032476.118505,88238.0,171722.0,6158.0,113248.0
1032476.118505,88238.0,171722.0,6158.0,113236.0
1032476.118505,88238.0,171683.0,6172.0,113265.0
1032476.118505,88238.0,171722.0,6158.0,113265.0
1032476.118505,88238.0,171683.0,6172.0,113236.0
1032476.118505,88238.0,171683.0,6172.0,113279.0
1032476.118505,88238.0,171683.0,6154.0,113248.0
1032476.118505,88238.0,171683.0,6154.0,113236.0
1032476.118505,88238.0,171683.0,6154.0,113265.0
1032476.118505,88238.0,171683.0,6154.0,113252.0
1032476.118505,88238.0,171683.0,6171.0,113224.0
1032476.118505,88238.0,171683.0,6171.0,113279.0
1032476.118505,88238.0,171683.0,6171.0,113248.0
1032476.118505,88238.0,171683.0,6171.0,113236.0
1032476.118505,88238.0,171683.0,6171.0,113265.0
1032476.118505,88238.0,171683.0,6171.0,113252.0
1032476.118505,88238.0,171683.0,6158.0,113224.0
1032476.118505,88238.0,171683.0,6158.0,113279.0
1032476.118505,88238.0,171683.0,6158.0,113248.0
1032476.118505,88238.0,171683.0,6158.0,113236.0
1032476.118505,88238.0,171683.0,6158.0,113265.0
1032476.118505,88238.0,171683.0,6158.0,113252.0
1032476.118505,88238.0,171683.0,6146.0,113224.0
1032476.118505,88238.0,171683.0,6146.0,113279.0
1032476.118505,88238.0,171683.0,6146.0,113248.0
1032476.118505,88238.0,171683.0,6146.0,113236.0
1032476.118505,88238.0,171683.0,6146.0,113265.0
1032476.118505,88238.0,171683.0,6146.0,113252.0
1032476.118505,88238.0,171683.0,6172.0,113224.0
1032476.118505,88238.0,171683.0,6172.0,113248.0
1032476.118505,88238.0,171722.0,6158.0,113252.0
1032476.118505,88238.0,171722.0,6146.0,113224.0
1032476.118505,88238.0,171722.0,6146.0,113279.0
1032476.118505,88238.0,171727.0,6158.0,113279.0
1032476.118505,88238.0,171727.0,6158.0,113248.0
1032476.118505,88238.0,171727.0,6158.0,113236.0
1032476.118505,88238.0,171727.0,6158.0,113265.0
1032476.118505,88238.0,171727.0,6158.0,113252.0
1032476.118505,88238.0,171727.0,6146.0,113224.0
1032476.118505,88238.0,171727.0,6146.0,113279.0
1032476.118505,88238.0,171727.0,6146.0,113248.0
1032476.118505,88238.0,171727.0,6146.0,113236.0
1032476.118505,88238.0,171727.0,6146.0,113265.0
1032476.118505,88238.0,171727.0,6146.0,113252.0
1032476.118505,88238.0,171727.0,6172.0,113224.0
1032476.118505,88238.0,171727.0,6172.0,113279.0
1032476.118505,88238.0,171727.0,6172.0,113248.0
1032476.118505,88238.0,171727.0,6172.0,113236.0
1032476.118505,88238.0,171727.0,6172.0,113265.0
1032476.118505,88238.0,171727.0,6172.0,113252.0
1032476.118505,88238.0,171727.0,6141.0,113224.0
1032476.118505,88238.0,171727.0,6141.0,113279.0
1032476.118505,88238.0,171727.0,6141.0,113248.0
1032476.118505,88238.0,171727.0,6141.0,113236.0
1032476.118505,88238.0,171727.0,6141.0,113265.0
1032476.118505,88238.0,171727.0,6141.0,113252.0
1032476.118505,88238.0,171727.0,6158.0,113224.0
1032476.118505,88238.0,171727.0,6171.0,113252.0
1032476.118505,88238.0,171727.0,6171.0,113265.0
1032476.118505,88238.0,171727.0,6171.0,113248.0
1032476.118505,88238.0,171722.0,6146.0,113248.0
1032476.118505,88238.0,171722.0,6146.0,113236.0
1032476.118505,88238.0,171722.0,6146.0,113265.0
1032476.118505,88238.0,171722.0,6146.0,113252.0
1032476.118505,88238.0,171722.0,6172.0,113224.0
1032476.118505,88238.0,171722.0,6172.0,113279.0
1032476.118505,88238.0,171722.0,6172.0,113248.0
1032476.118505,88238.0,171722.0,6172.0,113236.0
1032476.118505,88238.0,171722.0,6172.0,113265.0
1032476.118505,88238.0,171722.0,6172.0,113252.0
1032476.118505,88238.0,171722.0,6141.0,113224.0
1032476.118505,88238.0,171683.0,6154.0,113279.0
1032476.118505,88238.0,171722.0,6141.0,113279.0
1032476.118505,88238.0,171722.0,6141.0,113236.0
1032476.118505,88238.0,171722.0,6141.0,113265.0
1032476.118505,88238.0,171722.0,6141.0,113252.0
1032476.118505,88238.0,171727.0,6154.0,113224.0
1032476.118505,88238.0,171727.0,6154.0,113279.0
1032476.118505,88238.0,171727.0,6154.0,113248.0
1032476.118505,88238.0,171727.0,6154.0,113236.0
1032476.118505,88238.0,171727.0,6154.0,113265.0
1032476.118505,88238.0,171727.0,6154.0,113252.0
1032476.118505,88238.0,171727.0,6171.0,113224.0
1032476.118505,88238.0,171727.0,6171.0,113279.0
1032476.118505,88238.0,171722.0,6141.0,113248.0
1032476.118505,88238.0,171683.0,6154.0,113224.0
1032476.118505,88238.0,171727.0,6171.0,113236.0
1032476.118505,88238.0,171719.0,6141.0,113265.0
1032476.118505,88238.0,171711.0,6172.0,113236.0
1032476.118505,88238.0,171711.0,6172.0,113265.0
1032476.118505,88238.0,171711.0,6172.0,113252.0
1032476.118505,88238.0,171711.0,6141.0,113224.0
1032476.118505,88238.0,171711.0,6141.0,113279.0
1032476.118505,88238.0,171711.0,6141.0,113248.0
1032476.118505,88238.0,171711.0,6141.0,113236.0
1032476.118505,88238.0,171711.0,6141.0,113265.0
1032476.118505,88238.0,171711.0,6141.0,113252.0
1032476.118505,88238.0,171735.0,6154.0,113224.0
1032476.118505,88238.0,171735.0,6154.0,113279.0
1032476.118505,88238.0,171735.0,6154.0,113248.0
1032476.118505,88238.0,171735.0,6154.0,113265.0
1032476.118505,88238.0,171735.0,6154.0,113252.0
1032476.118505,88238.0,171735.0,6171.0,113224.0
1032476.118505,88238.0,171735.0,6171.0,113279.0
1032476.118505,88238.0,171735.0,6171.0,113248.0
1032476.118505,88238.0,171735.0,6171.0,113236.0
1032476.118505,88238.0,171735.0,6171.0,113265.0
1032476.118505,88238.0,171735.0,6171.0,113252.0
1032476.118505,88238.0,171735.0,6158.0,113224.0
1032476.118505,88238.0,171735.0,6158.0,113279.0
1032476.118505,88238.0,171735.0,6158.0,113248.0
1032476.118505,88238.0,171719.0,6141.0,113252.0
1032476.118505,88238.0,171735.0,6158.0,113236.0
1032476.118505,88238.0,171711.0,6172.0,113248.0
1032476.118505,88238.0,171711.0,6172.0,113224.0
1032476.118505,88238.0,171711.0,6154.0,113279.0
1032476.118505,88238.0,171711.0,6154.0,113248.0
1032476.118505,88238.0,171711.0,6154.0,113236.0
1032476.118505,88238.0,171711.0,6154.0,113265.0
1032476.118505,88238.0,171711.0,6154.0,113252.0
1032476.118505,88238.0,171711.0,6171.0,113224.0
1032476.118505,88238.0,171711.0,6171.0,113279.0
1032476.118505,88238.0,171711.0,6171.0,113248.0
1032476.118505,88238.0,171711.0,6171.0,113236.0
1032476.118505,88238.0,171711.0,6171.0,113265.0
1032476.118505,88238.0,171711.0,6171.0,113252.0
1032476.118505,88238.0,171711.0,6158.0,113224.0
1032476.118505,88238.0,171711.0,6158.0,113279.0
1032476.118505,88238.0,171711.0,6158.0,113248.0
1032476.118505,88238.0,171711.0,6158.0,113236.0
1032476.118505,88238.0,171711.0,6158.0,113265.0
1032476.118505,88238.0,171711.0,6158.0,113252.0
1032476.118505,88238.0,171711.0,6146.0,113224.0
1032476.118505,88238.0,171711.0,6146.0,113279.0
1032476.118505,88238.0,171711.0,6146.0,113248.0
1032476.118505,88238.0,171711.0,6146.0,113236.0
1032476.118505,88238.0,171711.0,6146.0,113265.0
1032476.118505,88238.0,171711.0,6146.0,113252.0
1032476.118505,88238.0,171711.0,6172.0,113279.0
1032476.118505,88238.0,171735.0,6158.0,113265.0
1032476.118505,88238.0,171735.0,6154.0,113236.0
1032476.118505,88238.0,171735.0,6146.0,113224.0
1032476.118505,88238.0,171719.0,6171.0,113265.0
1032476.118505,88238.0,171719.0,6171.0,113252.0
1032476.118505,88238.0,171719.0,6158.0,113224.0
1032476.118505,88238.0,171719.0,6158.0,113279.0
1032476.118505,88238.0,171719.0,6158.0,113248.0
1032476.118505,88238.0,171719.0,6158.0,113236.0
1032476.118505,88238.0,171719.0,6158.0,113265.0
1032476.118505,88238.0,171719.0,6158.0,113252.0
1032476.118505,88238.0,171719.0,6146.0,113224.0
1032476.118505,88238.0,171719.0,6146.0,113279.0
1032476.118505,88238.0,171719.0,6146.0,113248.0
1032476.118505,88238.0,171719.0,6171.0,113236.0
1032476.118505,88238.0,171735.0,6158.0,113252.0
1032476.118505,88238.0,171719.0,6146.0,113252.0
1032476.118505,88238.0,171719.0,6172.0,113224.0
1032476.118505,88238.0,171719.0,6172.0,113279.0
1032476.118505,88238.0,171719.0,6172.0,113248.0
1032476.118505,88238.0,171719.0,6172.0,113236.0
1032476.118505,88238.0,171719.0,6172.0,113265.0
1032476.118505,88238.0,171719.0,6172.0,113252.0
1032476.118505,88238.0,171719.0,6141.0,113224.0
1032476.118505,88238.0,171719.0,6141.0,113279.0
1032476.118505,88238.0,171719.0,6141.0,113248.0
1032476.118505,88238.0,171719.0,6141.0,113236.0
1032476.118505,88238.0,171719.0,6146.0,113265.0
1032476.118505,88238.0,171719.0,6171.0,113248.0
1032476.118505,88238.0,171719.0,6146.0,113236.0
1032476.118505,88238.0,171719.0,6171.0,113224.0
1032476.118505,88238.0,171735.0,6146.0,113248.0
1032476.118505,88238.0,171735.0,6146.0,113236.0
1032476.118505,88238.0,171735.0,6146.0,113265.0
1032476.118505,88238.0,171735.0,6146.0,113252.0
1032476.118505,88238.0,171735.0,6172.0,113224.0
1032476.118505,88238.0,171735.0,6172.0,113279.0
1032476.118505,88238.0,171735.0,6172.0,113248.0
1032476.118505,88238.0,171735.0,6172.0,113236.0
1032476.118505,88238.0,171735.0,6172.0,113265.0
1032476.118505,88238.0,171735.0,6172.0,113252.0
1032476.118505,88238.0,171735.0,6141.0,113224.0
1032476.118505,88238.0,171719.0,6171.0,113279.0
1032476.118505,88238.0,171735.0,6141.0,113279.0
1032476.118505,88238.0,171735.0,6141.0,113248.0
1032476.118505,88238.0,171735.0,6141.0,113236.0
1032476.118505,88238.0,171735.0,6141.0,113265.0
1032476.118505,88238.0,171735.0,6141.0,113252.0
1032476.118505,88238.0,171719.0,6154.0,113224.0
1032476.118505,88238.0,171719.0,6154.0,113279.0
1032476.118505,88238.0,171719.0,6154.0,113248.0
1032476.118505,88238.0,171719.0,6154.0,113236.0
1032476.118505,88238.0,171719.0,6154.0,113265.0
1032476.118505,88238.0,171719.0,6154.0,113252.0
1032476.118505,88238.0,171735.0,6146.0,113279.0
1032476.129206,88248.7,171697.0,6141.0,113225.0
1032476.139906,88259.4,171722.0,6157.0,113214.0
1032476.150606,88270.1,171684.0,6121.0,113212.0
1032476.161306,88280.8,171708.0,6153.0,113206.0
1032476.172006,88291.5,171673.0,6145.0,113221.0
1032476.182706,88302.2,171655.0,6140.0,113207.0
1032476.193407,88312.9,171658.0,6169.0,113201.0
1032476.204107,88323.6,171670.0,6140.0,113203.0
1032476.214807,88334.3,171660.0,6140.0,113188.0
1032476.225507,88345.0,171670.0,6146.0,113185.0
1032476.234807,88354.3,171621.0,6110.0,113156.0
1032476.244107,88363.6,171666.0,6128.0,113166.0
1032476.253407,88372.9,171668.0,6133.0,113157.0
1032476.262708,88382.2,171635.0,6164.0,113178.0
1032476.272008,88391.5,171612.0,6131.0,113122.0
1032476.281308,88400.8,171608.0,6158.0,113147.0
1032476.290608,88410.1,171566.0,6125.0,113132.0
1032476.299908,88419.4,171627.0,6152.0,113176.0
1032476.309208,88428.7,171620.0,6163.0,113185.0
1032476.318508,88438.0,171650.0,6177.0,113135.0
1032476.329109,88448.6,171625.0,,113139.0
1032476.329209,88448.7,,6142.0,
1032476.339709,88459.2,171579.0,,113089.0
1032476.339909,88459.4,,6125.0,
1032476.350309,88469.8,171557.0,,113040.0
1032476.350609,88470.1,,6139.0,
1032476.360909,88480.4,171440.0,,112970.0
1032476.361309,88480.8,,6133.0,
1032476.371509,88491.0,171389.0,,112922.0
1032476.372009,88491.5,,6122.0,
1032476.382109,88501.6,171318.0,,112885.0
1032476.382709,88502.2,,6125.0,
1032476.39271,88512.2,171259.0,,112794.0
1032476.39341,88512.9,,6140.0,
1032476.40331,88522.8,171192.0,,112788.0
1032476.40411,88523.6,,6127.0,
1032476.41391,88533.4,171130.0,,112714.0
1032476.41481,88534.3,,6103.0,
1032476.42451,88544.0,171136.0,,112711.0
1032476.42551,88545.0,,6094.0,
1032476.434237,88553.727,171154.0,,112756.0
1032476.435146,88554.636,,6129.0,
1032476.443965,88563.455,171156.0,,112751.0
1032476.444783,88564.273,,6139.0,
1032476.453692,88573.182,171172.0,,112767.0
1032476.45442,88573.909,,6127.0,
1032476.46342,88582.909,171181.0,,112771.0
1032476.464056,88583.545,,6131.0,
1032476.473147,88592.636,171178.0,,112809.0
1032476.473693,88593.182,,6150.0,
1032476.482874,88602.364,171171.0,,112828.0
1032476.483329,88602.818,,6151.0,
1032476.492602,88612.091,171169.0,,112791.0
1032476.492966,88612.455,,6138.0,
1032476.502329,88621.818,171149.0,,112792.0
1032476.502602,88622.091,,6131.0,
1032476.512057,88631.545,171127.0,,112782.0
1032476.512239,88631.727,,6108.0,
1032476.521784,88641.273,171124.0,,112775.0
1032476.521875,88641.364,,6114.0,
1032476.531512,88651.0,171064.0,6111.0,112731.0
1032476.541845,88661.333,171062.0,,112754.0
1032476.541956,88661.444,,6105.0,
1032476.552179,88671.667,171025.0,,112747.0
1032476.552401,88671.889,,6090.0,
1032476.562512,88682.0,170972.0,,112746.0
1032476.562845,88682.333,,6089.0,
1032476.572845,88692.333,170973.0,,112746.0
1032476.57329,88692.778,,6084.0,
1032476.583179,88702.667,171021.0,,112778.0
1032476.583735,88703.222,,6088.0,
1032476.593512,88713.0,171045.0,,112809.0
1032476.594179,88713.667,,6081.0,
1032476.603846,88723.333,171031.0,,112818.0
1032476.604624,88724.111,,6076.0,
1032476.614179,88733.667,171069.0,,112856.0
1032476.615068,88734.556,,6066.0,
1032476.624513,88744.0,171034.0,,112851.0
1032476.625513,88745.0,,6088.0,
1032476.63424,88753.727,171042.0,,112839.0
1032476.635149,88754.636,,6109.0,
1032476.643968,88763.455,170998.0,,112809.0
1032476.644786,88764.273,,6053.0,
1032476.653695,88773.182,171035.0,,112793.0
1032476.654422,88773.909,,6098.0,
1032476.663423,88782.909,171009.0,,112776.0
1032476.664059,88783.545,,6077.0,
1032476.67315,88792.636,170998.0,,112732.0
1032476.673695,88793.182,,6088.0,
1032476.682877,88802.364,170898.0,,112648.0
1032476.683332,88802.818,,6060.0,
1032476.692605,88812.091,170882.0,,112635.0
1032476.692968,88812.455,,6104.0,
1032476.702332,88821.818,170803.0,,112581.0
1032476.702605,88822.091,,6067.0,
1032476.71206,88831.545,170779.0,,112596.0
1032476.712241,88831.727,,6089.0,
1032476.721787,88841.273,170750.0,,112547.0
1032476.721878,88841.364,,6083.0,
1032476.731514,88851.0,170754.0,6092.0,112586.0
1032476.742215,88861.7,170726.0,6071.0,112582.0
1032476.752915,88872.4,170726.0,6086.0,112583.0
1032476.763615,88883.1,170660.0,6081.0,112527.0
1032476.774315,88893.8,170691.0,6085.0,112576.0
1032476.785015,88904.5,170663.0,6087.0,112536.0
1032476.795715,88915.2,170641.0,6074.0,112558.0
1032476.806416,88925.9,170571.0,6068.0,112475.0
1032476.817116,88936.6,170588.0,6066.0,112478.0
1032476.827816,88947.3,170585.0,6086.0,112470.0
1032476.838516,88958.0,170560.0,6071.0,112502.0
1032476.84885,88968.333,170537.0,6065.0,112451.0
1032476.859183,88978.667,170540.0,6055.0,112460.0
1032476.869517,88989.0,170533.0,6089.0,112488.0
1032476.87985,88999.333,170496.0,6082.0,112476.0
1032476.890183,89009.667,170442.0,6102.0,112441.0
1032476.900517,89020.0,170438.0,6062.0,112434.0
1032476.91085,89030.333,170411.0,6072.0,112443.0
1032476.921184,89040.667,170375.0,6087.0,112390.0
1032476.931517,89051.0,170307.0,6078.0,112361.0
1032476.941245,89060.727,170330.0,6101.0,112341.0
1032476.950972,89070.455,170290.0,6074.0,112273.0
1032476.9607,89080.182,170318.0,6078.0,112307.0
1032476.970427,89089.909,170288.0,6077.0,112326.0
1032476.980155,89099.636,170307.0,6085.0,112325.0
1032476.989882,89109.364,170317.0,6078.0,112360.0
1032476.999609,89119.091,170322.0,6088.0,112362.0
1032477.009337,89128.818,170341.0,6091.0,112377.0
1032477.019064,89138.545,170340.0,6101.0,112364.0
1032477.028792,89148.273,170307.0,6112.0,112334.0
1032477.038519,89158.0,170241.0,6083.0,112292.0
1032477.048852,89168.333,170124.0,6057.0,112200.0
1032477.059186,89178.667,170131.0,6048.0,112191.0
1032477.069519,89189.0,170099.0,6032.0,112184.0
1032477.079853,89199.333,170101.0,6052.0,112176.0
1032477.090186,89209.667,170051.0,6035.0,112177.0
1032477.10052,89220.0,170013.0,6045.0,112168.0
1032477.110853,89230.333,170053.0,6056.0,112118.0
1032477.121187,89240.667,170027.0,6017.0,112135.0
1032477.13152,89251.0,169997.0,6023.0,112178.0
1032477.141248,89260.727,169958.0,6014.0,112146.0
1032477.150975,89270.455,170013.0,6041.0,112232.0
1032477.160703,89280.182,169995.0,6040.0,112224.0
1032477.17043,89289.909,170018.0,6032.0,112270.0
1032477.180157,89299.636,170042.0,6029.0,112268.0
1032477.189885,89309.364,170114.0,6051.0,112307.0
1032477.199612,89319.091,170151.0,6023.0,112350.0
1032477.20934,89328.818,170206.0,6028.0,112368.0
1032477.219067,89338.545,170256.0,6054.0,112395.0
1032477.228795,89348.273,170273.0,6046.0,112389.0
1032477.238522,89358.0,170254.0,6044.0,112385.0
1032477.249122,89368.6,170297.0,6048.0,112404.0
1032477.259722,89379.2,170299.0,6067.0,112427.0
1032477.270322,89389.8,170307.0,6058.0,112425.0
1032477.280923,89400.4,170298.0,6067.0,112385.0
1032477.291523,89411.0,170293.0,6048.0,112400.0
1032477.302123,89421.6,170316.0,6037.0,112396.0
1032477.312723,89432.2,170365.0,6052.0,112402.0
1032477.323323,89442.8,170361.0,6033.0,112418.0
1032477.333923,89453.4,170408.0,6054.0,112444.0
1032477.344523,89464.0,170446.0,6032.0,112480.0
1032477.353924,89473.4,170429.0,6071.0,112489.0
1032477.363324,89482.8,170414.0,6058.0,112452.0
1032477.372724,89492.2,170453.0,6058.0,112489.0
1032477.382124,89501.6,170481.0,6063.0,112488.0
1032477.391524,89511.0,170541.0,6067.0,112550.0
1032477.400924,89520.4,170611.0,6076.0,112592.0
1032477.410324,89529.8,170696.0,6067.0,112654.0
1032477.419725,89539.2,170720.0,6069.0,112659.0
1032477.429125,89548.6,170821.0,6077.0,112748.0
1032477.438525,89558.0,170825.0,6097.0,112738.0
1032477.449125,89568.6,170884.0,6084.0,112786.0
1032477.459725,89579.2,170921.0,6075.0,112813.0
1032477.470325,89589.8,170960.0,6082.0,112826.0
1032477.480926,89600.4,170947.0,6061.0,112840.0
1032477.491526,89611.0,170994.0,6084.0,112825.0
1032477.502126,89621.6,171026.0,6050.0,112852.0
1032477.512726,89632.2,171002.0,6087.0,112801.0
1032477.523326,89642.8,171047.0,6084.0,112835.0
1032477.533926,89653.4,170990.0,6074.0,112790.0
1032477.544526,89664.0,170962.0,6088.0,112811.0
1032477.554971,89674.444,170977.0,6082.0,112778.0
1032477.565416,89684.889,170960.0,6087.0,112802.0
1032477.57586,89695.333,170970.0,6064.0,112787.0
1032477.586305,89705.778,170929.0,6068.0,112761.0
1032477.596749,89716.222,170927.0,6078.0,112758.0
1032477.607194,89726.667,170877.0,6061.0,112734.0
1032477.617639,89737.111,170822.0,6064.0,112695.0
1032477.628083,89747.556,170773.0,6038.0,112707.0
1032477.638528,89758.0,170730.0,6037.0,112699.0
1032477.648164,89767.636,170771.0,6058.0,112687.0
1032477.657801,89777.273,170731.0,6004.0,112726.0
1032477.667437,89786.909,170769.0,6022.0,112766.0
1032477.677074,89796.545,170803.0,6026.0,112837.0
1032477.68671,89806.182,170837.0,6003.0,112848.0
1032477.696347,89815.818,170822.0,5995.0,112812.0
1032477.705983,89825.455,170824.0,6013.0,112834.0
1032477.71562,89835.091,170765.0,5982.0,112795.0
1032477.725256,89844.727,170785.0,5994.0,112819.0
1032477.734893,89854.364,170784.0,6024.0,112836.0
1032477.744529,89864.0,170760.0,6001.0,112775.0
1032477.754974,89874.444,170703.0,5983.0,112730.0
1032477.765419,89884.889,170721.0,5993.0,112709.0
1032477.775863,89895.333,170660.0,5986.0,112697.0
1032477.786308,89905.778,170694.0,5999.0,112716.0
1032477.796752,89916.222,170675.0,6026.0,112713.0
1032477.807197,89926.667,170693.0,5984.0,112714.0
1032477.817642,89937.111,170679.0,6007.0,112733.0
1032477.828086,89947.556,170709.0,5999.0,112749.0
1032477.838531,89958.0,170718.0,5987.0,112733.0
1032477.848167,89967.636,170693.0,5978.0,112713.0
1032477.857804,89977.273,170697.0,6000.0,112697.0
1032477.86744,89986.909,170676.0,5998.0,112729.0
1032477.877077,89996.545,170681.0,5998.0,112692.0
1032477.886713,90006.182,170644.0,5956.0,112677.0
1032477.89635,90015.818,170675.0,6007.0,112709.0
1032477.905986,90025.455,170648.0,5990.0,112672.0
1032477.915623,90035.091,170636.0,5974.0,112691.0
1032477.925259,90044.727,170605.0,5974.0,112653.0
1032477.934896,90054.364,170575.0,5965.0,112600.0
1032477.944532,90064.0,170541.0,5989.0,112579.0
1032477.955232,90074.7,170505.0,5981.0,112553.0
1032477.965933,90085.4,170467.0,6004.0,112505.0
1032477.976633,90096.1,170475.0,5978.0,112505.0
1032477.987333,90106.8,170515.0,5979.0,112528.0
1032477.998033,90117.5,170528.0,5993.0,112567.0
1032478.008733,90128.2,170524.0,5996.0,112550.0
1032478.019433,90138.9,170498.0,5983.0,112551.0
1032478.030134,90149.6,170526.0,5950.0,112545.0
1032478.040834,90160.3,170493.0,5995.0,112524.0
1032478.051534,90171.0,170447.0,6019.0,112510.0
1032478.060934,90180.4,170376.0,6002.0,112390.0
1032478.070334,90189.8,170277.0,5967.0,112338.0
1032478.079734,90199.2,170248.0,5980.0,112270.0
1032478.089134,90208.6,170215.0,5995.0,112214.0
1032478.098535,90218.0,170143.0,5962.0,112165.0
1032478.107935,90227.4,170117.0,5961.0,112144.0
1032478.117335,90236.8,170151.0,5981.0,112184.0
1032478.126735,90246.2,170167.0,5967.0,112234.0
1032478.136135,90255.6,170193.0,6032.0,112271.0
1032478.145535,90265.0,170183.0,5990.0,112339.0
1032478.156135,90275.6,170239.0,5989.0,112438.0
1032478.166736,90286.2,170295.0,6010.0,112502.0
1032478.177336,90296.8,170326.0,6010.0,112542.0
1032478.187936,90307.4,170343.0,5999.0,112528.0
1032478.198536,90318.0,170352.0,5997.0,112542.0
1032478.209136,90328.6,170322.0,5978.0,112515.0
1032478.219736,90339.2,170331.0,5961.0,112554.0
1032478.230337,90349.8,170291.0,5986.0,112521.0
1032478.240937,90360.4,170277.0,5964.0,112508.0
1032478.251537,90371.0,170233.0,5950.0,112479.0
1032478.26187,90381.333,170208.0,5943.0,112496.0
1032478.272204,90391.667,170193.0,5931.0,112448.0
1032478.282537,90402.0,170193.0,5942.0,112436.0
1032478.292871,90412.333,170136.0,5913.0,112405.0
1032478.303204,90422.667,170202.0,5962.0,112409.0
1032478.313538,90433.0,170209.0,5948.0,112447.0
1032478.323871,90443.333,170211.0,5920.0,112448.0
1032478.334205,90453.667,170224.0,5969.0,112459.0
1032478.344538,90464.0,170261.0,5951.0,112478.0
1032478.354266,90473.727,170314.0,5974.0,112529.0
1032478.363993,90483.455,170322.0,5942.0,112535.0
1032478.37372,90493.182,170386.0,5966.0,112554.0
1032478.383448,90502.909,170391.0,5946.0,112571.0
1032478.393175,90512.636,170460.0,5966.0,112612.0
1032478.402903,90522.364,170432.0,5972.0,112589.0
1032478.41263,90532.091,170478.0,5961.0,112615.0
1032478.422358,90541.818,170453.0,5965.0,112593.0
1032478.432085,90551.545,170454.0,5969.0,112617.0
1032478.441812,90561.273,170490.0,5982.0,112621.0
1032478.45154,90571.0,170479.0,5961.0,112597.0
1032478.461267,90580.727,170482.0,5960.0,112613.0
1032478.470995,90590.455,170488.0,5956.0,112605.0
1032478.480722,90600.182,170506.0,5984.0,112623.0
1032478.490449,90609.909,170492.0,5969.0,112609.0
1032478.500177,90619.636,170492.0,5968.0,112607.0
1032478.509904,90629.364,170513.0,5965.0,112645.0
1032478.519632,90639.091,170555.0,5973.0,112651.0
1032478.529359,90648.818,170581.0,5970.0,112658.0
1032478.539087,90658.545,170642.0,5974.0,112684.0
1032478.548814,90668.273,170660.0,5933.0,112727.0
1032478.558541,90678.0,170716.0,5957.0,112754.0
1032478.568875,90688.333,170773.0,5996.0,112814.0
1032478.579208,90698.667,170816.0,6005.0,112867.0
1032478.589542,90709.0,170839.0,5977.0,112850.0
1032478.599875,90719.333,170881.0,5992.0,112918.0
1032478.610209,90729.667,170957.0,5996.0,112938.0
1032478.620542,90740.0,171023.0,6021.0,112971.0
1032478.630876,90750.333,171026.0,6011.0,112971.0
1032478.641209,90760.667,171061.0,5988.0,113015.0
1032478.651543,90771.0,171102.0,6016.0,113025.0
1032478.662243,90781.7,171140.0,5989.0,113045.0
1032478.672943,90792.4,171176.0,6032.0,113064.0
1032478.683643,90803.1,171187.0,5990.0,113061.0
1032478.694343,90813.8,171194.0,6008.0,113072.0
1032478.705043,90824.5,171215.0,6011.0,113102.0
1032478.715744,90835.2,171244.0,6011.0,113104.0
1032478.726444,90845.9,171261.0,6017.0,113087.0
1032478.737144,90856.6,171259.0,6004.0,113102.0
1032478.747844,90867.3,171284.0,6021.0,113083.0
1032478.758544,90878.0,171311.0,6007.0,113113.0
1032478.767844,90887.3,171268.0,5995.0,113087.0
1032478.777145,90896.6,171283.0,6008.0,113111.0
1032478.786445,90905.9,171305.0,6005.0,113121.0
1032478.795745,90915.2,171323.0,5980.0,113123.0
1032478.805045,90924.5,171321.0,5974.0,113150.0
1032478.814345,90933.8,171349.0,5974.0,113154.0
1032478.823645,90943.1,171360.0,5975.0,113188.0
1032478.832945,90952.4,171354.0,5971.0,113194.0
1032478.842246,90961.7,171383.0,5966.0,113229.0
1032478.851546,90971.0,171385.0,5962.0,113180.0
1032478.862246,90981.7,171373.0,5966.0,113211.0
1032478.872946,90992.4,171382.0,5986.0,113204.0
1032478.883646,91003.1,171399.0,5982.0,113240.0
1032478.894346,91013.8,171358.0,5954.0,113196.0
1032478.905046,91024.5,171378.0,5963.0,113219.0
1032478.915747,91035.2,171423.0,5943.0,113218.0
1032478.926447,91045.9,171442.0,5981.0,113251.0
1032478.937147,91056.6,171452.0,5988.0,113248.0
1032478.947847,91067.3,171452.0,5970.0,113239.0
1032478.958547,91078.0,171425.0,5965.0,113235.0
1032478.968184,91087.636,171470.0,5961.0,113285.0
1032478.97782,91097.273,171509.0,5985.0,113293.0
1032478.987457,91106.909,171506.0,5972.0,113285.0
1032478.997093,91116.545,171499.0,5969.0,113264.0
1032479.00673,91126.182,171540.0,5956.0,113310.0
1032479.016366,91135.818,171530.0,5999.0,113297.0
1032479.026003,91145.455,171539.0,5980.0,113309.0
1032479.035639,91155.091,171525.0,5976.0,113299.0
1032479.045276,91164.727,171523.0,5960.0,113288.0
1032479.054912,91174.364,171560.0,5982.0,113319.0
1032479.064549,91184.0,171569.0,5970.0,113291.0
1032479.074993,91194.444,171574.0,5979.0,113270.0
1032479.085438,91204.889,171506.0,5941.0,113238.0
1032479.095883,91215.333,171584.0,5970.0,113317.0
1032479.106327,91225.778,171570.0,5957.0,113302.0
1032479.116772,91236.222,171566.0,5997.0,113274.0
1032479.127216,91246.667,171578.0,5960.0,113285.0
1032479.137661,91257.111,171565.0,5970.0,113297.0
1032479.148106,91267.556,171622.0,5991.0,113314.0
1032479.15855,91278.0,171591.0,5977.0,113324.0
1032479.168187,91287.636,171604.0,5974.0,113280.0
1032479.177823,91297.273,171590.0,5969.0,113267.0
1032479.18746,91306.909,171587.0,5985.0,113298.0
1032479.197096,91316.545,171624.0,5976.0,113304.0
1032479.206733,91326.182,171620.0,5996.0,113276.0
1032479.216369,91335.818,171627.0,5977.0,113296.0
1032479.226006,91345.455,171628.0,5986.0,113341.0
1032479.235642,91355.091,171641.0,5979.0,113298.0
1032479.245279,91364.727,171669.0,6010.0,113287.0
1032479.254915,91374.364,171635.0,5990.0,113285.0
1032479.264552,91384.0,171662.0,5982.0,113286.0
1032479.275252,91394.7,171678.0,5982.0,113309.0
1032479.285952,91405.4,171710.0,5997.0,113339.0
1032479.296652,91416.1,171649.0,5974.0,113313.0
1032479.307352,91426.8,171712.0,6013.0,113340.0
1032479.318052,91437.5,171683.0,5993.0,113316.0
1032479.328753,91448.2,171700.0,6013.0,113317.0
1032479.339453,91458.9,171676.0,5980.0,113294.0
1032479.350153,91469.6,171633.0,5981.0,113277.0
1032479.360853,91480.3,171642.0,5990.0,113301.0
1032479.371553,91491.0,171602.0,5979.0,113281.0
1032479.380853,91500.3,171582.0,5974.0,113299.0
1032479.390154,91509.6,171568.0,5968.0,113237.0
1032479.399454,91518.9,171541.0,5957.0,113263.0
1032479.408754,91528.2,171538.0,5969.0,113257.0
1032479.418054,91537.5,171514.0,5947.0,113217.0
1032479.427354,91546.8,171496.0,5941.0,113257.0
1032479.436654,91556.1,171512.0,5944.0,113242.0
1032479.445954,91565.4,171497.0,5929.0,113246.0
1032479.455255,91574.7,171510.0,5965.0,113256.0
1032479.464555,91584.0,171492.0,5957.0,113222.0
1032479.475255,91594.7,171491.0,5924.0,113236.0
1032479.485955,91605.4,171469.0,5960.0,113230.0
1032479.496655,91616.1,171458.0,5975.0,113235.0
1032479.507355,91626.8,171478.0,5947.0,113189.0
1032479.518055,91637.5,171490.0,5959.0,113220.0
1032479.528756,91648.2,171477.0,5944.0,113189.0
1032479.539456,91658.9,171512.0,5962.0,113240.0
1032479.550156,91669.6,171517.0,5975.0,113246.0
1032479.560856,91680.3,171485.0,5933.0,113209.0
1032479.571556,91691.0,171515.0,5956.0,113216.0
1032479.58189,91701.333,171488.0,5945.0,113251.0
1032479.592223,91711.667,171536.0,5987.0,113255.0
1032479.602557,91722.0,171495.0,5954.0,113210.0
1032479.61289,91732.333,171519.0,5946.0,113224.0
1032479.623224,91742.667,171531.0,5944.0,113219.0
1032479.633557,91753.0,171520.0,5957.0,113249.0
1032479.643891,91763.333,171530.0,5979.0,113220.0
1032479.654224,91773.667,171524.0,5956.0,113234.0
1032479.664558,91784.0,171496.0,5938.0,113212.0
1032479.674285,91793.727,171495.0,5970.0,113242.0
1032479.684012,91803.455,171537.0,5970.0,113228.0
1032479.69374,91813.182,171529.0,5971.0,113222.0
1032479.703467,91822.909,171521.0,5960.0,113213.0
1032479.713195,91832.636,171537.0,5977.0,113247.0
1032479.722922,91842.364,171530.0,5977.0,113226.0
1032479.73265,91852.091,171553.0,5965.0,113242.0
1032479.742377,91861.818,171528.0,5991.0,113220.0
1032479.752104,91871.545,171519.0,5946.0,113217.0
1032479.761832,91881.273,171575.0,5979.0,113269.0
1032479.771559,91891.0,171560.0,5966.0,113233.0
1032479.781893,91901.333,171578.0,5988.0,113224.0
1032479.792226,91911.667,171545.0,5972.0,113208.0
1032479.80256,91922.0,171571.0,6000.0,113231.0
1032479.812893,91932.333,171573.0,5976.0,113234.0
1032479.823227,91942.667,171532.0,5974.0,113239.0
1032479.83356,91953.0,171549.0,5965.0,113234.0
1032479.843894,91963.333,171569.0,5985.0,113245.0
1032479.854227,91973.667,171593.0,5992.0,113239.0
1032479.864561,91984.0,171600.0,6003.0,113261.0
1032479.874288,91993.727,171559.0,5971.0,113238.0
1032479.884015,92003.455,171604.0,5978.0,113249.0
1032479.893743,92013.182,171582.0,6011.0,113244.0
1032479.90347,92022.909,171588.0,6000.0,113241.0
1032479.913198,92032.636,171574.0,5997.0,113215.0
1032479.922925,92042.364,171559.0,6000.0,113226.0
1032479.932652,92052.091,171583.0,6014.0,113242.0
1032479.94238,92061.818,171574.0,5991.0,113259.0
1032479.952107,92071.545,171518.0,5997.0,113231.0
1032479.961835,92081.273,171513.0,5972.0,113202.0
1032479.971562,92091.0,171508.0,5956.0,113202.0
1032479.982162,92101.6,171498.0,5984.0,113216.0
1032479.992762,92112.2,171465.0,6007.0,113219.0
1032480.003363,92122.8,171472.0,5968.0,113201.0
1032480.013963,92133.4,171440.0,5982.0,113199.0
1032480.024563,92144.0,171465.0,5989.0,113199.0
1032480.035163,92154.6,171450.0,5988.0,113194.0
1032480.045763,92165.2,171403.0,5957.0,113173.0
1032480.056363,92175.8,171436.0,5972.0,113194.0
1032480.066964,92186.4,171446.0,5960.0,113187.0
1032480.077564,92197.0,171422.0,5963.0,113174.0
1032480.086964,92206.4,171465.0,5969.0,113172.0
1032480.096364,92215.8,171443.0,5970.0,113168.0
1032480.105764,92225.2,171444.0,5963.0,113176.0
1032480.115164,92234.6,171464.0,5964.0,113200.0
1032480.124564,92244.0,171440.0,5950.0,113178.0
1032480.133964,92253.4,171445.0,5984.0,113208.0
1032480.143365,92262.8,171464.0,5981.0,113190.0
1032480.152765,92272.2,171463.0,5961.0,113192.0
1032480.162165,92281.6,171480.0,6011.0,113202.0
1032480.171565,92291.0,171491.0,5997.0,113172.0
1032480.182165,92301.6,171476.0,5974.0,113183.0
1032480.192765,92312.2,171450.0,5976.0,113183.0
1032480.203366,92322.8,171455.0,5987.0,113156.0
1032480.213966,92333.4,171431.0,5976.0,113196.0
1032480.224566,92344.0,171454.0,5981.0,113179.0
1032480.235166,92354.6,171443.0,5969.0,113184.0
1032480.245766,92365.2,171440.0,5969.0,113154.0
1032480.256366,92375.8,171473.0,5969.0,113196.0
1032480.266966,92386.4,171442.0,5990.0,113171.0
1032480.277567,92397.0,171452.0,5992.0,113151.0
1032480.288011,92407.444,171491.0,5982.0,113197.0
1032480.298456,92417.889,171442.0,5997.0,113198.0
1032480.3089,92428.333,171463.0,5975.0,113176.0
1032480.319345,92438.778,171491.0,5994.0,113163.0
1032480.32979,92449.222,171513.0,5982.0,113206.0
1032480.340234,92459.667,171516.0,6024.0,113216.0
1032480.350679,92470.111,171528.0,6018.0,113214.0
1032480.361123,92480.556,171524.0,5990.0,113196.0
1032480.371568,92491.0,171518.0,6016.0,113171.0
1032480.381204,92500.636,171528.0,6000.0,113193.0
1032480.390841,92510.273,171578.0,6027.0,113230.0
1032480.400477,92519.909,171574.0,6008.0,113198.0
1032480.410114,92529.545,171589.0,6000.0,113194.0
1032480.419751,92539.182,171614.0,5987.0,113235.0
1032480.429387,92548.818,171654.0,6035.0,113202.0
1032480.439024,92558.455,171632.0,6006.0,113210.0
1032480.44866,92568.091,171642.0,6020.0,113216.0
1032480.458297,92577.727,171660.0,5981.0,113214.0
1032480.467933,92587.364,171616.0,6001.0,113205.0
1032480.47757,92597.0,171637.0,5999.0,113208.0
1032480.487297,92606.727,171633.0,6007.0,113228.0
1032480.497024,92616.455,171633.0,5996.0,113231.0
1032480.506752,92626.182,171650.0,6031.0,113230.0
1032480.516479,92635.909,171668.0,6010.0,113213.0
1032480.526207,92645.636,171655.0,6029.0,113192.0
1032480.535934,92655.364,171674.0,6015.0,113220.0
1032480.545661,92665.091,171664.0,6013.0,113211.0
1032480.555389,92674.818,171700.0,6032.0,113227.0
1032480.565116,92684.545,171665.0,6039.0,113205.0
1032480.574844,92694.273,171647.0,6024.0,113194.0
1032480.584571,92704.0,171614.0,5987.0,113213.0
1032480.594905,92714.333,171622.0,5997.0,113199.0
1032480.605238,92724.667,171599.0,5964.0,113187.0
1032480.615572,92735.0,171565.0,5967.0,113170.0
1032480.625905,92745.333,171597.0,6009.0,113200.0
1032480.636239,92755.667,171570.0,5990.0,113188.0
1032480.646572,92766.0,171566.0,5973.0,113153.0
1032480.656906,92776.333,171585.0,5999.0,113195.0
1032480.667239,92786.667,171570.0,6005.0,113167.0
1032480.677572,92797.0,171519.0,5965.0,113183.0
1032480.688273,92807.7,171576.0,5973.0,113189.0
1032480.698973,92818.4,171583.0,5959.0,113199.0
1032480.709673,92829.1,171561.0,5973.0,113207.0
1032480.720373,92839.8,171601.0,5999.0,113195.0
1032480.731073,92850.5,171606.0,5991.0,113180.0
1032480.741773,92861.2,171564.0,5995.0,113208.0
1032480.752474,92871.9,171620.0,6013.0,113207.0
1032480.763174,92882.6,171600.0,5985.0,113171.0
1032480.773874,92893.3,171615.0,5994.0,113205.0
1032480.784574,92904.0,171612.0,5985.0,113183.0
1032480.794301,92913.727,171640.0,6005.0,113212.0
1032480.804029,92923.455,171599.0,6019.0,113197.0
1032480.813756,92933.182,171610.0,6003.0,113190.0
1032480.823484,92942.909,171622.0,6000.0,113219.0
1032480.833211,92952.636,171624.0,6011.0,113169.0
1032480.842939,92962.364,171615.0,5992.0,113191.0
1032480.852666,92972.091,171615.0,6003.0,113201.0
1032480.862393,92981.818,171592.0,6011.0,113180.0
1032480.872121,92991.545,171645.0,6043.0,113201.0
1032480.881848,93001.273,171658.0,6026.0,113213.0
1032480.891576,93011.0,171605.0,6001.0,113194.0
1032480.901909,93021.333,171595.0,6008.0,113195.0
1032480.912243,93031.667,171648.0,6013.0,113203.0
1032480.922576,93042.0,171606.0,6007.0,113187.0
1032480.93291,93052.333,171624.0,6010.0,113202.0
1032480.943243,93062.667,171628.0,6043.0,113191.0
1032480.953577,93073.0,171672.0,6017.0,113219.0
1032480.96391,93083.333,171647.0,6034.0,113237.0
1032480.974244,93093.667,171631.0,6028.0,113195.0
1032480.984577,93104.0,171602.0,6035.0,113203.0
1032480.994304,93113.727,171629.0,6017.0,113184.0
1032481.004032,93123.455,171664.0,6050.0,113221.0
1032481.013759,93133.182,171640.0,6030.0,113202.0
1032481.023487,93142.909,171649.0,5999.0,113202.0
1032481.033214,93152.636,171646.0,6034.0,113176.0
1032481.042941,93162.364,171664.0,6026.0,113223.0
1032481.052669,93172.091,171654.0,6062.0,113208.0
1032481.062396,93181.818,171649.0,6046.0,113222.0
1032481.072124,93191.545,171646.0,6041.0,113185.0
1032481.081851,93201.273,171655.0,6047.0,113230.0
1032481.091579,93211.0,171704.0,6082.0,113227.0
1032481.101912,93221.333,171657.0,6059.0,113225.0
1032481.112246,93231.667,171678.0,6057.0,113184.0
1032481.122579,93242.0,171675.0,6051.0,113178.0
1032481.132913,93252.333,171652.0,6057.0,113181.0
1032481.143246,93262.667,171673.0,6060.0,113209.0
1032481.153579,93273.0,171652.0,6048.0,113206.0
1032481.163913,93283.333,171647.0,6052.0,113196.0
1032481.174246,93293.667,171588.0,6058.0,113222.0
1032481.18458,93304.0,171624.0,6044.0,113196.0
1032481.194307,93313.727,171594.0,6061.0,113166.0
1032481.204035,93323.455,171579.0,6034.0,113177.0
1032481.213762,93333.182,171597.0,6056.0,113157.0
1032481.22349,93342.909,171570.0,6029.0,113178.0
1032481.233217,93352.636,171549.0,6024.0,113169.0
1032481.242944,93362.364,171533.0,6019.0,113175.0
1032481.252672,93372.091,171567.0,6024.0,113160.0
1032481.262399,93381.818,171563.0,6042.0,113170.0
1032481.272127,93391.545,171572.0,6027.0,113184.0
1032481.281854,93401.273,171569.0,6006.0,113149.0
1032481.291582,93411.0,171553.0,6035.0,113159.0
1032481.302182,93421.6,171570.0,6036.0,113171.0
1032481.312782,93432.2,171571.0,6035.0,113172.0
1032481.323382,93442.8,171569.0,6039.0,113161.0
1032481.333982,93453.4,171574.0,6032.0,113185.0
1032481.344582,93464.0,171586.0,6037.0,113175.0
1032481.355182,93474.6,171604.0,6071.0,113153.0
1032481.365783,93485.2,171579.0,6052.0,113149.0
1032481.376383,93495.8,171552.0,6027.0,113157.0
1032481.386983,93506.4,171606.0,6047.0,113175.0
1032481.397583,93517.0,171603.0,6042.0,113174.0
1032481.408028,93527.444,171618.0,6065.0,113188.0
1032481.418472,93537.889,171576.0,6040.0,113153.0
1032481.428917,93548.333,171612.0,6047.0,113167.0
1032481.439361,93558.778,171568.0,6044.0,113185.0
1032481.449806,93569.222,171630.0,6072.0,113203.0
1032481.460251,93579.667,171599.0,6047.0,113155.0
1032481.470695,93590.111,171585.0,6040.0,113181.0
1032481.48114,93600.556,171608.0,6063.0,113146.0
1032481.491584,93611.0,171644.0,6064.0,113195.0
1032481.501221,93620.636,171587.0,6069.0,113165.0
1032481.510857,93630.273,171584.0,6046.0,113144.0
1032481.520494,93639.909,171619.0,6055.0,113175.0
1032481.53013,93649.545,171607.0,6078.0,113200.0
1032481.539767,93659.182,171596.0,6051.0,113188.0
1032481.549403,93668.818,171641.0,6095.0,113204.0
1032481.55904,93678.455,171635.0,6061.0,113179.0
1032481.568676,93688.091,171635.0,6076.0,113175.0
1032481.578313,93697.727,171654.0,6075.0,113202.0
1032481.587949,93707.364,171636.0,6061.0,113156.0
1032481.597586,93717.0,171644.0,6087.0,113183.0
1032481.608031,93727.444,171640.0,6073.0,113164.0
1032481.618475,93737.889,171653.0,6104.0,113185.0
1032481.62892,93748.333,171601.0,6068.0,113130.0
1032481.639364,93758.778,171643.0,6084.0,113175.0
1032481.649809,93769.222,171633.0,6065.0,113170.0
1032481.660254,93779.667,171666.0,6109.0,113168.0
1032481.670698,93790.111,171654.0,6109.0,113177.0
1032481.681143,93800.556,171647.0,6089.0,113180.0
1032481.691587,93811.0,171628.0,6086.0,113161.0
1032481.701224,93820.636,171643.0,6100.0,113187.0
1032481.71086,93830.273,171657.0,6118.0,113181.0
1032481.720497,93839.909,171639.0,6106.0,113161.0
1032481.730133,93849.545,171601.0,6082.0,113133.0
1032481.73977,93859.182,171594.0,6093.0,113144.0
1032481.749406,93868.818,171537.0,6108.0,113120.0
1032481.759043,93878.455,171502.0,6083.0,113067.0
1032481.768679,93888.091,171471.0,6082.0,113083.0
1032481.778316,93897.727,171467.0,6082.0,113098.0
1032481.787952,93907.364,171476.0,6093.0,113103.0
1032481.797589,93917.0,171465.0,6091.0,113100.0
1032481.808289,93927.7,171448.0,6065.0,113057.0
1032481.818989,93938.4,171409.0,6063.0,113066.0
1032481.829689,93949.1,171408.0,6086.0,113045.0
1032481.84039,93959.8,171405.0,6090.0,113059.0
1032481.85109,93970.5,171394.0,6062.0,113052.0
1032481.86179,93981.2,171363.0,6050.0,113040.0
1032481.87249,93991.9,171362.0,6074.0,113052.0
1032481.88319,94002.6,171422.0,6076.0,113040.0
1032481.89389,94013.3,171395.0,6099.0,113056.0
1032481.904591,94024.0,171347.0,6067.0,113013.0
1032481.913891,94033.3,171357.0,6051.0,113005.0
1032481.923191,94042.6,171391.0,6072.0,113056.0
1032481.932491,94051.9,171373.0,6071.0,113011.0
1032481.941791,94061.2,171360.0,6067.0,113010.0
1032481.951091,94070.5,171362.0,6066.0,112997.0
1032481.960391,94079.8,171367.0,6085.0,113051.0
1032481.969691,94089.1,171362.0,6072.0,113010.0
1032481.978992,94098.4,171385.0,6097.0,113012.0
1032481.988292,94107.7,171342.0,6073.0,112990.0
1032481.997592,94117.0,171350.0,6071.0,112992.0
1032482.008292,94127.7,171328.0,6076.0,113003.0
1032482.018992,94138.4,171348.0,6099.0,113016.0
1032482.029692,94149.1,171294.0,6079.0,112999.0
1032482.040393,94159.8,171313.0,6089.0,113026.0
1032482.051093,94170.5,171302.0,6078.0,112994.0
1032482.061793,94181.2,171333.0,6058.0,112981.0
1032482.072493,94191.9,171304.0,6072.0,112974.0
1032482.083193,94202.6,171314.0,6066.0,112985.0
1032482.093893,94213.3,171306.0,6071.0,113003.0
1032482.104593,94224.0,171300.0,6076.0,113002.0
1032482.114321,94233.727,171297.0,6084.0,112989.0
1032482.124048,94243.455,171280.0,6072.0,112990.0
1032482.133776,94253.182,171315.0,6086.0,113004.0
1032482.143503,94262.909,171335.0,6096.0,113010.0
1032482.153231,94272.636,171287.0,6089.0,112976.0
1032482.162958,94282.364,171297.0,6081.0,112968.0
1032482.172685,94292.091,171303.0,6096.0,113004.0
1032482.182413,94301.818,171305.0,6059.0,112990.0
1032482.19214,94311.545,171345.0,6116.0,112998.0
1032482.201868,94321.273,171309.0,6084.0,112976.0
1032482.211595,94331.0,171315.0,6071.0,112984.0
1032482.221929,94341.333,171296.0,6111.0,112976.0
1032482.232262,94351.667,171309.0,6119.0,113005.0
1032482.242595,94362.0,171291.0,6087.0,112966.0
1032482.252929,94372.333,171319.0,6105.0,112985.0
1032482.263262,94382.667,171314.0,6087.0,112950.0
1032482.273596,94393.0,171329.0,6071.0,112980.0
1032482.283929,94403.333,171320.0,6118.0,112992.0
1032482.294263,94413.667,171248.0,6074.0,112918.0
1032482.304596,94424.0,171306.0,6102.0,112964.0
1032482.314324,94433.727,171264.0,6086.0,112959.0
1032482.324051,94443.455,171299.0,6135.0,112966.0
1032482.333779,94453.182,171264.0,6084.0,112957.0
1032482.343506,94462.909,171242.0,6090.0,112951.0
1032482.353233,94472.636,171215.0,6097.0,112927.0
1032482.362961,94482.364,171195.0,6105.0,112908.0
1032482.372688,94492.091,171154.0,6111.0,112910.0
1032482.382416,94501.818,171144.0,6076.0,112916.0
1032482.392143,94511.545,171114.0,6068.0,112877.0
1032482.401871,94521.273,171085.0,6059.0,112893.0
1032482.411598,94531.0,171097.0,6072.0,112874.0
1032482.421931,94541.333,171046.0,6060.0,112830.0
1032482.432265,94551.667,171041.0,6046.0,112842.0
1032482.442598,94562.0,171045.0,6076.0,112857.0
1032482.452932,94572.333,170992.0,6058.0,112805.0
1032482.463265,94582.667,171019.0,6063.0,112847.0
1032482.473599,94593.0,170998.0,6074.0,112823.0
1032482.483932,94603.333,170997.0,6049.0,112828.0
1032482.494266,94613.667,171007.0,6081.0,112857.0
1032482.504599,94624.0,170986.0,6068.0,112826.0
1032482.514327,94633.727,170972.0,6044.0,112815.0
1032482.524054,94643.455,170962.0,6055.0,112790.0
1032482.533782,94653.182,170967.0,6070.0,112828.0
1032482.543509,94662.909,170957.0,6059.0,112799.0
1032482.553236,94672.636,170900.0,6037.0,112771.0
1032482.562964,94682.364,170945.0,6070.0,112809.0
1032482.572691,94692.091,170972.0,6082.0,112828.0
1032482.582419,94701.818,170966.0,6059.0,112817.0
1032482.592146,94711.545,170948.0,6053.0,112789.0
1032482.601873,94721.273,170936.0,6045.0,112816.0
1032482.611601,94731.0,170963.0,6053.0,112814.0
1032482.622201,94741.6,170952.0,6092.0,112810.0
1032482.632801,94752.2,170943.0,6064.0,112818.0
1032482.643401,94762.8,170944.0,6057.0,112794.0
1032482.654002,94773.4,170943.0,6089.0,112816.0
1032482.664602,94784.0,170939.0,6091.0,112783.0
1032482.675202,94794.6,170935.0,6076.0,112810.0
1032482.685802,94805.2,170908.0,6048.0,112751.0
1032482.696402,94815.8,170927.0,6053.0,112757.0
1032482.707002,94826.4,170942.0,6066.0,112800.0
1032482.717602,94837.0,170932.0,6081.0,112796.0
1032482.728047,94847.444,170928.0,6096.0,112811.0
1032482.738492,94857.889,170912.0,6055.0,112785.0
1032482.748936,94868.333,170938.0,6072.0,112816.0
1032482.759381,94878.778,170927.0,6073.0,112809.0
1032482.769825,94889.222,170926.0,6058.0,112795.0
1032482.78027,94899.667,170944.0,6064.0,112813.0
1032482.790715,94910.111,170942.0,6075.0,112796.0
1032482.801159,94920.556,170941.0,6088.0,112801.0
1032482.811604,94931.0,170986.0,6078.0,112821.0
1032482.82124,94940.636,170939.0,6077.0,112791.0
1032482.830877,94950.273,170913.0,6080.0,112757.0
1032482.840513,94959.909,170936.0,6094.0,112784.0
1032482.85015,94969.545,170920.0,6077.0,112760.0
1032482.859786,94979.182,170903.0,6076.0,112770.0
1032482.869423,94988.818,170927.0,6063.0,112768.0
1032482.879059,94998.455,170921.0,6087.0,112763.0
1032482.888696,95008.091,170893.0,6100.0,112745.0
1032482.898332,95017.727,170903.0,6105.0,112757.0
1032482.907969,95027.364,170872.0,6091.0,112745.0
1032482.917605,95037.0,170881.0,6092.0,112762.0
1032482.927939,95047.333,170865.0,,112760.0
1032482.92805,95047.444,,6076.0,
1032482.938272,95057.667,170873.0,,112789.0
1032482.938495,95057.889,,6110.0,
1032482.948606,95068.0,170828.0,,112745.0
1032482.948939,95068.333,,6055.0,
1032482.958939,95078.333,170838.0,,112742.0
1032482.959384,95078.778,,6055.0,
1032482.969273,95088.667,170820.0,,112749.0
1032482.969828,95089.222,,6048.0,
1032482.979606,95099.0,170812.0,,112755.0
1032482.980273,95099.667,,6084.0,
1032482.98994,95109.333,170793.0,,112721.0
1032482.990718,95110.111,,6051.0,
1032483.000273,95119.667,170811.0,,112751.0
1032483.001162,95120.556,,6043.0,
1032483.010607,95130.0,170789.0,,112738.0
1032483.011607,95131.0,,6070.0,
1032483.020334,95139.727,170819.0,,112756.0
1032483.021243,95140.636,,6052.0,
1032483.030062,95149.455,170860.0,,112743.0
1032483.03088,95150.273,,6073.0,
1032483.039789,95159.182,170811.0,,112748.0
1032483.040516,95159.909,,6036.0,
1032483.049516,95168.909,170840.0,,112723.0
1032483.050153,95169.545,,6042.0,
1032483.059244,95178.636,170855.0,,112771.0
1032483.059789,95179.182,,6026.0,
1032483.068971,95188.364,170856.0,,112749.0
1032483.069426,95188.818,,6067.0,
1032483.078699,95198.091,170845.0,,112743.0
1032483.079062,95198.455,,6048.0,
1032483.088426,95207.818,170842.0,,112748.0
1032483.088699,95208.091,,6030.0,
1032483.098154,95217.545,170862.0,,112776.0
1032483.098335,95217.727,,6056.0,
1032483.107881,95227.273,170893.0,,112783.0
1032483.107972,95227.364,,6075.0,
1032483.117608,95237.0,170912.0,6063.0,112754.0
1032483.128308,95247.7,170902.0,6056.0,112781.0
1032483.139009,95258.4,170902.0,6030.0,112764.0
1032483.149709,95269.1,170936.0,6083.0,112810.0
1032483.160409,95279.8,170913.0,6037.0,112774.0
1032483.171109,95290.5,170933.0,6055.0,112804.0
1032483.181809,95301.2,170937.0,6052.0,112807.0
1032483.192509,95311.9,170939.0,6041.0,112839.0
1032483.20321,95322.6,170974.0,6041.0,112830.0
1032483.21391,95333.3,171008.0,6063.0,112854.0
1032483.22461,95344.0,170984.0,6055.0,112831.0
1032483.23391,95353.3,171043.0,6067.0,112897.0
1032483.24321,95362.6,171058.0,6054.0,112922.0
1032483.25251,95371.9,171097.0,6059.0,112940.0
1032483.26181,95381.2,171120.0,6058.0,112957.0
1032483.271111,95390.5,171172.0,6060.0,112987.0
1032483.280411,95399.8,171166.0,6062.0,112991.0
1032483.289711,95409.1,171228.0,6072.0,113018.0
1032483.299011,95418.4,171260.0,6096.0,113028.0
1032483.308311,95427.7,171278.0,6090.0,113043.0
1032483.317611,95437.0,171295.0,6049.0,113047.0
1032483.328311,95447.7,171330.0,6076.0,113082.0
1032483.339012,95458.4,171360.0,6084.0,113103.0
1032483.349712,95469.1,171339.0,6055.0,113082.0
1032483.360412,95479.8,171382.0,6097.0,113092.0
1032483.371112,95490.5,171381.0,6079.0,113084.0
1032483.381812,95501.2,171386.0,6084.0,113071.0
1032483.392512,95511.9,171421.0,6067.0,113098.0
1032483.403213,95522.6,171414.0,6072.0,113082.0
1032483.413913,95533.3,171442.0,6073.0,113109.0
1032483.424613,95544.0,171440.0,6079.0,113092.0
1032483.434946,95554.333,171422.0,6063.0,113093.0
1032483.44528,95564.667,171453.0,6080.0,113096.0
1032483.455613,95575.0,171497.0,6093.0,113133.0
1032483.465947,95585.333,171487.0,6089.0,113130.0
1032483.47628,95595.667,171464.0,6094.0,113113.0
1032483.486614,95606.0,171449.0,6083.0,113104.0
1032483.496947,95616.333,171467.0,6043.0,113102.0
1032483.507281,95626.667,171449.0,6073.0,113106.0
1032483.517614,95637.0,171445.0,6078.0,113072.0
1032483.527342,95646.727,171396.0,6081.0,113080.0
1032483.537069,95656.455,171393.0,6086.0,113103.0
1032483.546796,95666.182,171370.0,6058.0,113070.0
1032483.556524,95675.909,171363.0,6064.0,113058.0
1032483.566251,95685.636,171294.0,6043.0,113034.0
1032483.575979,95695.364,171312.0,6030.0,113023.0
1032483.585706,95705.091,171284.0,6034.0,113044.0
1032483.595434,95714.818,171305.0,6039.0,113071.0
1032483.605161,95724.545,171278.0,6060.0,113026.0
1032483.614888,95734.273,171260.0,6037.0,113029.0
1032483.624616,95744.0,171242.0,6008.0,113029.0
1032483.634252,95753.636,171242.0,6020.0,113012.0
1032483.643889,95763.273,171281.0,6044.0,113037.0
1032483.653525,95772.909,171274.0,6006.0,113017.0
1032483.663162,95782.545,171281.0,6015.0,113028.0
1032483.672798,95792.182,171263.0,6027.0,113016.0
1032483.682435,95801.818,171302.0,6028.0,113042.0
1032483.692071,95811.455,171299.0,6053.0,113048.0
1032483.701708,95821.091,171301.0,6014.0,113023.0
1032483.711344,95830.727,171270.0,6034.0,113019.0
1032483.720981,95840.364,171274.0,6004.0,113005.0
1032483.730617,95850.0,171326.0,6042.0,113030.0
1032483.741062,95860.444,171281.0,6025.0,113025.0
1032483.751507,95870.889,171279.0,6048.0,113024.0
1032483.761951,95881.333,171284.0,6029.0,113023.0
1032483.772396,95891.778,171232.0,6004.0,112979.0
1032483.78284,95902.222,171254.0,6032.0,112992.0
1032483.793285,95912.667,171241.0,6007.0,112976.0
1032483.80373,95923.111,171268.0,6025.0,113010.0
1032483.814174,95933.556,171217.0,6017.0,112986.0
1032483.824619,95944.0,171232.0,6035.0,112963.0
1032483.835219,95954.6,171194.0,6003.0,112939.0
1032483.845819,95965.2,171187.0,6020.0,112923.0
1032483.856419,95975.8,171174.0,6031.0,112928.0
1032483.867019,95986.4,171122.0,5995.0,112889.0
1032483.87762,95997.0,171159.0,6007.0,112908.0
1032483.88822,96007.6,171110.0,6023.0,112893.0
1032483.89882,96018.2,171138.0,6003.0,112902.0
1032483.90942,96028.8,171095.0,6007.0,112906.0
1032483.92002,96039.4,171099.0,6002.0,112881.0
1032483.93062,96050.0,171099.0,6010.0,112875.0
1032483.940348,96059.727,171075.0,6006.0,112840.0
1032483.950075,96069.455,171082.0,6000.0,112835.0
1032483.959803,96079.182,171088.0,6000.0,112861.0
1032483.96953,96088.909,171068.0,5999.0,112844.0
1032483.979257,96098.636,171058.0,6004.0,112877.0
1032483.988985,96108.364,171083.0,5971.0,112853.0
1032483.998712,96118.091,171093.0,6013.0,112864.0
1032484.00844,96127.818,171113.0,6019.0,112894.0
1032484.018167,96137.545,171106.0,5971.0,112862.0
1032484.027894,96147.273,171057.0,6008.0,112851.0
1032484.037622,96157.0,171097.0,6011.0,112851.0
1032484.047955,96167.333,171075.0,6022.0,112857.0
1032484.058289,96177.667,171074.0,6034.0,112868.0
1032484.068622,96188.0,171065.0,6031.0,112843.0
1032484.078956,96198.333,171031.0,6001.0,112829.0
1032484.089289,96208.667,171040.0,6028.0,112820.0
1032484.099623,96219.0,170992.0,6005.0,112830.0
1032484.109956,96229.333,170931.0,5967.0,112786.0
1032484.12029,96239.667,170902.0,5970.0,112768.0
1032484.130623,96250.0,170881.0,5943.0,112754.0
1032484.140351,96259.727,170872.0,5965.0,112749.0
1032484.150078,96269.455,170806.0,5968.0,112717.0
1032484.159805,96279.182,170819.0,5961.0,112743.0
1032484.169533,96288.909,170811.0,5949.0,112702.0
1032484.17926,96298.636,170816.0,5970.0,112718.0
1032484.188988,96308.364,170780.0,5968.0,112673.0
1032484.198715,96318.091,170763.0,5945.0,112705.0
1032484.208443,96327.818,170754.0,5952.0,112704.0
1032484.21817,96337.545,170752.0,5928.0,112673.0
1032484.227897,96347.273,170737.0,5979.0,112691.0
1032484.237625,96357.0,170662.0,5945.0,112634.0
1032484.247958,96367.333,170654.0,5946.0,112606.0
1032484.258292,96377.667,170594.0,5947.0,112588.0
1032484.268625,96388.0,170571.0,5970.0,112587.0
1032484.278959,96398.333,170526.0,5950.0,112531.0
1032484.289292,96408.667,170504.0,5936.0,112554.0
1032484.299626,96419.0,170499.0,5951.0,112542.0
1032484.309959,96429.333,170535.0,5924.0,112586.0
1032484.320293,96439.667,170519.0,5941.0,112568.0
1032484.330626,96450.0,170491.0,5957.0,112553.0
1032484.340354,96459.727,170456.0,5941.0,112510.0
1032484.350081,96469.455,170421.0,5958.0,112562.0
1032484.359808,96479.182,170421.0,5915.0,112501.0
1032484.369536,96488.909,170433.0,5959.0,112525.0
1032484.379263,96498.636,170396.0,5944.0,112495.0
1032484.388991,96508.364,170366.0,5962.0,112429.0
1032484.398718,96518.091,170353.0,5967.0,112439.0
1032484.408445,96527.818,170326.0,5958.0,112444.0
1032484.418173,96537.545,170280.0,5941.0,112444.0
1032484.4279,96547.273,170306.0,5945.0,112440.0
1032484.437628,96557.0,170321.0,5994.0,112464.0
1032484.448328,96567.7,170323.0,5970.0,112433.0
1032484.459028,96578.4,170325.0,5945.0,112444.0
1032484.469728,96589.1,170347.0,5956.0,112495.0
1032484.480428,96599.8,170390.0,6002.0,112515.0
1032484.491129,96610.5,170367.0,5977.0,112486.0
1032484.501829,96621.2,170374.0,5989.0,112505.0
1032484.512529,96631.9,170412.0,5962.0,112494.0
1032484.523229,96642.6,170454.0,5978.0,112509.0
1032484.533929,96653.3,170457.0,5987.0,112508.0
1032484.544629,96664.0,170466.0,5989.0,112493.0
1032484.554963,96674.333,170456.0,5948.0,112508.0
1032484.565296,96684.667,170481.0,5979.0,112511.0
1032484.57563,96695.0,170501.0,6012.0,112509.0
1032484.585963,96705.333,170531.0,5989.0,112542.0
1032484.596297,96715.667,170533.0,6000.0,112507.0
1032484.60663,96726.0,170549.0,5997.0,112554.0
1032484.616964,96736.333,170579.0,6011.0,112542.0
1032484.627297,96746.667,170569.0,5978.0,112544.0
1032484.637631,96757.0,170574.0,5988.0,112507.0
1032484.647358,96766.727,170505.0,5948.0,112503.0
1032484.657086,96776.455,170565.0,5958.0,112586.0
1032484.666813,96786.182,170559.0,5963.0,112557.0
1032484.67654,96795.909,170545.0,5939.0,112540.0
1032484.686268,96805.636,170475.0,5927.0,112517.0
1032484.695995,96815.364,170443.0,5942.0,112548.0
1032484.705723,96825.091,170439.0,5938.0,112486.0
1032484.71545,96834.818,170434.0,5944.0,112470.0
1032484.725177,96844.545,170389.0,5930.0,112438.0
1032484.734905,96854.273,170400.0,5921.0,112433.0
1032484.744632,96864.0,170385.0,5933.0,112438.0
1032484.754966,96874.333,170387.0,5919.0,112453.0
1032484.765299,96884.667,170352.0,5940.0,112402.0
1032484.775633,96895.0,170366.0,5920.0,112418.0
1032484.785966,96905.333,170368.0,5926.0,112425.0
1032484.7963,96915.667,170344.0,5922.0,112435.0
1032484.806633,96926.0,170359.0,5962.0,112418.0
1032484.816967,96936.333,170360.0,5935.0,112406.0
1032484.8273,96946.667,170360.0,5924.0,112419.0
1032484.837634,96957.0,170386.0,5933.0,112452.0
1032484.847361,96966.727,170411.0,5957.0,112448.0
1032484.857088,96976.455,170365.0,5936.0,112420.0
1032484.866816,96986.182,170394.0,5948.0,112432.0
1032484.876543,96995.909,170399.0,5926.0,112428.0
1032484.886271,97005.636,170409.0,5964.0,112455.0
1032484.895998,97015.364,170384.0,5931.0,112409.0
1032484.905726,97025.091,170406.0,5942.0,112438.0
1032484.915453,97034.818,170383.0,5934.0,112413.0
1032484.92518,97044.545,170424.0,5947.0,112431.0
1032484.934908,97054.273,170381.0,5952.0,112392.0
1032484.944635,97064.0,170399.0,5934.0,112413.0
1032484.955235,97074.6,170364.0,5961.0,112389.0
1032484.965836,97085.2,170405.0,5952.0,112429.0
1032484.976436,97095.8,170405.0,5934.0,112388.0
1032484.987036,97106.4,170391.0,5945.0,112401.0
1032484.997636,97117.0,170404.0,5951.0,112346.0
1032485.008236,97127.6,170380.0,5934.0,112366.0
1032485.018836,97138.2,170383.0,5976.0,112401.0
1032485.029436,97148.8,170344.0,5957.0,112353.0
1032485.040037,97159.4,170362.0,5965.0,112384.0
1032485.050637,97170.0,170356.0,5951.0,112383.0
1032485.060037,97179.4,170405.0,5976.0,112408.0
1032485.069437,97188.8,170381.0,5978.0,112368.0
1032485.078837,97198.2,170374.0,5970.0,112378.0
1032485.088237,97207.6,170373.0,5947.0,112351.0
1032485.097637,97217.0,170410.0,5966.0,112390.0
1032485.107038,97226.4,170398.0,5993.0,112393.0
1032485.116438,97235.8,170396.0,5968.0,112392.0
1032485.125838,97245.2,170377.0,5957.0,112373.0
1032485.135238,97254.6,170388.0,5971.0,112400.0
1032485.144638,97264.0,170416.0,5993.0,112406.0
1032485.155238,97274.6,170373.0,5979.0,112362.0
1032485.165838,97285.2,170352.0,5958.0,112355.0
1032485.176439,97295.8,170372.0,5956.0,112357.0
1032485.187039,97306.4,170321.0,5942.0,112378.0
1032485.197639,97317.0,170297.0,5944.0,112348.0
1032485.208239,97327.6,170267.0,5950.0,112346.0
1032485.218839,97338.2,170276.0,5927.0,112338.0
1032485.229439,97348.8,170253.0,5937.0,112367.0
1032485.24004,97359.4,170256.0,5926.0,112329.0
1032485.25064,97370.0,170273.0,5944.0,112311.0
1032485.26004,97379.4,170221.0,5919.0,112293.0
1032485.26944,97388.8,170202.0,5923.0,112260.0
1032485.27884,97398.2,170180.0,5923.0,112256.0
1032485.28824,97407.6,170160.0,5944.0,112275.0
1032485.29764,97417.0,170153.0,5902.0,112251.0
1032485.307041,97426.4,170163.0,5920.0,112264.0
1032485.316441,97435.8,170165.0,5929.0,112260.0
1032485.325841,97445.2,170189.0,5923.0,112276.0
1032485.335241,97454.6,170173.0,5924.0,112266.0
1032485.344641,97464.0,170186.0,5917.0,112247.0
1032485.355241,97474.6,170193.0,5930.0,112247.0
1032485.365841,97485.2,170194.0,5932.0,112256.0
1032485.376442,97495.8,170177.0,5913.0,112225.0
1032485.387042,97506.4,170190.0,5933.0,112264.0
1032485.397642,97517.0,170231.0,5939.0,112276.0
1032485.408242,97527.6,170203.0,5947.0,112310.0
1032485.418842,97538.2,170195.0,5949.0,112275.0
1032485.429442,97548.8,170138.0,5918.0,112290.0
1032485.440042,97559.4,170147.0,5940.0,112317.0
1032485.450643,97570.0,170152.0,5949.0,112332.0
1032485.460643,97580.0,170166.0,5977.0,112391.0
1032485.470643,97590.0,170167.0,5967.0,112374.0
1032485.480643,97600.0,170192.0,5957.0,112401.0
1032485.490643,97610.0,170256.0,5960.0,112394.0
1032485.500643,97620.0,170277.0,5971.0,112406.0
1032485.510644,97630.0,170249.0,5966.0,112409.0
1032485.520644,97640.0,170252.0,5942.0,112404.0
1032485.530644,97650.0,170271.0,5967.0,112441.0
1032485.540644,97660.0,170288.0,5971.0,112452.0
1032485.550644,97670.0,170259.0,5960.0,112421.0
1032485.560644,97680.0,170271.0,5950.0,112393.0
1032485.570644,97690.0,170294.0,5973.0,112415.0
1032485.580645,97700.0,170286.0,5980.0,112413.0
1032485.590645,97710.0,170321.0,5972.0,112451.0
1032485.600645,97720.0,170337.0,6010.0,112432.0
1032485.610645,97730.0,170335.0,5977.0,112428.0
1032485.620645,97740.0,170330.0,5950.0,112418.0
1032485.630645,97750.0,170331.0,5962.0,112429.0
1032485.640645,97760.0,170355.0,5996.0,112437.0
1032485.650646,97770.0,170345.0,5999.0,112436.0
1032485.661346,97780.7,170307.0,5985.0,112425.0
1032485.672046,97791.4,170316.0,5979.0,112427.0
1032485.682746,97802.1,170320.0,5982.0,112412.0
1032485.693446,97812.8,170347.0,5987.0,112423.0
1032485.704146,97823.5,170318.0,5985.0,112414.0
1032485.714847,97834.2,170348.0,5986.0,112426.0
1032485.725547,97844.9,170323.0,6003.0,112426.0
1032485.736247,97855.6,170287.0,5952.0,112403.0
1032485.746947,97866.3,170248.0,5974.0,112392.0
1032485.757647,97877.0,170272.0,6003.0,112409.0
1032485.767047,97886.4,170268.0,5992.0,112401.0
1032485.776447,97895.8,170208.0,5929.0,112365.0
1032485.785848,97905.2,170237.0,5954.0,112364.0
1032485.795248,97914.6,170248.0,5935.0,112388.0
1032485.804648,97924.0,170254.0,5967.0,112395.0
1032485.814048,97933.4,170212.0,5937.0,112341.0
1032485.823448,97942.8,170248.0,5950.0,112372.0
1032485.832848,97952.2,170240.0,5970.0,112380.0
1032485.842248,97961.6,170266.0,5972.0,112407.0
1032485.851649,97971.0,170286.0,5989.0,112388.0
1032485.862249,97981.6,170269.0,5965.0,112382.0
1032485.872849,97992.2,170258.0,5947.0,112352.0
1032485.883449,98002.8,170301.0,5947.0,112419.0
1032485.894049,98013.4,170321.0,6011.0,112390.0
1032485.904649,98024.0,170299.0,5960.0,112386.0
1032485.915249,98034.6,170286.0,5949.0,112383.0
1032485.92585,98045.2,170282.0,5959.0,112411.0
1032485.93645,98055.8,170311.0,5991.0,112412.0
1032485.94705,98066.4,170322.0,5970.0,112395.0
1032485.95765,98077.0,170315.0,5995.0,112382.0
1032485.967377,98086.727,170291.0,5953.0,112394.0
1032485.977105,98096.455,170326.0,5958.0,112392.0
1032485.986832,98106.182,170316.0,5972.0,112401.0
1032485.99656,98115.909,170310.0,5983.0,112377.0
1032486.006287,98125.636,170337.0,6003.0,112441.0
1032486.016015,98135.364,170305.0,5977.0,112427.0
1032486.025742,98145.091,170348.0,5993.0,112424.0
1032486.035469,98154.818,170306.0,5962.0,112396.0
1032486.045197,98164.545,170299.0,5976.0,112380.0
1032486.054924,98174.273,170367.0,5992.0,112398.0
1032486.064652,98184.0,170356.0,5990.0,112416.0
1032486.074985,98194.333,170354.0,5989.0,112430.0
1032486.085319,98204.667,170353.0,6013.0,112416.0
1032486.095652,98215.0,170359.0,6001.0,112440.0
1032486.105986,98225.333,170355.0,5992.0,112423.0
1032486.116319,98235.667,170381.0,5984.0,112409.0
1032486.126653,98246.0,170370.0,6012.0,112420.0
1032486.136986,98256.333,170364.0,5998.0,112403.0
1032486.14732,98266.667,170385.0,5989.0,112423.0
1032486.157653,98277.0,170398.0,6003.0,112437.0
1032486.16738,98286.727,170384.0,6019.0,112462.0
1032486.177108,98296.455,170390.0,6022.0,112429.0
1032486.186835,98306.182,170441.0,6027.0,112456.0
1032486.196563,98315.909,170436.0,6018.0,112477.0
1032486.20629,98325.636,170449.0,6023.0,112436.0
1032486.216018,98335.364,170443.0,6002.0,112430.0
1032486.225745,98345.091,170450.0,5994.0,112464.0
1032486.235472,98354.818,170456.0,6032.0,112467.0
1032486.2452,98364.545,170429.0,6023.0,112460.0
1032486.254927,98374.273,170398.0,6027.0,112485.0
1032486.264655,98384.0,170391.0,6011.0,112488.0
1032486.275255,98394.6,170420.0,6005.0,112464.0
1032486.285855,98405.2,170378.0,6032.0,112414.0
1032486.296455,98415.8,170391.0,6016.0,112432.0
1032486.307055,98426.4,170341.0,5971.0,112419.0
1032486.317655,98437.0,170365.0,5985.0,112453.0
1032486.328256,98447.6,170357.0,5957.0,112435.0
1032486.338856,98458.2,170412.0,6012.0,112465.0
1032486.349456,98468.8,170364.0,5995.0,112443.0
1032486.360056,98479.4,170375.0,5984.0,112456.0
1032486.370656,98490.0,170354.0,5974.0,112463.0
1032486.380056,98499.4,170433.0,5994.0,112489.0
1032486.389456,98508.8,170402.0,6002.0,112445.0
1032486.398857,98518.2,170412.0,5980.0,112461.0
1032486.408257,98527.6,170388.0,5980.0,112452.0
1032486.417657,98537.0,170463.0,6016.0,112487.0
1032486.427057,98546.4,170427.0,5967.0,112428.0
1032486.436457,98555.8,170449.0,5996.0,112482.0
1032486.445857,98565.2,170428.0,5982.0,112490.0
1032486.455257,98574.6,170468.0,5985.0,112507.0
1032486.464658,98584.0,170503.0,6040.0,112525.0
1032486.475258,98594.6,170500.0,6002.0,112514.0
1032486.485858,98605.2,170493.0,6005.0,112501.0
1032486.496458,98615.8,170535.0,6022.0,112543.0
1032486.507058,98626.4,170553.0,6023.0,112575.0
1032486.517658,98637.0,170539.0,6028.0,112544.0
1032486.528258,98647.6,170508.0,6011.0,112554.0
1032486.538859,98658.2,170542.0,6021.0,112574.0
1032486.549459,98668.8,170535.0,6012.0,112557.0
1032486.560059,98679.4,170577.0,6040.0,112572.0
1032486.570659,98690.0,170552.0,6017.0,112563.0
1032486.581104,98700.444,170540.0,6000.0,112529.0
1032486.591548,98710.889,170562.0,6010.0,112530.0
1032486.601993,98721.333,170550.0,6029.0,112577.0
1032486.612437,98731.778,170570.0,6022.0,112557.0
1032486.622882,98742.222,170594.0,6027.0,112561.0
1032486.633327,98752.667,170573.0,6018.0,112569.0
1032486.643771,98763.111,170612.0,6051.0,112593.0
1032486.654216,98773.556,170581.0,6016.0,112562.0
1032486.66466,98784.0,170628.0,6064.0,112556.0
1032486.674297,98793.636,170587.0,6014.0,112546.0
1032486.683933,98803.273,170610.0,6055.0,112577.0
1032486.69357,98812.909,170636.0,6012.0,112586.0
1032486.703206,98822.545,170582.0,6020.0,112551.0
1032486.712843,98832.182,170598.0,6012.0,112536.0
1032486.722479,98841.818,170650.0,6047.0,112583.0
1032486.732116,98851.455,170625.0,6038.0,112557.0
1032486.741753,98861.091,170648.0,6045.0,112547.0
1032486.751389,98870.727,170630.0,6038.0,112569.0
1032486.761026,98880.364,170664.0,6055.0,112547.0
1032486.770662,98890.0,170646.0,6043.0,112562.0
1032486.780389,98899.727,170640.0,6070.0,112570.0
1032486.790117,98909.455,170602.0,6033.0,112548.0
1032486.799844,98919.182,170586.0,6028.0,112574.0
1032486.809572,98928.909,170593.0,6033.0,112546.0
1032486.819299,98938.636,170590.0,6062.0,112554.0
1032486.829027,98948.364,170529.0,6028.0,112507.0
1032486.838754,98958.091,170527.0,6011.0,112487.0
1032486.848481,98967.818,170540.0,6021.0,112523.0
1032486.858209,98977.545,170522.0,6013.0,112514.0
1032486.867936,98987.273,170514.0,6011.0,112491.0
1032486.877664,98997.0,170514.0,6002.0,112505.0
1032486.887997,99007.333,170512.0,5995.0,112513.0
1032486.898331,99017.667,170490.0,6015.0,112491.0
1032486.908664,99028.0,170524.0,6023.0,112508.0
1032486.918998,99038.333,170523.0,5976.0,112498.0
1032486.929331,99048.667,170505.0,6009.0,112501.0
1032486.939665,99059.0,170527.0,6014.0,112472.0
1032486.949998,99069.333,170549.0,6019.0,112482.0
1032486.960331,99079.667,170519.0,6031.0,112487.0
1032486.970665,99090.0,170507.0,6032.0,112489.0
1032486.981365,99100.7,170535.0,6015.0,112505.0
1032486.992065,99111.4,170552.0,6029.0,112531.0
1032487.002765,99122.1,170544.0,5996.0,112493.0
1032487.013466,99132.8,170562.0,6034.0,112497.0
1032487.024166,99143.5,170572.0,6019.0,112514.0
1032487.034866,99154.2,170558.0,6056.0,112532.0
1032487.045566,99164.9,170580.0,6043.0,112520.0
1032487.056266,99175.6,170582.0,6058.0,112520.0
1032487.066966,99186.3,170549.0,6031.0,112504.0
1032487.077667,99197.0,170540.0,6046.0,112509.0
1032487.086967,99206.3,170564.0,6038.0,112509.0
1032487.096267,99215.6,170575.0,6064.0,112508.0
1032487.105567,99224.9,170546.0,6036.0,112505.0
1032487.114867,99234.2,170538.0,6011.0,112498.0
1032487.124167,99243.5,170580.0,6027.0,112518.0
1032487.133467,99252.8,170550.0,6048.0,112502.0
1032487.142767,99262.1,170570.0,6037.0,112509.0
1032487.152068,99271.4,170553.0,6045.0,112504.0
1032487.161368,99280.7,170544.0,6059.0,112494.0
1032487.170668,99290.0,170562.0,6041.0,112542.0
1032487.181368,99300.7,170599.0,6042.0,112521.0
1032487.192068,99311.4,170605.0,6060.0,112516.0
1032487.202768,99322.1,170608.0,6024.0,112524.0
1032487.213469,99332.8,170635.0,6064.0,112530.0
1032487.224169,99343.5,170573.0,6035.0,112516.0
1032487.234869,99354.2,170630.0,6066.0,112529.0
1032487.245569,99364.9,170589.0,6027.0,112530.0
1032487.256269,99375.6,170593.0,6039.0,112519.0
1032487.266969,99386.3,170648.0,6063.0,112554.0
1032487.277669,99397.0,170647.0,6061.0,112519.0
1032487.287306,99406.636,170683.0,,112571.0
1032487.287397,99406.727,,6092.0,
1032487.296942,99416.273,170678.0,,112550.0
1032487.297124,99416.455,,6051.0,
1032487.306579,99425.909,170657.0,,112553.0
1032487.306852,99426.182,,6048.0,
1032487.316215,99435.545,170656.0,,112536.0
1032487.316579,99435.909,,6082.0,
1032487.325852,99445.182,170622.0,,112519.0
1032487.326307,99445.636,,6060.0,
1032487.335489,99454.818,170625.0,,112539.0
1032487.336034,99455.364,,6058.0,
1032487.345125,99464.455,170613.0,,112532.0
1032487.345761,99465.091,,6042.0,
1032487.354762,99474.091,170590.0,,112546.0
1032487.355489,99474.818,,6070.0,
1032487.364398,99483.727,170568.0,,112557.0
1032487.365216,99484.545,,6051.0,
1032487.374035,99493.364,170564.0,,112543.0
1032487.374944,99494.273,,6060.0,
1032487.383671,99503.0,170551.0,,112505.0
1032487.384671,99504.0,,6035.0,
1032487.394116,99513.444,170575.0,,112522.0
1032487.395005,99514.333,,6029.0,
1032487.40456,99523.889,170570.0,,112511.0
1032487.405338,99524.667,,6042.0,
1032487.415005,99534.333,170514.0,,112499.0
1032487.415672,99535.0,,6038.0,
1032487.425449,99544.778,170578.0,,112537.0
1032487.426005,99545.333,,6053.0,
1032487.435894,99555.222,170573.0,,112523.0
1032487.436338,99555.667,,6040.0,
1032487.446339,99565.667,170594.0,,112497.0
1032487.446672,99566.0,,6037.0,
1032487.456783,99576.111,170579.0,,112494.0
1032487.457005,99576.333,,6049.0,
1032487.467228,99586.556,170575.0,,112517.0
1032487.467339,99586.667,,6014.0,
1032487.477672,99597.0,170587.0,6045.0,112527.0
1032487.4874,99606.727,170580.0,6067.0,112494.0
1032487.497127,99616.455,170609.0,6063.0,112518.0
1032487.506855,99626.182,170610.0,6046.0,112543.0
1032487.516582,99635.909,170595.0,6048.0,112528.0
1032487.526309,99645.636,170599.0,6051.0,112522.0
1032487.536037,99655.364,170590.0,6044.0,112534.0
1032487.545764,99665.091,170615.0,6037.0,112516.0
1032487.555492,99674.818,170624.0,6055.0,112529.0
1032487.565219,99684.545,170597.0,6019.0,112522.0
1032487.574947,99694.273,170609.0,6034.0,112538.0
1032487.584674,99704.0,170608.0,6037.0,112495.0
1032487.595007,99714.333,170627.0,6052.0,112532.0
1032487.605341,99724.667,170586.0,6068.0,112530.0
1032487.615674,99735.0,170604.0,6045.0,112539.0
1032487.626008,99745.333,170577.0,6050.0,112505.0
1032487.636341,99755.667,170616.0,6055.0,112512.0
1032487.646675,99766.0,170635.0,6074.0,112490.0
1032487.657008,99776.333,170622.0,6042.0,112498.0
1032487.667342,99786.667,170635.0,6048.0,112518.0
1032487.677675,99797.0,170622.0,6072.0,112520.0
1032487.688276,99807.6,170617.0,6074.0,112539.0
1032487.698876,99818.2,170604.0,6045.0,112525.0
1032487.709476,99828.8,170615.0,6060.0,112506.0
1032487.720076,99839.4,170660.0,6086.0,112530.0
1032487.730676,99850.0,170658.0,6066.0,112548.0
1032487.741276,99860.6,170668.0,6059.0,112544.0
1032487.751876,99871.2,170656.0,6069.0,112503.0
1032487.762477,99881.8,170668.0,6032.0,112545.0
1032487.773077,99892.4,170649.0,6068.0,112523.0
1032487.783677,99903.0,170636.0,6087.0,112521.0
1032487.793404,99912.727,170669.0,6065.0,112505.0
1032487.803132,99922.455,170653.0,6082.0,112558.0
1032487.812859,99932.182,170679.0,6075.0,112533.0
1032487.822587,99941.909,170682.0,6083.0,112511.0
1032487.832314,99951.636,170686.0,6085.0,112521.0
1032487.842041,99961.364,170701.0,6090.0,112528.0
1032487.851769,99971.091,170697.0,6094.0,112538.0
1032487.861496,99980.818,170658.0,6084.0,112544.0
1032487.871224,99990.545,170668.0,6076.0,112520.0
1032487.880951,100000.273,170657.0,6078.0,112532.0
1032487.890678,100010.0,170640.0,6118.0,112505.0
1032487.901012,100020.333,170651.0,6095.0,112540.0
1032487.911345,100030.667,170602.0,6047.0,112501.0
1032487.921679,100041.0,170611.0,6072.0,112526.0
1032487.932012,100051.333,170603.0,6078.0,112516.0
1032487.942346,100061.667,170578.0,6068.0,112488.0
1032487.952679,100072.0,170563.0,6083.0,112496.0
1032487.963013,100082.333,170564.0,6069.0,112494.0
1032487.973346,100092.667,170581.0,6059.0,112501.0
1032487.98368,100103.0,170612.0,6075.0,112480.0
1032487.993407,100112.727,170592.0,6065.0,112503.0
1032488.003135,100122.455,170559.0,6044.0,112524.0
1032488.012862,100132.182,170604.0,6057.0,112523.0
1032488.02259,100141.909,170640.0,6064.0,112533.0
1032488.032317,100151.636,170636.0,6084.0,112549.0
1032488.042044,100161.364,170612.0,6068.0,112509.0
1032488.051772,100171.091,170669.0,6082.0,112569.0
1032488.061499,100180.818,170702.0,6085.0,112610.0
1032488.071227,100190.545,170739.0,6094.0,112597.0
1032488.080954,100200.273,170747.0,6096.0,112568.0
1032488.090681,100210.0,170747.0,6108.0,112598.0
1032488.101382,100220.7,170755.0,6090.0,112613.0
1032488.112082,100231.4,170770.0,6086.0,112616.0
1032488.122782,100242.1,170774.0,6083.0,112621.0
1032488.133482,100252.8,170791.0,6093.0,112631.0
1032488.144182,100263.5,170798.0,6078.0,112660.0
1032488.154882,100274.2,170835.0,6121.0,112678.0
1032488.165583,100284.9,170809.0,6095.0,112676.0
1032488.176283,100295.6,170834.0,6103.0,112644.0
1032488.186983,100306.3,170863.0,6092.0,112684.0
1032488.197683,100317.0,170864.0,6101.0,112691.0
1032488.206983,100326.3,170911.0,6068.0,112732.0
1032488.216283,100335.6,170880.0,6105.0,112704.0
1032488.225583,100344.9,170921.0,6101.0,112721.0
1032488.234884,100354.2,170937.0,6114.0,112720.0
1032488.244184,100363.5,170925.0,6104.0,112759.0
1032488.253484,100372.8,170931.0,6091.0,112723.0
1032488.262784,100382.1,170988.0,6107.0,112758.0
1032488.272084,100391.4,170978.0,6085.0,112743.0
1032488.281384,100400.7,171012.0,6111.0,112743.0
1032488.290684,100410.0,171038.0,6143.0,112765.0
1032488.301385,100420.7,171014.0,6126.0,112759.0
1032488.312085,100431.4,171005.0,6121.0,112748.0
1032488.322785,100442.1,171062.0,6136.0,112792.0
1032488.333485,100452.8,171072.0,6145.0,112813.0
1032488.344185,100463.5,171055.0,6121.0,112782.0
1032488.354885,100474.2,171065.0,6111.0,112762.0
1032488.365585,100484.9,171131.0,6119.0,112814.0
1032488.376286,100495.6,171104.0,6153.0,112806.0
1032488.386986,100506.3,171103.0,6135.0,112809.0
1032488.397686,100517.0,171093.0,6146.0,112793.0
1032488.407322,100526.636,171118.0,6127.0,112769.0
1032488.416959,100536.273,171146.0,6125.0,112801.0
1032488.426595,100545.909,171128.0,6143.0,112780.0
1032488.436232,100555.545,171130.0,6147.0,112771.0
1032488.445868,100565.182,171090.0,6131.0,112757.0
1032488.455505,100574.818,171121.0,6111.0,112806.0
1032488.465141,100584.455,171099.0,6149.0,112791.0
1032488.474778,100594.091,171084.0,6144.0,112797.0
1032488.484414,100603.727,171058.0,6118.0,112769.0
1032488.494051,100613.364,171052.0,6117.0,112791.0
1032488.503687,100623.0,171089.0,6132.0,112777.0
1032488.514132,100633.444,171061.0,6096.0,112796.0
1032488.524577,100643.889,171060.0,6117.0,112750.0
1032488.535021,100654.333,171056.0,6108.0,112755.0
1032488.545466,100664.778,171032.0,6117.0,112751.0
1032488.55591,100675.222,171063.0,6139.0,112759.0
1032488.566355,100685.667,171061.0,6112.0,112777.0
1032488.5768,100696.111,171041.0,6098.0,112743.0
1032488.587244,100706.556,171055.0,6103.0,112783.0
1032488.597689,100717.0,171083.0,6121.0,112777.0
1032488.607325,100726.636,171093.0,6122.0,112763.0
1032488.616962,100736.273,171079.0,6109.0,112771.0
1032488.626598,100745.909,171125.0,6105.0,112782.0
1032488.636235,100755.545,171114.0,6119.0,112784.0
1032488.645871,100765.182,171126.0,6106.0,112798.0
1032488.655508,100774.818,171095.0,6114.0,112775.0
1032488.665144,100784.455,171122.0,6107.0,112802.0
1032488.674781,100794.091,171131.0,6126.0,112786.0
1032488.684417,100803.727,171134.0,6123.0,112819.0
1032488.694054,100813.364,171109.0,6140.0,112783.0
1032488.70369,100823.0,171092.0,6107.0,112756.0
1032488.714391,100833.7,171131.0,6116.0,112785.0
1032488.725091,100844.4,171109.0,6118.0,112760.0
1032488.735791,100855.1,171098.0,6130.0,112757.0
1032488.746491,100865.8,171114.0,6120.0,112806.0
1032488.757191,100876.5,171128.0,6128.0,112777.0
1032488.767891,100887.2,171152.0,6141.0,112773.0
1032488.778592,100897.9,171149.0,6156.0,112790.0
1032488.789292,100908.6,171110.0,6101.0,112774.0
1032488.799992,100919.3,171139.0,6128.0,112785.0
1032488.810692,100930.0,171139.0,6111.0,112776.0
1032488.821025,100940.333,171202.0,6161.0,112821.0
1032488.831359,100950.667,171107.0,6138.0,112764.0
1032488.841692,100961.0,171139.0,6126.0,112775.0
1032488.852026,100971.333,171110.0,6141.0,112779.0
1032488.862359,100981.667,171166.0,6145.0,112772.0
1032488.872693,100992.0,171124.0,6131.0,112773.0
1032488.883026,101002.333,171134.0,6130.0,112779.0
1032488.89336,101012.667,171159.0,6138.0,112779.0
1032488.903693,101023.0,171177.0,6131.0,112804.0
1032488.913421,101032.727,171174.0,6160.0,112802.0
1032488.923148,101042.455,171125.0,6142.0,112758.0
1032488.932876,101052.182,171168.0,6142.0,112787.0
1032488.942603,101061.909,171140.0,6138.0,112796.0
1032488.95233,101071.636,171196.0,6167.0,112807.0
1032488.962058,101081.364,171160.0,6143.0,112762.0
1032488.971785,101091.091,171158.0,6147.0,112785.0
1032488.981513,101100.818,171129.0,6146.0,112756.0
1032488.99124,101110.545,171181.0,6163.0,112813.0
1032489.000968,101120.273,171155.0,6134.0,112775.0
1032489.010695,101130.0,171117.0,6140.0,112770.0
1032489.021028,101140.333,171084.0,6128.0,112752.0
1032489.031362,101150.667,171081.0,6140.0,112777.0
1032489.041695,101161.0,171063.0,6128.0,112752.0
1032489.052029,101171.333,171053.0,6128.0,112739.0
1032489.062362,101181.667,171015.0,6135.0,112708.0
1032489.072696,101192.0,171030.0,6120.0,112713.0
1032489.083029,101202.333,171031.0,6117.0,112735.0
1032489.093363,101212.667,171035.0,6128.0,112703.0
1032489.103696,101223.0,171004.0,6137.0,112708.0
1032489.113424,101232.727,170986.0,6103.0,112701.0
1032489.123151,101242.455,170986.0,6112.0,112741.0
1032489.132879,101252.182,171020.0,6119.0,112714.0
1032489.142606,101261.909,171021.0,6139.0,112717.0
1032489.152333,101271.636,171001.0,6105.0,112720.0
1032489.162061,101281.364,171011.0,6146.0,112718.0
1032489.171788,101291.091,171010.0,6119.0,112727.0
1032489.181516,101300.818,171020.0,6141.0,112727.0
1032489.191243,101310.545,171010.0,6129.0,112715.0
1032489.20097,101320.273,171061.0,6150.0,112748.0
1032489.210698,101330.0,171026.0,6130.0,112713.0
1032489.221398,101340.7,171035.0,6124.0,112758.0
1032489.232098,101351.4,170998.0,6114.0,112698.0
1032489.242798,101362.1,171026.0,6117.0,112725.0
1032489.253499,101372.8,171016.0,6142.0,112713.0
1032489.264199,101383.5,171005.0,6137.0,112727.0
1032489.274899,101394.2,170997.0,6137.0,112689.0
1032489.285599,101404.9,171009.0,6145.0,112701.0
1032489.296299,101415.6,171024.0,6132.0,112713.0
1032489.306999,101426.3,171011.0,6119.0,112738.0
1032489.317699,101437.0,171034.0,6132.0,112729.0
1032489.327,101446.3,171005.0,6121.0,112709.0
1032489.3363,101455.6,171018.0,6110.0,112709.0
1032489.3456,101464.9,171032.0,6135.0,112708.0
1032489.3549,101474.2,170991.0,6138.0,112722.0
1032489.3642,101483.5,171019.0,6107.0,112698.0
1032489.3735,101492.8,170996.0,6113.0,112719.0
1032489.3828,101502.1,171037.0,6124.0,112712.0
1032489.392101,101511.4,171056.0,6174.0,112731.0
1032489.401401,101520.7,171048.0,6127.0,112675.0
1032489.410701,101530.0,171035.0,6115.0,112691.0
1032489.421401,101540.7,171050.0,6130.0,112715.0
1032489.432101,101551.4,171061.0,6118.0,112722.0
1032489.442801,101562.1,171056.0,6130.0,112708.0
1032489.453501,101572.8,171032.0,6127.0,112709.0
1032489.464202,101583.5,171070.0,6135.0,112726.0
1032489.474902,101594.2,171052.0,6134.0,112735.0
1032489.485602,101604.9,171102.0,6180.0,112737.0
1032489.496302,101615.6,171062.0,6126.0,112714.0
1032489.507002,101626.3,171087.0,6146.0,112726.0
1032489.517702,101637.0,171078.0,6119.0,112717.0
1032489.527339,101646.636,171092.0,6116.0,112731.0
1032489.536975,101656.273,171066.0,6141.0,112696.0
1032489.546612,101665.909,171081.0,6137.0,112725.0
1032489.556248,101675.545,171062.0,6134.0,112693.0
1032489.565885,101685.182,171051.0,6157.0,112709.0
1032489.575521,101694.818,171029.0,6153.0,112716.0
1032489.585158,101704.455,171006.0,6121.0,112697.0
1032489.594794,101714.091,170976.0,6117.0,112675.0
1032489.604431,101723.727,170967.0,6109.0,112667.0
1032489.614067,101733.364,170990.0,6102.0,112706.0
1032489.623704,101743.0,170977.0,6111.0,112665.0
1032489.634037,101753.333,170941.0,6117.0,112670.0
1032489.644371,101763.667,170931.0,6097.0,112659.0
1032489.654704,101774.0,170975.0,6120.0,112694.0
1032489.665038,101784.333,170946.0,6095.0,112672.0
1032489.675371,101794.667,170959.0,6103.0,112643.0
1032489.685705,101805.0,170955.0,6087.0,112673.0
1032489.696038,101815.333,170953.0,6100.0,112648.0
1032489.706372,101825.667,170938.0,6104.0,112661.0
1032489.716705,101836.0,170990.0,6102.0,112666.0
1032489.726433,101845.727,170954.0,6127.0,112671.0
1032489.73616,101855.455,170971.0,6077.0,112665.0
1032489.745888,101865.182,170973.0,6112.0,112668.0
1032489.755615,101874.909,170989.0,6139.0,112707.0
1032489.765342,101884.636,170965.0,6087.0,112669.0
1032489.77507,101894.364,170993.0,6088.0,112669.0
1032489.784797,101904.091,170987.0,6110.0,112669.0
1032489.794525,101913.818,170969.0,6104.0,112667.0
1032489.804252,101923.545,170957.0,6112.0,112686.0
1032489.813979,101933.273,170962.0,6089.0,112679.0
1032489.823707,101943.0,170990.0,6104.0,112680.0
1032489.834407,101953.7,170984.0,6113.0,112665.0
1032489.845107,101964.4,170967.0,6105.0,112661.0
1032489.855807,101975.1,170952.0,6077.0,112636.0
1032489.866508,101985.8,170969.0,6127.0,112690.0
1032489.877208,101996.5,170978.0,6103.0,112649.0
1032489.887908,102007.2,170979.0,6097.0,112690.0
1032489.898608,102017.9,170966.0,6088.0,112621.0
1032489.909308,102028.6,170970.0,6093.0,112656.0
1032489.920008,102039.3,170999.0,6109.0,112664.0
1032489.930708,102050.0,170991.0,6101.0,112668.0
1032489.940009,102059.3,171011.0,6116.0,112668.0
1032489.949309,102068.6,170984.0,6131.0,112663.0
1032489.958609,102077.9,170997.0,6115.0,112668.0
1032489.967909,102087.2,171018.0,6129.0,112683.0
1032489.977209,102096.5,171000.0,6103.0,112639.0
1032489.986509,102105.8,171012.0,6101.0,112675.0
1032489.995809,102115.1,171018.0,6110.0,112671.0
1032490.00511,102124.4,171024.0,6104.0,112693.0
1032490.01441,102133.7,171020.0,6157.0,112673.0
1032490.02371,102143.0,171011.0,6140.0,112650.0
1032490.03441,102153.7,171002.0,6096.0,112677.0
1032490.04511,102164.4,171046.0,6108.0,112652.0
1032490.05581,102175.1,171041.0,6133.0,112695.0
1032490.06651,102185.8,171042.0,6138.0,112681.0
1032490.077211,102196.5,171020.0,6098.0,112658.0
1032490.087911,102207.2,171011.0,6101.0,112667.0
1032490.098611,102217.9,171027.0,6118.0,112681.0
1032490.109311,102228.6,170984.0,6133.0,112660.0
1032490.120011,102239.3,170943.0,6097.0,112626.0
1032490.130711,102250.0,170945.0,6092.0,112622.0
1032490.141045,102260.333,170891.0,6068.0,112594.0
1032490.151378,102270.667,170915.0,6102.0,112645.0
1032490.161712,102281.0,170833.0,6042.0,112580.0
1032490.172045,102291.333,170852.0,6070.0,112604.0
1032490.182379,102301.667,170872.0,6080.0,112601.0
1032490.192712,102312.0,170835.0,6073.0,112615.0
1032490.203046,102322.333,170820.0,6049.0,112578.0
1032490.213379,102332.667,170831.0,6060.0,112592.0
1032490.223713,102343.0,170840.0,6074.0,112595.0
1032490.23344,102352.727,170863.0,6077.0,112601.0
1032490.243168,102362.455,170870.0,6044.0,112608.0
1032490.252895,102372.182,170848.0,6060.0,112595.0
1032490.262622,102381.909,170844.0,6073.0,112566.0
1032490.27235,102391.636,170858.0,6053.0,112591.0
1032490.282077,102401.364,170829.0,6051.0,112571.0
1032490.291805,102411.091,170851.0,6040.0,112603.0
1032490.301532,102420.818,170843.0,6056.0,112568.0
1032490.31126,102430.545,170845.0,6049.0,112593.0
1032490.320987,102440.273,170835.0,6047.0,112563.0
1032490.330714,102450.0,170865.0,6060.0,112599.0
1032490.341314,102460.6,170870.0,6045.0,112599.0
1032490.351915,102471.2,170837.0,6035.0,112590.0
1032490.362515,102481.8,170836.0,6036.0,112596.0
1032490.373115,102492.4,170838.0,6047.0,112590.0
1032490.383715,102503.0,170837.0,6040.0,112561.0
1032490.394315,102513.6,170835.0,6041.0,112562.0
1032490.404915,102524.2,170873.0,6047.0,112614.0
1032490.415516,102534.8,170852.0,6046.0,112595.0
1032490.426116,102545.4,170803.0,6040.0,112531.0
1032490.436716,102556.0,170795.0,6031.0,112566.0
1032490.446116,102565.4,170825.0,6027.0,112548.0
1032490.455516,102574.8,170857.0,6044.0,112573.0
1032490.464916,102584.2,170852.0,6056.0,112581.0
1032490.474316,102593.6,170853.0,6033.0,112580.0
1032490.483717,102603.0,170885.0,6044.0,112593.0
1032490.493117,102612.4,170863.0,6065.0,112606.0
1032490.502517,102621.8,170858.0,6049.0,112599.0
1032490.511917,102631.2,170839.0,6067.0,112581.0
1032490.521317,102640.6,170889.0,6054.0,112615.0
1032490.530717,102650.0,170872.0,6071.0,112598.0
1032490.541317,102660.6,170863.0,6051.0,112598.0
1032490.551918,102671.2,170881.0,6091.0,112557.0
1032490.562518,102681.8,170886.0,6023.0,112621.0
1032490.573118,102692.4,170841.0,6030.0,112574.0
1032490.583718,102703.0,170882.0,6051.0,112598.0
1032490.594318,102713.6,170862.0,6036.0,112603.0
1032490.604918,102724.2,170853.0,6037.0,112589.0
1032490.615519,102734.8,170891.0,6077.0,112599.0
1032490.626119,102745.4,170904.0,6055.0,112610.0
1032490.636719,102756.0,170873.0,6066.0,112585.0
1032490.646119,102765.4,170837.0,6042.0,112582.0
1032490.655519,102774.8,170875.0,6073.0,112561.0
1032490.664919,102784.2,170836.0,6053.0,112591.0
1032490.674319,102793.6,170841.0,6055.0,112585.0
1032490.68372,102803.0,170769.0,5995.0,112546.0
1032490.69312,102812.4,170727.0,6028.0,112567.0
1032490.70252,102821.8,170759.0,6016.0,112547.0
1032490.71192,102831.2,170774.0,5996.0,112546.0
1032490.72132,102840.6,170707.0,6008.0,112522.0
1032490.73072,102850.0,170734.0,6031.0,112544.0
1032490.74132,102860.6,170708.0,5995.0,112533.0
1032490.751921,102871.2,170687.0,5987.0,112503.0
1032490.762521,102881.8,170693.0,5993.0,112503.0
1032490.773121,102892.4,170737.0,5954.0,112550.0
1032490.783721,102903.0,170694.0,5985.0,112525.0
1032490.794321,102913.6,170707.0,5999.0,112540.0
1032490.804921,102924.2,170675.0,5973.0,112499.0
1032490.815521,102934.8,170691.0,6001.0,112550.0
1032490.826122,102945.4,170679.0,5972.0,112507.0
1032490.836722,102956.0,170721.0,5981.0,112497.0
1032490.846449,102965.727,170703.0,5974.0,112502.0
1032490.856177,102975.455,170732.0,5986.0,112490.0
1032490.865904,102985.182,170724.0,5994.0,112519.0
1032490.875631,102994.909,170749.0,5983.0,112550.0
1032490.885359,103004.636,170718.0,5985.0,112511.0
1032490.895086,103014.364,170758.0,5990.0,112531.0
1032490.904814,103024.091,170718.0,5985.0,112513.0
1032490.914541,103033.818,170720.0,5975.0,112537.0
1032490.924269,103043.545,170734.0,5988.0,112518.0
1032490.933996,103053.273,170720.0,5969.0,112518.0
1032490.943723,103063.0,170752.0,6008.0,112541.0
1032490.954057,103073.333,170762.0,5990.0,112560.0
1032490.96439,103083.667,170693.0,5994.0,112547.0
1032490.974724,103094.0,170704.0,5963.0,112506.0
1032490.985057,103104.333,170711.0,5980.0,112505.0
1032490.995391,103114.667,170735.0,5983.0,112532.0
1032491.005724,103125.0,170745.0,5980.0,112509.0
1032491.016058,103135.333,170723.0,5963.0,112540.0
1032491.026391,103145.667,170764.0,5987.0,112549.0
1032491.036725,103156.0,170762.0,5978.0,112539.0
1032491.046452,103165.727,170758.0,6016.0,112541.0
1032491.05618,103175.455,170742.0,5996.0,112523.0
1032491.065907,103185.182,170752.0,5991.0,112525.0
1032491.075634,103194.909,170760.0,5977.0,112538.0
1032491.085362,103204.636,170783.0,5989.0,112548.0
1032491.095089,103214.364,170765.0,5994.0,112503.0
1032491.104817,103224.091,170779.0,6013.0,112535.0
1032491.114544,103233.818,170778.0,5989.0,112538.0
1032491.124271,103243.545,170793.0,5979.0,112572.0
1032491.133999,103253.273,170808.0,6002.0,112567.0
1032491.143726,103263.0,170766.0,5974.0,112533.0
1032491.15406,103273.333,170794.0,6001.0,112545.0
1032491.164393,103283.667,170780.0,5991.0,112551.0
1032491.174727,103294.0,170814.0,5999.0,112559.0
1032491.18506,103304.333,170820.0,5976.0,112574.0
1032491.195394,103314.667,170807.0,6033.0,112569.0
1032491.205727,103325.0,170802.0,5997.0,112576.0
1032491.216061,103335.333,170815.0,5968.0,112578.0
1032491.226394,103345.667,170790.0,5969.0,112526.0
1032491.236728,103356.0,170769.0,5982.0,112532.0
1032491.247428,103366.7,170769.0,5979.0,112541.0
1032491.258128,103377.4,170703.0,5973.0,112552.0
1032491.268828,103388.1,170685.0,5952.0,112509.0
1032491.279528,103398.8,170699.0,5935.0,112524.0
1032491.290228,103409.5,170675.0,5957.0,112516.0
1032491.300929,103420.2,170657.0,5970.0,112481.0
1032491.311629,103430.9,170643.0,5949.0,112498.0
1032491.322329,103441.6,170613.0,5904.0,112494.0
1032491.333029,103452.3,170625.0,5923.0,112484.0
1032491.343729,103463.0,170621.0,5930.0,112481.0
1032491.353457,103472.727,170620.0,5947.0,112504.0
1032491.363184,103482.455,170570.0,5883.0,112452.0
1032491.372911,103492.182,170617.0,5921.0,112476.0
1032491.382639,103501.909,170615.0,5909.0,112503.0
1032491.392366,103511.636,170629.0,5931.0,112469.0
1032491.402094,103521.364,170591.0,5913.0,112467.0
1032491.411821,103531.091,170631.0,5935.0,112501.0
1032491.421549,103540.818,170623.0,5925.0,112507.0
1032491.431276,103550.545,170647.0,5928.0,112500.0
1032491.441003,103560.273,170642.0,5915.0,112479.0
1032491.450731,103570.0,170644.0,5942.0,112500.0
1032491.461064,103580.333,170637.0,5912.0,112499.0
1032491.471398,103590.667,170649.0,5925.0,112523.0
1032491.481731,103601.0,170676.0,5960.0,112534.0
1032491.492065,103611.333,170626.0,5924.0,112470.0
1032491.502398,103621.667,170665.0,5952.0,112488.0
1032491.512732,103632.0,170652.0,5952.0,112521.0
1032491.523065,103642.333,170655.0,5961.0,112491.0
1032491.533399,103652.667,170649.0,5937.0,112498.0
1032491.543732,103663.0,170632.0,5931.0,112493.0
1032491.55346,103672.727,170639.0,5921.0,112496.0
1032491.563187,103682.455,170666.0,5925.0,112508.0
1032491.572914,103692.182,170645.0,5918.0,112496.0
1032491.582642,103701.909,170641.0,5953.0,112499.0
1032491.592369,103711.636,170628.0,5921.0,112492.0
1032491.602097,103721.364,170669.0,5956.0,112532.0
1032491.611824,103731.091,170638.0,5924.0,112509.0
1032491.621551,103740.818,170648.0,5925.0,112511.0
1032491.631279,103750.545,170651.0,5931.0,112485.0
1032491.641006,103760.273,170671.0,5944.0,112492.0
1032491.650734,103770.0,170695.0,5957.0,112534.0
1032491.661067,103780.333,170681.0,5934.0,112515.0
1032491.671401,103790.667,170673.0,5946.0,112492.0
1032491.681734,103801.0,170683.0,5956.0,112546.0
1032491.692068,103811.333,170672.0,5946.0,112499.0
1032491.702401,103821.667,170686.0,5946.0,112523.0
1032491.712735,103832.0,170697.0,5939.0,112520.0
1032491.723068,103842.333,170722.0,5946.0,112556.0
1032491.733402,103852.667,170738.0,5966.0,112519.0
1032491.743735,103863.0,170727.0,5955.0,112526.0
1032491.753463,103872.727,170676.0,5943.0,112525.0
1032491.76319,103882.455,170702.0,5937.0,112529.0
1032491.772917,103892.182,170758.0,5983.0,112545.0
1032491.782645,103901.909,170726.0,5955.0,112523.0
1032491.792372,103911.636,170726.0,5957.0,112532.0
1032491.8021,103921.364,170688.0,5938.0,112502.0
1032491.811827,103931.091,170701.0,5928.0,112539.0
1032491.821554,103940.818,170681.0,5946.0,112508.0
1032491.831282,103950.545,170625.0,5933.0,112524.0
1032491.841009,103960.273,170606.0,5911.0,112492.0
1032491.850737,103970.0,170616.0,5921.0,112516.0
1032491.861337,103980.6,170613.0,5911.0,112502.0
1032491.871937,103991.2,170617.0,5928.0,112499.0
1032491.882537,104001.8,170551.0,5891.0,112439.0
1032491.893137,104012.4,170554.0,5891.0,112463.0
1032491.903737,104023.0,170577.0,5892.0,112481.0
1032491.914338,104033.6,170596.0,5876.0,112515.0
1032491.924938,104044.2,170590.0,5899.0,112465.0
1032491.935538,104054.8,170560.0,5876.0,112474.0
1032491.946138,104065.4,170589.0,5895.0,112490.0
1032491.956738,104076.0,170566.0,5901.0,112488.0
1032491.967183,104086.444,170624.0,5924.0,112508.0
1032491.977627,104096.889,170604.0,5906.0,112473.0
1032491.988072,104107.333,170617.0,5927.0,112486.0
1032491.998517,104117.778,170621.0,5910.0,112482.0
1032492.008961,104128.222,170623.0,5920.0,112519.0
1032492.019406,104138.667,170623.0,5904.0,112491.0
1032492.02985,104149.111,170598.0,5909.0,112473.0
1032492.040295,104159.556,170639.0,5915.0,112504.0
1032492.05074,104170.0,170644.0,5915.0,112527.0
1032492.060376,104179.636,170680.0,5945.0,112492.0
1032492.070013,104189.273,170648.0,5916.0,112485.0
1032492.079649,104198.909,170653.0,5916.0,112500.0
1032492.089286,104208.545,170667.0,5930.0,112508.0
1032492.098922,104218.182,170687.0,5943.0,112521.0
1032492.108559,104227.818,170649.0,5904.0,112505.0
1032492.118195,104237.455,170669.0,5922.0,112509.0
1032492.127832,104247.091,170694.0,5944.0,112525.0
1032492.137468,104256.727,170706.0,5937.0,112514.0
1032492.147105,104266.364,170673.0,5919.0,112510.0
1032492.156741,104276.0,170660.0,5921.0,112495.0
1032492.166469,104285.727,170692.0,5897.0,112509.0
1032492.176196,104295.455,170725.0,5928.0,112505.0
1032492.185923,104305.182,170689.0,5929.0,112510.0
1032492.195651,104314.909,170726.0,5929.0,112522.0
1032492.205378,104324.636,170698.0,5932.0,112550.0
1032492.215106,104334.364,170753.0,5959.0,112556.0
1032492.224833,104344.091,170748.0,5962.0,112517.0
1032492.234561,104353.818,170743.0,5938.0,112535.0
1032492.244288,104363.545,170728.0,5919.0,112518.0
1032492.254015,104373.273,170757.0,5922.0,112541.0
1032492.263743,104383.0,170793.0,5964.0,112549.0
1032492.274076,104393.333,170773.0,5941.0,112549.0
1032492.28441,104403.667,170807.0,5961.0,112578.0
1032492.294743,104414.0,170762.0,5962.0,112575.0
1032492.305077,104424.333,170771.0,5967.0,112558.0
1032492.31541,104434.667,170809.0,5960.0,112556.0
1032492.325744,104445.0,170795.0,5956.0,112530.0
1032492.336077,104455.333,170804.0,5979.0,112544.0
1032492.346411,104465.667,170823.0,5943.0,112568.0
1032492.356744,104476.0,170794.0,5972.0,112554.0
1032492.367444,104486.7,170770.0,5949.0,112566.0
1032492.378144,104497.4,170728.0,5921.0,112514.0
1032492.388845,104508.1,170757.0,5961.0,112562.0
1032492.399545,104518.8,170722.0,5919.0,112541.0
1032492.410245,104529.5,170722.0,5919.0,112528.0
1032492.420945,104540.2,170647.0,5897.0,112471.0
1032492.431645,104550.9,170677.0,5920.0,112505.0
1032492.442345,104561.6,170698.0,5923.0,112537.0
1032492.453046,104572.3,170688.0,5903.0,112519.0
1032492.463746,104583.0,170643.0,5910.0,112506.0
1032492.473473,104592.727,170686.0,5905.0,112520.0
1032492.483201,104602.455,170687.0,5934.0,112535.0
1032492.492928,104612.182,170693.0,5914.0,112516.0
1032492.502655,104621.909,170683.0,5904.0,112493.0
1032492.512383,104631.636,170699.0,5882.0,112513.0
1032492.52211,104641.364,170724.0,5921.0,112533.0
1032492.531838,104651.091,170724.0,5918.0,112525.0
1032492.541565,104660.818,170707.0,5933.0,112525.0
1032492.551292,104670.545,170728.0,5902.0,112514.0
1032492.56102,104680.273,170737.0,5939.0,112562.0
1032492.570747,104690.0,170746.0,5932.0,112533.0
1032492.581081,104700.333,170769.0,5921.0,112557.0
1032492.591414,104710.667,170758.0,5904.0,112538.0
1032492.601748,104721.0,170792.0,5915.0,112565.0
1032492.612081,104731.333,170757.0,5932.0,112550.0
1032492.622415,104741.667,170751.0,5943.0,112554.0
1032492.632748,104752.0,170731.0,5917.0,112510.0
1032492.643082,104762.333,170720.0,5924.0,112549.0
1032492.653415,104772.667,170772.0,5930.0,112549.0
1032492.663749,104783.0,170788.0,5945.0,112555.0
1032492.673476,104792.727,170781.0,5955.0,112553.0
1032492.683203,104802.455,170757.0,5917.0,112515.0
1032492.692931,104812.182,170782.0,5901.0,112530.0
1032492.702658,104821.909,170766.0,5946.0,112541.0
1032492.712386,104831.636,170809.0,5957.0,112562.0
1032492.722113,104841.364,170787.0,5944.0,112580.0
1032492.731841,104851.091,170790.0,5946.0,112554.0
1032492.741568,104860.818,170787.0,5936.0,112563.0
1032492.751295,104870.545,170848.0,5959.0,112579.0
1032492.761023,104880.273,170831.0,5956.0,112540.0
1032492.77075,104890.0,170769.0,5927.0,112557.0
1032492.78135,104900.6,170828.0,5951.0,112554.0
1032492.791951,104911.2,170842.0,5966.0,112577.0
1032492.802551,104921.8,170807.0,5940.0,112548.0
1032492.813151,104932.4,170837.0,5947.0,112570.0
1032492.823751,104943.0,170850.0,5946.0,112599.0
1032492.834351,104953.6,170854.0,5954.0,112588.0
1032492.844951,104964.2,170833.0,5954.0,112568.0
1032492.855551,104974.8,170843.0,5961.0,112562.0
1032492.866152,104985.4,170870.0,5960.0,112592.0
1032492.876752,104996.0,170878.0,5965.0,112587.0
1032492.886479,105005.727,170916.0,5942.0,112605.0
1032492.896207,105015.455,170868.0,5963.0,112568.0
1032492.905934,105025.182,170881.0,5972.0,112583.0
1032492.915661,105034.909,170882.0,5971.0,112568.0
1032492.925389,105044.636,170828.0,5977.0,112576.0
1032492.935116,105054.364,170814.0,5951.0,112560.0
1032492.944844,105064.091,170828.0,5961.0,112562.0
1032492.954571,105073.818,170809.0,5934.0,112553.0
1032492.964299,105083.545,170818.0,5955.0,112566.0
1032492.974026,105093.273,170808.0,5956.0,112574.0
1032492.983753,105103.0,170774.0,5937.0,112545.0
1032492.993481,105112.727,170772.0,5967.0,112527.0
1032493.003208,105122.455,170787.0,5939.0,112563.0
1032493.012936,105132.182,170752.0,5926.0,112528.0
1032493.022663,105141.909,170779.0,5944.0,112548.0
1032493.03239,105151.636,170761.0,5900.0,112526.0
1032493.042118,105161.364,170795.0,5925.0,112563.0
1032493.051845,105171.091,170795.0,5950.0,112571.0
1032493.061573,105180.818,170797.0,5933.0,112555.0
1032493.0713,105190.545,170772.0,5955.0,112555.0
1032493.081027,105200.273,170792.0,5935.0,112545.0
1032493.090755,105210.0,170829.0,5947.0,112575.0
1032493.101355,105220.6,170813.0,5956.0,112559.0
1032493.111955,105231.2,170844.0,5959.0,112566.0
1032493.122555,105241.8,170825.0,5946.0,112552.0
1032493.133156,105252.4,170844.0,5984.0,112578.0
1032493.143756,105263.0,170826.0,5969.0,112561.0
1032493.154356,105273.6,170806.0,5966.0,112541.0
1032493.164956,105284.2,170830.0,5952.0,112565.0
1032493.175556,105294.8,170815.0,5944.0,112565.0
1032493.186156,105305.4,170857.0,5983.0,112560.0
1032493.196756,105316.0,170854.0,5957.0,112583.0
1032493.20709,105326.333,170826.0,,112548.0
1032493.207201,105326.444,,5966.0,
1032493.217423,105336.667,170848.0,,112550.0
1032493.217646,105336.889,,5960.0,
1032493.227757,105347.0,170872.0,,112621.0
1032493.22809,105347.333,,5969.0,
1032493.23809,105357.333,170844.0,,112571.0
1032493.238535,105357.778,,5962.0,
1032493.248424,105367.667,170842.0,,112572.0
1032493.248979,105368.222,,5936.0,
1032493.258757,105378.0,170860.0,,112586.0
1032493.259424,105378.667,,5968.0,
1032493.269091,105388.333,170877.0,,112585.0
1032493.269869,105389.111,,5979.0,
1032493.279424,105398.667,170879.0,,112581.0
1032493.280313,105399.556,,5977.0,
1032493.289758,105409.0,170870.0,,112566.0
1032493.290758,105410.0,,5952.0,
1032493.299485,105418.727,170867.0,,112562.0
1032493.300394,105419.636,,5978.0,
1032493.309213,105428.455,170892.0,,112571.0
1032493.310031,105429.273,,5975.0,
1032493.31894,105438.182,170900.0,,112604.0
1032493.319667,105438.909,,5999.0,
1032493.328667,105447.909,170879.0,,112598.0
1032493.329304,105448.545,,5999.0,
1032493.338395,105457.636,170919.0,,112561.0
1032493.33894,105458.182,,5984.0,
1032493.348122,105467.364,170916.0,,112622.0
1032493.348577,105467.818,,5996.0,
1032493.35785,105477.091,170923.0,,112606.0
1032493.358213,105477.455,,5994.0,
1032493.367577,105486.818,170907.0,,112576.0
1032493.36785,105487.091,,5983.0,
1032493.377305,105496.545,170905.0,,112593.0
1032493.377486,105496.727,,6000.0,
1032493.387032,105506.273,170932.0,,112598.0
1032493.387123,105506.364,,5991.0,
1032493.396759,105516.0,170943.0,5996.0,112604.0
1032493.407093,105526.333,170944.0,5997.0,112578.0
1032493.417426,105536.667,170972.0,6025.0,112634.0
1032493.42776,105547.0,170934.0,6003.0,112603.0
1032493.438093,105557.333,170978.0,6016.0,112611.0
1032493.448427,105567.667,170972.0,6041.0,112615.0
1032493.45876,105578.0,170958.0,6025.0,112594.0
1032493.469094,105588.333,170968.0,6028.0,112629.0
1032493.479427,105598.667,170930.0,6008.0,112579.0
1032493.489761,105609.0,170920.0,6000.0,112597.0
1032493.499488,105618.727,170915.0,6014.0,112602.0
1032493.509216,105628.455,170917.0,5966.0,112604.0
1032493.518943,105638.182,170874.0,5961.0,112576.0
1032493.52867,105647.909,170859.0,5995.0,112572.0
1032493.538398,105657.636,170889.0,6015.0,112573.0
1032493.548125,105667.364,170886.0,5995.0,112563.0
1032493.557853,105677.091,170875.0,5989.0,112572.0
1032493.56758,105686.818,170886.0,5985.0,112574.0
1032493.577308,105696.545,170884.0,5980.0,112573.0
1032493.587035,105706.273,170877.0,5989.0,112549.0
1032493.596762,105716.0,170874.0,5982.0,112557.0
1032493.607462,105726.7,170907.0,5988.0,112580.0
1032493.618163,105737.4,170920.0,6005.0,112574.0
1032493.628863,105748.1,170862.0,5981.0,112558.0
1032493.639563,105758.8,170910.0,6013.0,112596.0
1032493.650263,105769.5,170904.0,6007.0,112590.0
1032493.660963,105780.2,170914.0,6005.0,112591.0
1032493.671663,105790.9,170949.0,6014.0,112615.0
1032493.682364,105801.6,170964.0,6033.0,112604.0
1032493.693064,105812.3,170933.0,6021.0,112598.0
1032493.703764,105823.0,170911.0,6014.0,112580.0
1032493.713064,105832.3,170924.0,5994.0,112576.0
1032493.722364,105841.6,170962.0,6035.0,112615.0
1032493.731664,105850.9,170945.0,6020.0,112583.0
1032493.740964,105860.2,170950.0,6026.0,112595.0
1032493.750265,105869.5,170955.0,6029.0,112623.0
1032493.759565,105878.8,170962.0,6043.0,112618.0
1032493.768865,105888.1,170950.0,6019.0,112597.0
1032493.778165,105897.4,170937.0,6024.0,112581.0
1032493.787465,105906.7,170967.0,6018.0,112603.0
1032493.796765,105916.0,170985.0,6026.0,112604.0
1032493.807465,105926.7,170984.0,6034.0,112596.0
1032493.818166,105937.4,170967.0,6010.0,112598.0
1032493.828866,105948.1,171008.0,6039.0,112602.0
1032493.839566,105958.8,170985.0,6030.0,112591.0
1032493.850266,105969.5,171008.0,6036.0,112607.0
1032493.860966,105980.2,170967.0,6016.0,112607.0
1032493.871666,105990.9,170986.0,6045.0,112636.0
1032493.882367,106001.6,170994.0,6041.0,112599.0
1032493.893067,106012.3,171035.0,6039.0,112638.0
1032493.903767,106023.0,170992.0,6039.0,112638.0
1032493.913494,106032.727,171003.0,6035.0,112595.0
1032493.923222,106042.455,171034.0,6051.0,112602.0
1032493.932949,106052.182,171040.0,6080.0,112618.0
1032493.942677,106061.909,171041.0,6065.0,112628.0
1032493.952404,106071.636,171050.0,6058.0,112618.0
1032493.962131,106081.364,171028.0,6064.0,112644.0
1032493.971859,106091.091,171092.0,6067.0,112632.0
1032493.981586,106100.818,171066.0,6069.0,112653.0
1032493.991314,106110.545,171061.0,6092.0,112648.0
1032494.001041,106120.273,171105.0,6083.0,112657.0
1032494.010768,106130.0,171068.0,6057.0,112620.0
1032494.021369,106140.6,171054.0,6073.0,112616.0
1032494.031969,106151.2,171009.0,6068.0,112593.0
1032494.042569,106161.8,171011.0,6042.0,112596.0
1032494.053169,106172.4,171006.0,6067.0,112598.0
1032494.063769,106183.0,171003.0,6062.0,112614.0
1032494.074369,106193.6,171005.0,6053.0,112602.0
1032494.08497,106204.2,170963.0,6059.0,112572.0
1032494.09557,106214.8,170975.0,6041.0,112593.0
1032494.10617,106225.4,170979.0,6049.0,112599.0
1032494.11677,106236.0,170958.0,6059.0,112585.0
1032494.12617,106245.4,170976.0,6070.0,112570.0
1032494.13557,106254.8,170977.0,6078.0,112621.0
1032494.14497,106264.2,170974.0,6058.0,112600.0
1032494.154371,106273.6,170992.0,6071.0,112588.0
1032494.163771,106283.0,170977.0,6063.0,112581.0
1032494.173171,106292.4,170995.0,6046.0,112590.0
1032494.182571,106301.8,170991.0,6065.0,112582.0
1032494.191971,106311.2,170967.0,6036.0,112591.0
1032494.201371,106320.6,171014.0,6082.0,112593.0
1032494.210771,106330.0,171036.0,6071.0,112608.0
1032494.221372,106340.6,171010.0,6067.0,112603.0
1032494.231972,106351.2,170994.0,6076.0,112618.0
1032494.242572,106361.8,171038.0,6097.0,112627.0
1032494.253172,106372.4,171038.0,6059.0,112598.0
1032494.263772,106383.0,171017.0,6078.0,112598.0
1032494.274372,106393.6,171033.0,6061.0,112619.0
1032494.284972,106404.2,171016.0,6065.0,112612.0
1032494.295573,106414.8,171026.0,6068.0,112629.0
1032494.306173,106425.4,171040.0,6094.0,112601.0
1032494.316773,106436.0,171018.0,6082.0,112614.0
1032494.327106,106446.333,170996.0,6080.0,112579.0
1032494.33744,106456.667,170993.0,6056.0,112607.0
1032494.347773,106467.0,171009.0,6075.0,112604.0
1032494.358107,106477.333,171053.0,6075.0,112593.0
1032494.36844,106487.667,171049.0,6072.0,112630.0
1032494.378774,106498.0,171084.0,6116.0,112619.0
1032494.389107,106508.333,171034.0,6106.0,112615.0
1032494.399441,106518.667,171055.0,6092.0,112606.0
1032494.409774,106529.0,171026.0,6087.0,112611.0
1032494.419502,106538.727,171037.0,6076.0,112585.0
1032494.429229,106548.455,171032.0,6087.0,112642.0
1032494.438957,106558.182,171051.0,6097.0,112614.0
1032494.448684,106567.909,171059.0,6121.0,112617.0
1032494.458411,106577.636,171085.0,6068.0,112640.0
1032494.468139,106587.364,171060.0,6117.0,112594.0
1032494.477866,106597.091,171077.0,6116.0,112619.0
1032494.487594,106606.818,171072.0,6105.0,112595.0
1032494.497321,106616.545,171066.0,6109.0,112599.0
1032494.507048,106626.273,171093.0,6096.0,112613.0
1032494.516776,106636.0,171117.0,6111.0,112622.0
1032494.526503,106645.727,171107.0,6119.0,112647.0
1032494.536231,106655.455,171087.0,6100.0,112615.0
1032494.545958,106665.182,171102.0,6115.0,112630.0
1032494.555686,106674.909,171107.0,6138.0,112600.0
1032494.565413,106684.636,171087.0,6145.0,112624.0
1032494.57514,106694.364,171053.0,6134.0,112605.0
1032494.584868,106704.091,171066.0,6121.0,112606.0
1032494.594595,106713.818,171069.0,6122.0,112600.0
1032494.604323,106723.545,171084.0,6110.0,112591.0
1032494.61405,106733.273,171057.0,6125.0,112587.0
1032494.623777,106743.0,171007.0,6099.0,112604.0
1032494.634111,106753.333,171019.0,6119.0,112587.0
1032494.644444,106763.667,171029.0,6086.0,112586.0
1032494.654778,106774.0,170975.0,6098.0,112585.0
1032494.665111,106784.333,171036.0,6122.0,112601.0
1032494.675445,106794.667,171007.0,6106.0,112583.0
1032494.685778,106805.0,170983.0,6134.0,112610.0
1032494.696112,106815.333,171039.0,6135.0,112587.0
1032494.706445,106825.667,171020.0,6125.0,112551.0
1032494.716779,106836.0,171011.0,6105.0,112583.0
1032494.727479,106846.7,171041.0,6113.0,112575.0
1032494.738179,106857.4,171065.0,6105.0,112606.0
1032494.748879,106868.1,171060.0,6102.0,112607.0
1032494.759579,106878.8,171026.0,6103.0,112588.0
1032494.77028,106889.5,171053.0,6126.0,112601.0
1032494.78098,106900.2,171043.0,6112.0,112584.0
1032494.79168,106910.9,171063.0,6144.0,112606.0
1032494.80238,106921.6,171044.0,6127.0,112575.0
1032494.81308,106932.3,171066.0,6125.0,112598.0
1032494.82378,106943.0,171057.0,6144.0,112609.0
1032494.833417,106952.636,171073.0,6115.0,112605.0
1032494.843053,106962.273,171048.0,6110.0,112569.0
1032494.85269,106971.909,171073.0,6140.0,112608.0
1032494.862326,106981.545,171079.0,6132.0,112589.0
1032494.871963,106991.182,171076.0,6159.0,112613.0
1032494.881599,107000.818,171048.0,6164.0,112602.0
1032494.891236,107010.455,171069.0,6146.0,112593.0
1032494.900872,107020.091,171086.0,6126.0,112609.0
1032494.910509,107029.727,171109.0,6144.0,112592.0
1032494.920145,107039.364,171116.0,6160.0,112628.0
1032494.929782,107049.0,171078.0,6139.0,112609.0
1032494.940227,107059.444,171074.0,6154.0,112587.0
1032494.950671,107069.889,171102.0,6162.0,112611.0
1032494.961116,107080.333,171107.0,6176.0,112631.0
1032494.97156,107090.778,171105.0,6146.0,112602.0
1032494.982005,107101.222,171090.0,6153.0,112587.0
1032494.99245,107111.667,171111.0,6155.0,112622.0
1032495.002894,107122.111,171095.0,6146.0,112640.0
1032495.013339,107132.556,171128.0,6163.0,112611.0
1032495.023783,107143.0,171112.0,6153.0,112615.0
1032495.03342,107152.636,171114.0,,112595.0
1032495.033511,107152.727,,6155.0,
1032495.043056,107162.273,171154.0,,112639.0
1032495.043238,107162.455,,6189.0,
1032495.052693,107171.909,171141.0,,112620.0
1032495.052966,107172.182,,6167.0,
1032495.062329,107181.545,171136.0,,112588.0
1032495.062693,107181.909,,6171.0,
1032495.071966,107191.182,171126.0,,112618.0
1032495.07242,107191.636,,6150.0,
1032495.081602,107200.818,171154.0,,112637.0
1032495.082148,107201.364,,6160.0,
1032495.091239,107210.455,171186.0,,112624.0
1032495.091875,107211.091,,6206.0,
1032495.100875,107220.091,171128.0,,112640.0
1032495.101603,107220.818,,6181.0,
1032495.110512,107229.727,171124.0,,112610.0
1032495.11133,107230.545,,6171.0,
1032495.120148,107239.364,171132.0,,112630.0
1032495.121057,107240.273,,6159.0,
1032495.129785,107249.0,171165.0,,112610.0
1032495.130785,107250.0,,6191.0,
1032495.140229,107259.444,171138.0,,112628.0
1032495.141118,107260.333,,6182.0,
1032495.150674,107269.889,171105.0,,112578.0
1032495.151452,107270.667,,6157.0,
1032495.161119,107280.333,171114.0,,112587.0
1032495.161785,107281.0,,6182.0,
1032495.171563,107290.778,171056.0,,112590.0
1032495.172119,107291.333,,6155.0,
1032495.182008,107301.222,171084.0,,112595.0
1032495.182452,107301.667,,6164.0,
1032495.192452,107311.667,171057.0,,112593.0
1032495.192786,107312.0,,6182.0,
1032495.202897,107322.111,171085.0,,112600.0
1032495.203119,107322.333,,6154.0,
1032495.213342,107332.556,171075.0,,112607.0
1032495.213453,107332.667,,6178.0,
1032495.223786,107343.0,171085.0,6171.0,112616.0
1032495.233423,107352.636,171073.0,6177.0,112562.0
1032495.243059,107362.273,171032.0,6165.0,112554.0
1032495.252696,107371.909,171094.0,6164.0,112587.0
1032495.262332,107381.545,171068.0,6153.0,112581.0
1032495.271969,107391.182,171059.0,6166.0,112597.0
1032495.281605,107400.818,171037.0,6162.0,112603.0
1032495.291242,107410.455,171096.0,6195.0,112601.0
1032495.300878,107420.091,171091.0,6166.0,112592.0
1032495.310515,107429.727,171119.0,6186.0,112557.0
1032495.320151,107439.364,171099.0,6163.0,112595.0
1032495.329788,107449.0,171090.0,6153.0,112584.0
1032495.340488,107459.7,171110.0,6174.0,112605.0
1032495.351188,107470.4,171131.0,6191.0,112609.0
1032495.361888,107481.1,171096.0,6173.0,112584.0
1032495.372588,107491.8,171082.0,6165.0,112589.0
1032495.383289,107502.5,171110.0,6169.0,112592.0
1032495.393989,107513.2,171146.0,6204.0,112600.0
1032495.404689,107523.9,171117.0,6170.0,112594.0
1032495.415389,107534.6,171079.0,6170.0,112577.0
1032495.426089,107545.3,171110.0,6183.0,112597.0
1032495.436789,107556.0,171116.0,6164.0,112602.0
1032495.447123,107566.333,171137.0,6205.0,112612.0
1032495.457456,107576.667,171103.0,6188.0,112583.0
1032495.46779,107587.0,171122.0,6182.0,112591.0
1032495.478123,107597.333,171118.0,6203.0,112628.0
1032495.488457,107607.667,171113.0,6222.0,112640.0
1032495.49879,107618.0,171111.0,6191.0,112569.0
1032495.509124,107628.333,171116.0,6185.0,112598.0
1032495.519457,107638.667,171104.0,6203.0,112576.0
1032495.529791,107649.0,171169.0,6172.0,112606.0
1032495.539518,107658.727,171138.0,6190.0,112607.0
1032495.549246,107668.455,171127.0,6187.0,112585.0
1032495.558973,107678.182,171145.0,6199.0,112602.0
1032495.5687,107687.909,171164.0,6213.0,112630.0
1032495.578428,107697.636,171177.0,6229.0,112605.0
1032495.588155,107707.364,171139.0,6196.0,112596.0
1032495.597883,107717.091,171184.0,6205.0,112607.0
1032495.60761,107726.818,171178.0,6222.0,112609.0
1032495.617337,107736.545,171214.0,6211.0,112629.0
1032495.627065,107746.273,171203.0,6265.0,112607.0
1032495.636792,107756.0,171183.0,6211.0,112599.0
1032495.647126,107766.333,171171.0,6204.0,112582.0
1032495.657459,107776.667,171188.0,6240.0,112622.0
1032495.667793,107787.0,171164.0,6203.0,112596.0
1032495.678126,107797.333,171178.0,6217.0,112599.0
1032495.68846,107807.667,171188.0,6219.0,112618.0
1032495.698793,107818.0,171171.0,6221.0,112611.0
1032495.709127,107828.333,171103.0,6219.0,112573.0
1032495.71946,107838.667,171124.0,6194.0,112594.0
1032495.729794,107849.0,171067.0,6227.0,112584.0
1032495.739521,107858.727,171098.0,6193.0,112570.0
1032495.749249,107868.455,171112.0,6231.0,112591.0
1032495.758976,107878.182,171096.0,6222.0,112588.0
1032495.768703,107887.909,171105.0,6183.0,112534.0
1032495.778431,107897.636,171069.0,6172.0,112561.0
1032495.788158,107907.364,171073.0,6172.0,112582.0
1032495.797886,107917.091,171055.0,6186.0,112572.0
1032495.807613,107926.818,171065.0,6181.0,112560.0
1032495.81734,107936.545,171026.0,6175.0,112562.0
1032495.827068,107946.273,171083.0,6209.0,112590.0
1032495.836795,107956.0,171087.0,6185.0,112562.0
1032495.847495,107966.7,171084.0,6200.0,112571.0
1032495.858196,107977.4,171054.0,6166.0,112554.0
1032495.868896,107988.1,171112.0,6166.0,112591.0
1032495.879596,107998.8,171092.0,6213.0,112568.0
1032495.890296,108009.5,171043.0,6208.0,112545.0
1032495.900996,108020.2,171063.0,6181.0,112529.0
1032495.911696,108030.9,171075.0,6215.0,112571.0
1032495.922397,108041.6,171094.0,6212.0,112561.0
1032495.933097,108052.3,171093.0,6198.0,112588.0
1032495.943797,108063.0,171081.0,6192.0,112547.0
1032495.953097,108072.3,171058.0,6189.0,112555.0
1032495.962397,108081.6,171097.0,6180.0,112562.0
1032495.971697,108090.9,171091.0,6195.0,112563.0
1032495.980997,108100.2,171076.0,6213.0,112556.0
1032495.990298,108109.5,171084.0,6198.0,112576.0
1032495.999598,108118.8,171077.0,6214.0,112590.0
1032496.008898,108128.1,171097.0,6197.0,112568.0
1032496.018198,108137.4,171137.0,6231.0,112540.0
1032496.027498,108146.7,171080.0,6196.0,112556.0
1032496.036798,108156.0,171067.0,6192.0,112536.0
1032496.047498,108166.7,171090.0,6209.0,112561.0
1032496.058199,108177.4,171131.0,6231.0,112603.0
1032496.068899,108188.1,171077.0,6191.0,112562.0
1032496.079599,108198.8,171113.0,6213.0,112558.0
1032496.090299,108209.5,171117.0,6212.0,112558.0
1032496.100999,108220.2,171126.0,6210.0,112548.0
1032496.111699,108230.9,171119.0,6227.0,112544.0
1032496.122399,108241.6,171108.0,6220.0,112548.0
1032496.1331,108252.3,171125.0,6211.0,112571.0
1032496.1438,108263.0,171102.0,6216.0,112551.0
1032496.153436,108272.636,171180.0,6236.0,112596.0
1032496.163073,108282.273,171113.0,6209.0,112528.0
1032496.172709,108291.909,171128.0,6220.0,112567.0
1032496.182346,108301.545,171164.0,6235.0,112591.0
1032496.191982,108311.182,171182.0,6250.0,112595.0
1032496.201619,108320.818,171120.0,6216.0,112560.0
1032496.211255,108330.455,171152.0,6223.0,112583.0
1032496.220892,108340.091,171166.0,6210.0,112581.0
1032496.230528,108349.727,171150.0,6249.0,112588.0
1032496.240165,108359.364,171137.0,6226.0,112600.0
1032496.249801,108369.0,171100.0,6209.0,112574.0
1032496.260135,108379.333,171084.0,6214.0,112587.0
1032496.270468,108389.667,171081.0,6210.0,112563.0
1032496.280802,108400.0,171066.0,6212.0,112539.0
1032496.291135,108410.333,171010.0,6197.0,112525.0
1032496.301469,108420.667,171002.0,6196.0,112525.0
1032496.311802,108431.0,171035.0,6188.0,112533.0
1032496.322136,108441.333,170995.0,6183.0,112501.0
1032496.332469,108451.667,171000.0,6201.0,112502.0
1032496.342803,108462.0,171011.0,6192.0,112529.0
1032496.35253,108471.727,170992.0,6194.0,112521.0
1032496.362258,108481.455,171009.0,6201.0,112537.0
1032496.371985,108491.182,170995.0,6174.0,112510.0
1032496.381712,108500.909,170994.0,6186.0,112514.0
1032496.39144,108510.636,170979.0,6156.0,112508.0
1032496.401167,108520.364,171023.0,6205.0,112542.0
1032496.410895,108530.091,170999.0,6160.0,112516.0
1032496.420622,108539.818,170984.0,6199.0,112488.0
1032496.430349,108549.545,170993.0,6177.0,112503.0
1032496.440077,108559.273,170993.0,6174.0,112514.0
1032496.449804,108569.0,171038.0,6207.0,112555.0
1032496.460138,108579.333,171037.0,6189.0,112526.0
1032496.470471,108589.667,171009.0,6191.0,112507.0
1032496.480805,108600.0,171030.0,6200.0,112502.0
1032496.491138,108610.333,170992.0,6204.0,112511.0
1032496.501472,108620.667,171021.0,6186.0,112530.0
1032496.511805,108631.0,171017.0,6201.0,112513.0
1032496.522139,108641.333,171010.0,6184.0,112498.0
1032496.532472,108651.667,171026.0,6221.0,112552.0
1032496.542806,108662.0,171019.0,6204.0,112521.0
1032496.552533,108671.727,171018.0,6247.0,112497.0
1032496.56226,108681.455,170977.0,6195.0,112493.0
1032496.571988,108691.182,171029.0,6192.0,112506.0
1032496.581715,108700.909,171019.0,6198.0,112515.0
1032496.591443,108710.636,171039.0,6206.0,112555.0
1032496.60117,108720.364,170989.0,6182.0,112514.0
1032496.610898,108730.091,171016.0,6201.0,112538.0
1032496.620625,108739.818,171021.0,6200.0,112519.0
1032496.630352,108749.545,171026.0,6187.0,112506.0
1032496.64008,108759.273,171037.0,6214.0,112489.0
1032496.649807,108769.0,171033.0,6214.0,112508.0
1032496.660507,108779.7,171024.0,6195.0,112516.0
1032496.671208,108790.4,171025.0,6197.0,112519.0
1032496.681908,108801.1,170991.0,6184.0,112502.0
1032496.692608,108811.8,171027.0,6189.0,112512.0
1032496.703308,108822.5,171055.0,6205.0,112530.0
1032496.714008,108833.2,171038.0,6188.0,112549.0
1032496.724708,108843.9,171059.0,6212.0,112507.0
1032496.735408,108854.6,171067.0,6221.0,112543.0
1032496.746109,108865.3,171056.0,6195.0,112528.0
1032496.756809,108876.0,171061.0,6218.0,112525.0
1032496.767142,108886.333,171076.0,6196.0,112506.0
1032496.777476,108896.667,171054.0,6214.0,112545.0
1032496.787809,108907.0,171008.0,6215.0,112528.0
1032496.798143,108917.333,171015.0,6200.0,112517.0
1032496.808476,108927.667,171045.0,6191.0,112502.0
1032496.81881,108938.0,170992.0,6204.0,112488.0
1032496.829143,108948.333,170970.0,6163.0,112457.0
1032496.839477,108958.667,170936.0,6180.0,112475.0
1032496.84981,108969.0,170939.0,6185.0,112485.0
1032496.859538,108978.727,170908.0,6190.0,112448.0
1032496.869265,108988.455,170887.0,6158.0,112472.0
1032496.878992,108998.182,170883.0,6164.0,112471.0
1032496.88872,109007.909,170893.0,6157.0,112450.0
1032496.898447,109017.636,170887.0,6173.0,112464.0
1032496.908175,109027.364,170876.0,6156.0,112443.0
1032496.917902,109037.091,170871.0,6166.0,112456.0
1032496.927629,109046.818,170865.0,6165.0,112448.0
1032496.937357,109056.545,170893.0,6125.0,112451.0
1032496.947084,109066.273,170883.0,6166.0,112457.0
1032496.956812,109076.0,170849.0,6155.0,112418.0
1032496.967412,109086.6,170875.0,6129.0,112432.0
1032496.978012,109097.2,170853.0,6130.0,112438.0
1032496.988612,109107.8,170861.0,6138.0,112443.0
1032496.999212,109118.4,170888.0,6160.0,112453.0
1032497.009813,109129.0,170900.0,6176.0,112451.0
1032497.020413,109139.6,170898.0,6157.0,112426.0
1032497.031013,109150.2,170861.0,6146.0,112430.0
1032497.041613,109160.8,170879.0,6147.0,112456.0
1032497.052213,109171.4,170857.0,6163.0,112448.0
1032497.062813,109182.0,170858.0,6164.0,112424.0
1032497.072213,109191.4,170846.0,6136.0,112438.0
1032497.081614,109200.8,170882.0,6149.0,112437.0
1032497.091014,109210.2,170867.0,6122.0,112443.0
1032497.100414,109219.6,170862.0,6130.0,112437.0
1032497.109814,109229.0,170843.0,6153.0,112420.0
1032497.119214,109238.4,170843.0,6154.0,112443.0
1032497.128614,109247.8,170859.0,6151.0,112441.0
1032497.138014,109257.2,170853.0,6158.0,112444.0
1032497.147415,109266.6,170866.0,6159.0,112467.0
1032497.156815,109276.0,170859.0,6144.0,112428.0
1032497.167415,109286.6,170858.0,6156.0,112439.0
1032497.178015,109297.2,170869.0,6165.0,112427.0
1032497.188615,109307.8,170895.0,6143.0,112457.0
1032497.199215,109318.4,170893.0,6156.0,112457.0
1032497.209815,109329.0,170867.0,6144.0,112429.0
1032497.220416,109339.6,170826.0,6116.0,112420.0
1032497.231016,109350.2,170870.0,6164.0,112450.0
1032497.241616,109360.8,170848.0,6157.0,112413.0
1032497.252216,109371.4,170870.0,6152.0,112441.0
1032497.262816,109382.0,170897.0,6171.0,112455.0
1032497.272544,109391.727,170897.0,6170.0,112441.0
1032497.282271,109401.455,170899.0,6171.0,112412.0
1032497.291998,109411.182,170890.0,6153.0,112444.0
1032497.301726,109420.909,170870.0,6146.0,112434.0
1032497.311453,109430.636,170904.0,6168.0,112473.0
1032497.321181,109440.364,170879.0,6133.0,112416.0
1032497.330908,109450.091,170876.0,6155.0,112445.0
1032497.340636,109459.818,170883.0,6166.0,112449.0
1032497.350363,109469.545,170825.0,6168.0,112427.0
1032497.36009,109479.273,170845.0,6141.0,112424.0
1032497.369818,109489.0,170801.0,6134.0,112408.0
1032497.380151,109499.333,170754.0,6138.0,112391.0
1032497.390485,109509.667,170782.0,6127.0,112379.0
1032497.400818,109520.0,170737.0,6102.0,112382.0
1032497.411152,109530.333,170733.0,6109.0,112393.0
1032497.421485,109540.667,170719.0,6119.0,112382.0
1032497.431819,109551.0,170677.0,6080.0,112356.0
1032497.442152,109561.333,170713.0,6094.0,112365.0
1032497.452486,109571.667,170666.0,6075.0,112380.0
1032497.462819,109582.0,170697.0,6092.0,112358.0
1032497.472547,109591.727,170709.0,6097.0,112398.0
1032497.482274,109601.455,170703.0,6104.0,112353.0
1032497.492001,109611.182,170683.0,6115.0,112344.0
1032497.501729,109620.909,170697.0,6084.0,112374.0
1032497.511456,109630.636,170664.0,6081.0,112386.0
1032497.521184,109640.364,170707.0,6116.0,112394.0
1032497.530911,109650.091,170741.0,6082.0,112384.0
1032497.540638,109659.818,170716.0,6099.0,112361.0
1032497.550366,109669.545,170707.0,6087.0,112339.0
1032497.560093,109679.273,170718.0,6075.0,112385.0
1032497.569821,109689.0,170724.0,6095.0,112369.0
1032497.580521,109699.7,170711.0,6089.0,112374.0
1032497.591221,109710.4,170665.0,6091.0,112358.0
1032497.601921,109721.1,170688.0,6077.0,112343.0
1032497.612621,109731.8,170667.0,6061.0,112335.0
1032497.623322,109742.5,170691.0,6074.0,112368.0
1032497.634022,109753.2,170677.0,6072.0,112360.0
1032497.644722,109763.9,170675.0,6074.0,112337.0
1032497.655422,109774.6,170725.0,6086.0,112378.0
1032497.666122,109785.3,170680.0,6084.0,112355.0
1032497.676822,109796.0,170655.0,6103.0,112369.0
1032497.686122,109805.3,170671.0,6081.0,112352.0
1032497.695423,109814.6,170665.0,6081.0,112378.0
1032497.704723,109823.9,170682.0,6071.0,112364.0
1032497.714023,109833.2,170624.0,6056.0,112352.0
1032497.723323,109842.5,170663.0,6084.0,112361.0
1032497.732623,109851.8,170710.0,6091.0,112365.0
1032497.741923,109861.1,170698.0,6074.0,112361.0
1032497.751223,109870.4,170637.0,6075.0,112375.0
1032497.760524,109879.7,170664.0,6054.0,112347.0
1032497.769824,109889.0,170682.0,6064.0,112360.0
1032497.780524,109899.7,170701.0,6072.0,112371.0
1032497.791224,109910.4,170705.0,6063.0,112361.0
1032497.801924,109921.1,170694.0,6064.0,112341.0
1032497.812624,109931.8,170701.0,6070.0,112347.0
1032497.823324,109942.5,170719.0,6109.0,112363.0
1032497.834025,109953.2,170692.0,6081.0,112356.0
1032497.844725,109963.9,170692.0,6084.0,112347.0
