LslMarkerSourceTimestamp,EmotiBitTimestamp,PI,PG,PR
1201894.457669,20334.000,183475,7424,112366
1201894.467305,20343.636,183505,7446,112363
1201894.476941,20353.273,183479,7441,112378
1201894.486578,20362.909,183512,7431,112361
1201894.496214,20372.545,183495,7422,112335
1201894.50585,20382.182,183521,7405,112369
1201894.515486,20391.818,183506,7445,112329
1201894.525123,20401.455,183501,7432,112346
1201894.534759,20411.091,183518,7432,112390
1201894.544395,20420.727,183496,7408,112361
1201894.554032,20430.364,183468,7428,112330
1201894.563668,20440.000,183494,7426,112346
1201894.574112,20450.444,183496,7431,112374
1201894.584557,20460.889,183487,7433,112362
1201894.595001,20471.333,183488,7426,112345
1201894.605446,20481.778,183511,7437,112354
1201894.61589,20492.222,183491,7443,112339
1201894.626334,20502.667,183476,7444,112344
1201894.636779,20513.111,183474,7429,112357
1201894.647223,20523.556,183506,7430,112363
1201894.657668,20534.000,183522,7449,112367
1201894.667304,20543.636,183489,7430,112318
1201894.67694,20553.273,183480,7419,112314
1201894.686577,20562.909,183484,7435,112335
1201894.696213,20572.545,183468,7432,112367
1201894.705849,20582.182,183503,7444,112363
1201894.715485,20591.818,183488,7429,112371
1201894.725122,20601.455,183506,7431,112343
1201894.734758,20611.091,183511,7453,112372
1201894.744394,20620.727,183458,7408,112369
1201894.754031,20630.364,183520,7432,112362
1201894.763667,20640.000,183483,7434,112356
1201894.774367,20650.700,183490,7428,112360
1201894.785067,20661.400,183457,7439,112338
1201894.795767,20672.100,183473,7437,112371
1201894.806467,20682.800,183497,7468,112351
1201894.817167,20693.500,183479,7421,112369
1201894.827867,20704.200,183457,7431,112317
1201894.838567,20714.900,183480,7411,112330
1201894.849267,20725.600,183519,7421,112366
1201894.859967,20736.300,183475,7428,112348
1201894.870666,20747.000,183488,7463,112356
1201894.880066,20756.400,183473,7417,112345
1201894.889466,20765.800,183498,7438,112363
1201894.898866,20775.200,183485,7436,112347
1201894.908266,20784.600,183488,7433,112313
1201894.917666,20794.000,183516,7427,112376
1201894.927066,20803.400,183492,7464,112367
1201894.936466,20812.800,183470,7426,112336
1201894.945866,20822.200,183485,7453,112338
1201894.955266,20831.600,183461,7418,112342
1201894.964666,20841.000,183511,7456,112379
1201894.975266,20851.600,183491,7433,112346
1201894.985866,20862.200,183498,7425,112346
1201894.996466,20872.800,183484,7419,112334
1201895.007066,20883.400,183507,7422,112369
1201895.017666,20894.000,183494,7422,112345
1201895.028266,20904.600,183475,7427,112373
1201895.038866,20915.200,183461,7420,112353
1201895.049466,20925.800,183445,7436,112368
1201895.060065,20936.400,183439,7404,112336
1201895.070665,20947.000,183425,7412,112311
1201895.080393,20956.727,183409,7395,112307
1201895.09012,20966.455,183433,7416,112344
1201895.099847,20976.182,183427,7388,112320
1201895.109574,20985.909,183407,7411,112315
1201895.119302,20995.636,183433,7402,112351
1201895.129029,21005.364,183458,7401,112358
1201895.138756,21015.091,183425,7386,112328
1201895.148483,21024.818,183431,7393,112299
1201895.15821,21034.545,183393,7372,112316
1201895.167938,21044.273,183435,7383,112349
1201895.177665,21054.000,183413,7407,112322
1201895.187998,21064.333,183408,7382,112338
1201895.198331,21074.667,183403,7380,112320
1201895.208665,21085.000,183423,7403,112352
1201895.218998,21095.333,183415,7378,112323
1201895.229331,21105.667,183413,7386,112342
1201895.239665,21116.000,183416,7377,112339
1201895.249998,21126.333,183436,7399,112335
1201895.260331,21136.667,183416,7384,112333
1201895.270664,21147.000,183422,7380,112354
1201895.280392,21156.727,183406,7372,112326
1201895.290119,21166.455,183421,7402,112342
1201895.299846,21176.182,183428,7408,112300
1201895.309573,21185.909,183425,7371,112333
1201895.3193,21195.636,183399,7353,112312
1201895.329028,21205.364,183430,7358,112340
1201895.338755,21215.091,183417,7388,112346
1201895.348482,21224.818,183404,7382,112333
1201895.358209,21234.545,183403,7374,112295
1201895.367937,21244.273,183424,7395,112321
1201895.377664,21254.000,183411,7395,112315
1201895.387997,21264.333,183397,7375,112327
1201895.39833,21274.667,183408,7371,112314
1201895.408664,21285.000,183424,7386,112339
1201895.418997,21295.333,183375,7380,112299
1201895.42933,21305.667,183415,7373,112315
1201895.439664,21316.000,183395,7377,112322
1201895.449997,21326.333,183418,7407,112335
1201895.46033,21336.667,183416,7393,112328
1201895.470663,21347.000,183396,7367,112290
1201895.480391,21356.727,183403,7353,112295
1201895.490118,21366.455,183419,7353,112335
1201895.499845,21376.182,183393,7371,112306
1201895.509572,21385.909,183407,7381,112336
1201895.519299,21395.636,183402,7365,112314
1201895.529027,21405.364,183434,7400,112352
1201895.538754,21415.091,183377,7364,112316
1201895.548481,21424.818,183418,7387,112339
1201895.558208,21434.545,183405,7359,112310
1201895.567936,21444.273,183444,7377,112352
1201895.577663,21454.000,183404,7392,112306
1201895.588263,21464.600,183426,7362,112340
1201895.598863,21475.200,183408,7416,112315
1201895.609463,21485.800,183432,7406,112364
1201895.620063,21496.400,183419,7403,112313
1201895.630663,21507.000,183401,7365,112333
1201895.641262,21517.600,183421,7397,112328
1201895.651862,21528.200,183442,7401,112351
1201895.662462,21538.800,183393,7378,112328
1201895.673062,21549.400,183372,7368,112327
1201895.683662,21560.000,183400,7383,112336
1201895.694107,21570.444,183369,7384,112349
1201895.704551,21580.889,183377,7394,112312
1201895.714995,21591.333,183371,7357,112310
1201895.72544,21601.778,183368,7364,112323
1201895.735884,21612.222,183361,7389,112328
1201895.746329,21622.667,183325,7372,112291
1201895.756773,21633.111,183327,7362,112332
1201895.767217,21643.556,183352,7351,112323
1201895.777662,21654.000,183359,7356,112318
1201895.787298,21663.636,183328,7342,112298
1201895.796934,21673.273,183334,7324,112302
1201895.806571,21682.909,183352,7349,112316
1201895.816207,21692.545,183366,7350,112341
1201895.825843,21702.182,183350,7378,112318
1201895.83548,21711.818,183349,7339,112326
1201895.845116,21721.455,183344,7336,112328
1201895.854752,21731.091,183350,7343,112343
1201895.864389,21740.727,183369,7367,112343
1201895.874025,21750.364,183292,7338,112262
1201895.883661,21760.000,183322,7342,112306
1201895.894106,21770.444,183332,7328,112275
1201895.90455,21780.889,183306,7355,112288
1201895.914994,21791.333,183331,7321,112316
1201895.925439,21801.778,183349,7346,112316
1201895.935883,21812.222,183384,7363,112318
1201895.946328,21822.667,183361,7362,112316
1201895.956772,21833.111,183327,7319,112308
1201895.967216,21843.556,183355,7343,112327
1201895.977661,21854.000,183363,7333,112326
1201895.987388,21863.727,183379,7371,112352
1201895.997115,21873.455,183327,7328,112324
1201896.006842,21883.182,183327,7323,112332
1201896.01657,21892.909,183310,7349,112355
1201896.026297,21902.636,183350,7358,112319
1201896.036024,21912.364,183352,7334,112325
1201896.045751,21922.091,183368,7363,112341
1201896.055478,21931.818,183362,7346,112360
1201896.065206,21941.545,183386,7370,112367
1201896.074933,21951.273,183376,7326,112325
1201896.08466,21961.000,183375,7336,112348
1201896.09526,21971.600,183388,7361,112360
1201896.10586,21982.200,183371,7351,112344
1201896.11646,21992.800,183380,7345,112344
1201896.12706,22003.400,183388,7339,112361
1201896.13766,22014.000,183419,7367,112366
1201896.14826,22024.600,183389,7363,112351
1201896.15886,22035.200,183372,7335,112334
1201896.16946,22045.800,183403,7371,112386
1201896.18006,22056.400,183413,7354,112376
1201896.19066,22067.000,183441,7363,112379
1201896.19996,22076.300,183413,7355,112334
1201896.20926,22085.600,183419,7360,112376
1201896.218559,22094.900,183436,7362,112381
1201896.227859,22104.200,183418,7377,112378
1201896.237159,22113.500,183434,7369,112388
1201896.246459,22122.800,183443,7370,112420
1201896.255759,22132.100,183451,7370,112394
1201896.265059,22141.400,183427,7370,112402
1201896.274359,22150.700,183423,7364,112361
1201896.283659,22160.000,183426,7393,112391
1201896.294359,22170.700,183473,7394,112406
1201896.305059,22181.400,183468,7429,112417
1201896.315759,22192.100,183456,7382,112386
1201896.326459,22202.800,183446,7375,112410
1201896.337159,22213.500,183483,7400,112423
1201896.347859,22224.200,183480,7392,112411
1201896.358559,22234.900,183483,7399,112405
1201896.369259,22245.600,183485,7397,112402
1201896.379959,22256.300,183510,7413,112435
1201896.390659,22267.000,183515,7432,112453
1201896.400386,22276.727,183482,7414,112385
1201896.410113,22286.455,183485,7418,112424
1201896.41984,22296.182,183494,7418,112419
1201896.429567,22305.909,183512,7414,112421
1201896.439295,22315.636,183495,7413,112401
1201896.449022,22325.364,183508,7404,112463
1201896.458749,22335.091,183499,7434,112432
1201896.468476,22344.818,183498,7415,112452
1201896.478204,22354.545,183445,7387,112416
1201896.487931,22364.273,183456,7390,112439
1201896.497658,22374.000,183496,7419,112443
1201896.507991,22384.333,183482,7420,112428
1201896.518325,22394.667,183477,7412,112429
1201896.528658,22405.000,183461,7405,112418
1201896.538991,22415.333,183470,7418,112397
1201896.549324,22425.667,183457,7415,112424
1201896.559658,22436.000,183439,7417,112421
1201896.569991,22446.333,183494,7419,112445
1201896.580324,22456.667,183433,7410,112442
1201896.590658,22467.000,183458,7427,112415
1201896.600385,22476.727,183483,7431,112387
1201896.610112,22486.455,183450,7426,112399
1201896.619839,22496.182,183434,7452,112412
1201896.629566,22505.909,183439,7419,112415
1201896.639294,22515.636,183426,7446,112443
1201896.649021,22525.364,183467,7463,112458
1201896.658748,22535.091,183476,7476,112423
1201896.668475,22544.818,183444,7464,112400
1201896.678203,22554.545,183456,7459,112398
1201896.68793,22564.273,183421,7413,112390
1201896.697657,22574.000,183429,7459,112416
1201896.708257,22584.600,183454,7460,112420
1201896.718857,22595.200,183449,7484,112425
1201896.729457,22605.800,183453,7453,112418
1201896.740057,22616.400,183483,7477,112437
1201896.750657,22627.000,183487,7468,112434
1201896.761257,22637.600,183455,7464,112446
1201896.771857,22648.200,183476,7451,112450
1201896.782457,22658.800,183497,7494,112461
1201896.793056,22669.400,183465,7472,112449
1201896.803656,22680.000,183436,7473,112475
1201896.81399,22690.333,183456,7467,112430
1201896.824323,22700.667,183452,7492,112447
1201896.834656,22711.000,183465,7487,112442
1201896.84499,22721.333,183456,7472,112432
1201896.855323,22731.667,183458,7487,112413
1201896.865656,22742.000,183468,7485,112471
1201896.875989,22752.333,183449,7520,112446
1201896.886323,22762.667,183409,7517,112419
1201896.896656,22773.000,183398,7487,112428
1201896.906383,22782.727,183415,7520,112488
1201896.91611,22792.455,183407,7532,112440
1201896.925838,22802.182,183387,7533,112453
1201896.935565,22811.909,183343,7504,112460
1201896.945292,22821.636,183363,7539,112453
1201896.955019,22831.364,183265,7521,112442
1201896.964746,22841.091,183280,7549,112452
1201896.974474,22850.818,183215,7550,112456
1201896.984201,22860.545,183193,7541,112444
1201896.993928,22870.273,183142,7570,112469
1201897.003655,22880.000,183149,7576,112442
1201897.0141,22890.444,183091,7569,112420
1201897.024544,22900.889,183054,7578,112417
1201897.034989,22911.333,183019,7601,112417
1201897.045433,22921.778,183004,7598,112432
1201897.055877,22932.222,182968,7604,112421
1201897.066322,22942.667,182955,7639,112447
1201897.076766,22953.111,182946,7668,112464
1201897.08721,22963.556,182897,7614,112408
1201897.097655,22974.000,182856,7617,112391
1201897.107291,22983.636,182870,7632,112425
1201897.116928,22993.273,182812,7648,112392
1201897.126564,23002.909,182812,7644,112406
1201897.1362,23012.545,182752,7653,112398
1201897.145836,23022.182,182782,7679,112425
1201897.155473,23031.818,182712,7663,112360
1201897.165109,23041.455,182693,7669,112393
1201897.174745,23051.091,182660,7656,112362
1201897.184382,23060.727,182602,7675,112349
1201897.194018,23070.364,182603,7665,112350
1201897.203654,23080.000,182604,7705,112366
1201897.213988,23090.333,182541,7668,112346
1201897.224321,23100.667,182531,7652,112336
1201897.234654,23111.000,182528,7662,112331
1201897.244987,23121.333,182555,7684,112348
1201897.255321,23131.667,182523,7674,112333
1201897.265654,23142.000,182542,7696,112345
1201897.275987,23152.333,182507,7683,112342
1201897.286321,23162.667,182503,7708,112349
1201897.296654,23173.000,182489,7692,112352
1201897.306381,23182.727,182440,7691,112321
1201897.316108,23192.455,182441,7703,112374
1201897.325836,23202.182,182467,7730,112337
1201897.335563,23211.909,182467,7721,112368
1201897.34529,23221.636,182454,7709,112350
1201897.355017,23231.364,182409,7726,112327
1201897.364744,23241.091,182420,7708,112332
1201897.374472,23250.818,182419,7713,112329
1201897.384199,23260.545,182393,7740,112309
1201897.393926,23270.273,182427,7721,112339
1201897.403653,23280.000,182415,7715,112333
1201897.414353,23290.700,182408,7735,112333
1201897.425053,23301.400,182376,7715,112323
1201897.435753,23312.100,182382,7731,112303
1201897.446453,23322.800,182369,7716,112325
1201897.457153,23333.500,182381,7736,112327
1201897.467853,23344.200,182374,7763,112314
1201897.478553,23354.900,182325,7736,112277
1201897.489253,23365.600,182313,7760,112317
1201897.499953,23376.300,182320,7746,112320
1201897.510653,23387.000,182285,7741,112285
1201897.519953,23396.300,182299,7743,112291
1201897.529253,23405.600,182317,7780,112278
1201897.538553,23414.900,182280,7746,112297
1201897.547853,23424.200,182298,7773,112318
1201897.557153,23433.500,182221,7735,112289
1201897.566452,23442.800,182259,7761,112313
1201897.575752,23452.100,182237,7765,112295
1201897.585052,23461.400,182244,7740,112301
1201897.594352,23470.700,182232,7731,112302
1201897.603652,23480.000,182217,7774,112294
1201897.614352,23490.700,182216,7770,112286
1201897.625052,23501.400,182184,7761,112283
1201897.635752,23512.100,182182,7764,112265
1201897.646452,23522.800,182180,7805,112307
1201897.657152,23533.500,182192,7786,112292
1201897.667852,23544.200,182160,7783,112287
1201897.678552,23554.900,182171,7788,112278
1201897.689252,23565.600,182191,7801,112284
1201897.699952,23576.300,182165,7782,112303
1201897.710652,23587.000,182152,7807,112277
1201897.720985,23597.333,182171,7795,112311
1201897.731318,23607.667,182187,7820,112327
1201897.741652,23618.000,182137,7790,112317
1201897.751985,23628.333,182163,7812,112310
1201897.762318,23638.667,182120,7788,112302
1201897.772651,23649.000,182163,7809,112336
1201897.782985,23659.333,182169,7828,112328
1201897.793318,23669.667,182166,7822,112354
1201897.803651,23680.000,182131,7824,112363
1201897.813378,23689.727,182163,7853,112359
1201897.823106,23699.455,182134,7819,112346
1201897.832833,23709.182,182150,7832,112361
1201897.84256,23718.909,182151,7856,112374
1201897.852287,23728.636,182168,7848,112344
1201897.862015,23738.364,182159,7856,112377
1201897.871742,23748.091,182160,7859,112370
1201897.881469,23757.818,182164,7857,112366
1201897.891196,23767.545,182171,7859,112373
1201897.900923,23777.273,182115,7814,112362
1201897.910651,23787.000,182157,7841,112379
1201897.920378,23796.727,182131,7831,112369
1201897.930105,23806.455,182176,7870,112400
1201897.939832,23816.182,182159,7825,112364
1201897.94956,23825.909,182176,7847,112387
1201897.959287,23835.636,182157,7862,112433
1201897.969014,23845.364,182154,7819,112395
1201897.978741,23855.091,182194,7837,112416
1201897.988468,23864.818,182220,7860,112435
1201897.998196,23874.545,182243,7885,112445
1201898.007923,23884.273,182268,7862,112463
1201898.01765,23894.000,182247,7842,112479
1201898.027983,23904.333,182293,7872,112513
1201898.038317,23914.667,182314,7868,112511
1201898.04865,23925.000,182345,7894,112544
1201898.058983,23935.333,182342,7873,112551
1201898.069317,23945.667,182346,7881,112564
1201898.07965,23956.000,182352,7872,112585
1201898.089983,23966.333,182335,7895,112588
1201898.100316,23976.667,182299,7868,112553
1201898.11065,23987.000,182302,7875,112587
1201898.12125,23997.600,182254,7879,112599
1201898.13185,24008.200,182281,7903,112577
1201898.142449,24018.800,182228,7866,112587
1201898.153049,24029.400,182180,7877,112572
1201898.163649,24040.000,182151,7871,112532
1201898.174249,24050.600,182141,7876,112538
1201898.184849,24061.200,182109,7857,112558
1201898.195449,24071.800,182141,7874,112555
1201898.206049,24082.400,182130,7898,112562
1201898.216649,24093.000,182137,7890,112562
1201898.226376,24102.727,182085,7856,112530
1201898.236104,24112.455,182114,7872,112568
1201898.245831,24122.182,182098,7894,112526
1201898.255558,24131.909,182056,7897,112541
1201898.265285,24141.636,182031,7900,112532
1201898.275012,24151.364,181970,7882,112519
1201898.28474,24161.091,181987,7883,112472
1201898.294467,24170.818,181935,7902,112451
1201898.304194,24180.545,181963,7903,112446
1201898.313921,24190.273,181986,7895,112446
1201898.323649,24200.000,181983,7897,112463
1201898.333982,24210.333,182017,7917,112497
1201898.344315,24220.667,181976,7873,112437
1201898.354648,24231.000,182007,7904,112485
1201898.364982,24241.333,182005,7913,112483
1201898.375315,24251.667,182002,7882,112472
1201898.385648,24262.000,182009,7896,112470
1201898.395981,24272.333,182029,7890,112497
1201898.406315,24282.667,182042,7906,112515
1201898.416648,24293.000,182032,7928,112504
1201898.426375,24302.727,182012,7888,112457
1201898.436102,24312.455,182015,7909,112496
1201898.44583,24322.182,182047,7904,112492
1201898.455557,24331.909,182027,7901,112485
1201898.465284,24341.636,182027,7899,112483
1201898.475011,24351.364,182063,7929,112485
1201898.484739,24361.091,182047,7918,112498
1201898.494466,24370.818,182021,7923,112508
1201898.504193,24380.545,182024,7894,112474
1201898.51392,24390.273,182053,7936,112515
1201898.523647,24400.000,182044,7921,112494
1201898.533981,24410.333,182029,7922,112498
1201898.544314,24420.667,182002,7899,112473
1201898.554647,24431.000,182036,7893,112504
1201898.564981,24441.333,182044,7888,112493
1201898.575314,24451.667,182010,7926,112490
1201898.585647,24462.000,182018,7909,112484
1201898.59598,24472.333,182032,7936,112515
1201898.606314,24482.667,182043,7925,112489
1201898.616647,24493.000,182036,7918,112507
1201898.626374,24502.727,182003,7914,112482
1201898.636101,24512.455,182026,7914,112471
1201898.645829,24522.182,182002,7935,112487
1201898.655556,24531.909,182029,7919,112500
1201898.665283,24541.636,181995,7921,112487
1201898.67501,24551.364,182042,7936,112508
1201898.684738,24561.091,182025,7940,112500
1201898.694465,24570.818,182017,7927,112494
1201898.704192,24580.545,181991,7900,112493
1201898.713919,24590.273,182027,7897,112505
1201898.723646,24600.000,182014,7949,112510
1201898.73398,24610.333,181985,,
1201898.734346,24610.700,,7927,112495
1201898.744313,24620.667,181958,,
1201898.745046,24621.400,,7903,112474
1201898.754646,24631.000,181987,,
1201898.755746,24632.100,,7953,112499
1201898.76498,24641.333,181942,,
1201898.766446,24642.800,,7947,112461
1201898.775313,24651.667,181952,,
1201898.777146,24653.500,,7925,112482
1201898.785646,24662.000,181958,,
1201898.787846,24664.200,,7893,112462
1201898.795979,24672.333,181949,,
1201898.798546,24674.900,,7929,112466
1201898.806313,24682.667,181950,,
1201898.809246,24685.600,,7947,112463
1201898.816646,24693.000,181934,,
1201898.819946,24696.300,,7936,112464
1201898.826373,24702.727,181933,,
1201898.830646,24707.000,,7948,112442
1201898.8361,24712.455,181928,,
1201898.839946,24716.300,,7919,112456
1201898.845828,24722.182,181940,,
1201898.849246,24725.600,,7940,112500
1201898.855555,24731.909,181927,,
1201898.858546,24734.900,,7919,112470
1201898.865282,24741.636,181894,,
1201898.867846,24744.200,,7916,112449
1201898.875009,24751.364,181902,,
1201898.877146,24753.500,,7933,112495
1201898.884737,24761.091,181872,,
1201898.886446,24762.800,,7945,112430
1201898.894464,24770.818,181892,,
1201898.895746,24772.100,,7925,112453
1201898.904191,24780.545,181872,,
1201898.905045,24781.400,,7905,112435
1201898.913918,24790.273,181878,,
1201898.914345,24790.700,,7941,112439
1201898.923645,24800.000,181875,7968,112449
1201898.934345,24810.700,181844,7943,112414
1201898.945045,24821.400,181836,7907,112428
1201898.955745,24832.100,181858,7925,112417
1201898.966445,24842.800,181820,7924,112421
1201898.977145,24853.500,181851,7908,112434
1201898.987845,24864.200,181819,7939,112414
1201898.998545,24874.900,181838,7939,112448
1201899.009245,24885.600,181849,7954,112427
1201899.019945,24896.300,181782,7916,112416
1201899.030645,24907.000,181820,7927,112403
1201899.040978,24917.333,181803,7895,112408
1201899.051311,24927.667,181837,7955,112429
1201899.061645,24938.000,181781,7916,112398
1201899.071978,24948.333,181761,7908,112415
1201899.082311,24958.667,181757,7930,112373
1201899.092645,24969.000,181784,7961,112411
1201899.102978,24979.333,181749,7936,112411
1201899.113311,24989.667,181767,7937,112402
1201899.123644,25000.000,181736,7950,112402
1201899.133372,25009.727,181758,7939,112416
1201899.143099,25019.455,181717,7932,112405
1201899.152826,25029.182,181746,7941,112392
1201899.162553,25038.909,181757,7956,112391
1201899.17228,25048.636,181741,7969,112400
1201899.182008,25058.364,181718,7943,112351
1201899.191735,25068.091,181717,7937,112385
1201899.201462,25077.818,181734,7970,112411
1201899.211189,25087.545,181705,7966,112396
1201899.220917,25097.273,181670,7935,112356
1201899.230644,25107.000,181698,7946,112370
1201899.24028,25116.636,181670,7940,112401
1201899.249916,25126.273,181692,7934,112373
1201899.259553,25135.909,181672,7928,112377
1201899.269189,25145.545,181668,7950,112382
1201899.278825,25155.182,181673,7969,112367
1201899.288462,25164.818,181647,7959,112386
1201899.298098,25174.455,181631,7929,112368
1201899.307734,25184.091,181670,7957,112377
1201899.317371,25193.727,181649,7940,112368
1201899.327007,25203.364,181643,7951,112369
1201899.336643,25213.000,181613,7936,112343
1201899.347088,25223.444,181636,7954,112357
1201899.357532,25233.889,181639,7951,112361
1201899.367976,25244.333,181626,7940,112346
1201899.378421,25254.778,181602,7940,112344
1201899.388865,25265.222,181601,7958,112348
1201899.39931,25275.667,181586,7945,112374
1201899.409754,25286.111,181607,7996,112346
1201899.420198,25296.556,181575,7961,112316
1201899.430643,25307.000,181582,7961,112341
1201899.440279,25316.636,181566,7960,112310
1201899.449915,25326.273,181552,7990,112333
1201899.459552,25335.909,181515,7963,112320
1201899.469188,25345.545,181541,7960,112319
1201899.478824,25355.182,181531,7976,112327
1201899.488461,25364.818,181521,7964,112296
1201899.498097,25374.455,181518,7962,112271
1201899.507733,25384.091,181534,7963,112320
1201899.51737,25393.727,181534,7963,112320
1201899.527006,25403.364,181529,7976,112317
1201899.536642,25413.000,181527,7979,112320
1201899.546042,25422.400,181469,7981,112305
1201899.555442,25431.800,181464,7969,112300
1201899.564842,25441.200,181497,7982,112297
1201899.574242,25450.600,181517,7959,112308
1201899.583642,25460.000,181489,7962,112313
1201899.593042,25469.400,181503,7973,112285
1201899.602442,25478.800,181504,7969,112323
1201899.611842,25488.200,181482,7995,112309
1201899.621242,25497.600,181448,7979,112284
1201899.630642,25507.000,181465,7991,112291
1201899.641242,25517.600,181466,7993,112304
1201899.651842,25528.200,181473,7990,112327
1201899.662442,25538.800,181433,7985,112266
1201899.673042,25549.400,181460,7970,112285
1201899.683641,25560.000,181437,7998,112287
1201899.694241,25570.600,181440,8018,112281
1201899.704841,25581.200,181427,7991,112266
1201899.715441,25591.800,181395,7975,112273
1201899.726041,25602.400,181428,8001,112282
1201899.736641,25613.000,181385,8038,112258
1201899.746368,25622.727,181400,7994,112259
1201899.756096,25632.455,181384,7980,112256
1201899.765823,25642.182,181403,8003,112278
1201899.77555,25651.909,181370,7990,112272
1201899.785277,25661.636,181410,7993,112246
1201899.795005,25671.364,181379,8018,112295
1201899.804732,25681.091,181376,8004,112272
1201899.814459,25690.818,181381,8001,112253
1201899.824186,25700.545,181358,8006,112262
1201899.833913,25710.273,181357,7991,112261
1201899.843641,25720.000,181345,8009,112244
1201899.853974,25730.333,181329,8006,112259
1201899.864307,25740.667,181323,8017,112247
1201899.87464,25751.000,181284,8008,112265
1201899.884974,25761.333,181300,7991,112252
1201899.895307,25771.667,181319,7999,112230
1201899.90564,25782.000,181299,8007,112216
1201899.915974,25792.333,181292,8001,112225
1201899.926307,25802.667,181335,8020,112286
1201899.93664,25813.000,181315,8013,112239
1201899.946367,25822.727,181288,8031,112238
1201899.956095,25832.455,181280,8010,112232
1201899.965822,25842.182,181290,8020,112225
1201899.975549,25851.909,181282,8005,112235
1201899.985276,25861.636,181246,8002,112203
1201899.995003,25871.364,181287,8024,112239
1201900.004731,25881.091,181254,8019,112217
1201900.014458,25890.818,181245,8013,112216
1201900.024185,25900.545,181273,8003,112246
1201900.033912,25910.273,181216,7988,112213
1201900.04364,25920.000,181249,8042,112246
1201900.053973,25930.333,181230,8025,112204
1201900.064306,25940.667,181194,8016,112233
1201900.074639,25951.000,181236,8011,112213
1201900.084973,25961.333,181228,8027,112232
1201900.095306,25971.667,181199,8019,112209
1201900.105639,25982.000,181181,8043,112200
1201900.115973,25992.333,181188,8036,112219
1201900.126306,26002.667,181206,8045,112222
1201900.136639,26013.000,181193,8057,112220
1201900.146366,26022.727,181159,8039,112194
1201900.156094,26032.455,181144,8034,112178
1201900.165821,26042.182,181186,8058,112210
1201900.175548,26051.909,181168,8027,112195
1201900.185275,26061.636,181152,8027,112167
1201900.195002,26071.364,181117,8022,112187
1201900.20473,26081.091,181153,8025,112186
1201900.214457,26090.818,181147,8026,112190
1201900.224184,26100.545,181124,8024,112209
1201900.233911,26110.273,181113,8017,112176
1201900.243639,26120.000,181116,8043,112170
1201900.254238,26130.600,181143,,112187
1201900.254338,26130.700,,8020,
1201900.264838,26141.200,181084,,112135
1201900.265038,26141.400,,8051,
1201900.275438,26151.800,181121,,112195
1201900.275738,26152.100,,8051,
1201900.286038,26162.400,181102,,112148
1201900.286438,26162.800,,8022,
1201900.296638,26173.000,181076,,112178
1201900.297138,26173.500,,8038,
1201900.307238,26183.600,181105,,112172
1201900.307838,26184.200,,8050,
1201900.317838,26194.200,181105,,112197
1201900.318538,26194.900,,8027,
1201900.328438,26204.800,181105,,112183
1201900.329238,26205.600,,8035,
1201900.339038,26215.400,181100,,112195
1201900.339938,26216.300,,8046,
1201900.349638,26226.000,181080,,112161
1201900.350638,26227.000,,8040,
1201900.360082,26236.444,181069,,112171
1201900.360971,26237.333,,8077,
1201900.370527,26246.889,181067,,112167
1201900.371305,26247.667,,8081,
1201900.380971,26257.333,181045,,112145
1201900.381638,26258.000,,8060,
1201900.391416,26267.778,181042,,112152
1201900.391971,26268.333,,8060,
1201900.40186,26278.222,181002,,112131
1201900.402304,26278.667,,8040,
1201900.412304,26288.667,181014,,112176
1201900.412638,26289.000,,8059,
1201900.422749,26299.111,181038,,112166
1201900.422971,26299.333,,8063,
1201900.433193,26309.556,181014,,112152
1201900.433304,26309.667,,8052,
1201900.443637,26320.000,180985,8067,112163
1201900.453274,26329.636,181013,8068,112174
1201900.46291,26339.273,181007,8052,112155
1201900.472546,26348.909,180985,8051,112139
1201900.482183,26358.545,181002,8047,112164
1201900.491819,26368.182,180951,8036,112123
1201900.501455,26377.818,180956,8029,112101
1201900.511092,26387.455,180957,8044,112132
1201900.520728,26397.091,180944,8052,112125
1201900.530364,26406.727,180950,8070,112117
1201900.540001,26416.364,180961,8061,112170
1201900.549637,26426.000,180938,8057,112117
1201900.560081,26436.444,180956,8085,112134
1201900.570526,26446.889,180936,8069,112097
1201900.58097,26457.333,180904,8050,112108
1201900.591415,26467.778,180947,8038,112122
1201900.601859,26478.222,180908,8066,112115
1201900.612303,26488.667,180909,8032,112084
1201900.622748,26499.111,180924,8050,112097
1201900.633192,26509.556,180929,8069,112118
1201900.643636,26520.000,180925,8072,112119
1201900.653364,26529.727,180891,8047,112104
1201900.663091,26539.455,180918,8036,112124
1201900.672818,26549.182,180917,8106,112087
1201900.682545,26558.909,180885,8051,112118
1201900.692273,26568.636,180911,8086,112117
1201900.702,26578.364,180899,8071,112090
1201900.711727,26588.091,180888,8055,112108
1201900.721454,26597.818,180884,8066,112074
1201900.731181,26607.545,180901,8071,112107
1201900.740909,26617.273,180887,8085,112078
1201900.750636,26627.000,180914,8076,112113
1201900.761236,26637.600,180879,8076,112095
1201900.771836,26648.200,180879,8085,112110
1201900.782436,26658.800,180868,8078,112091
1201900.793036,26669.400,180855,8063,112070
1201900.803636,26680.000,180880,8096,112070
1201900.814236,26690.600,180869,8062,112052
1201900.824836,26701.200,180828,8074,112071
1201900.835435,26711.800,180878,8097,112104
1201900.846035,26722.400,180860,8075,112090
1201900.856635,26733.000,180835,8071,112087
1201900.866035,26742.400,180825,8083,112095
1201900.875435,26751.800,180883,8103,112084
1201900.884835,26761.200,180857,8078,112082
1201900.894235,26770.600,180880,8084,112087
1201900.903635,26780.000,180827,8057,112055
1201900.913035,26789.400,180865,8101,112081
1201900.922435,26798.800,180818,8077,112065
1201900.931835,26808.200,180849,8112,112099
1201900.941235,26817.600,180828,8075,112053
1201900.950635,26827.000,180835,8111,112063
1201900.961235,26837.600,180812,8079,112041
1201900.971835,26848.200,180813,8062,112033
1201900.982435,26858.800,180786,8088,112029
1201900.993035,26869.400,180835,8098,112061
1201901.003635,26880.000,180826,8082,112037
1201901.014235,26890.600,180822,8086,112034
1201901.024834,26901.200,180823,8104,112046
1201901.035434,26911.800,180838,8108,112037
1201901.046034,26922.400,180820,8084,112049
1201901.056634,26933.000,180806,8081,112008
1201901.066362,26942.727,180830,8081,112026
1201901.076089,26952.455,180837,8091,112042
1201901.085816,26962.182,180798,8087,112020
1201901.095543,26971.909,180812,8078,112035
1201901.10527,26981.636,180831,8068,112027
1201901.114998,26991.364,180802,8070,112014
1201901.124725,27001.091,180773,8060,112028
1201901.134452,27010.818,180801,8074,112006
1201901.144179,27020.545,180805,8056,112045
1201901.153907,27030.273,180810,8103,112029
1201901.163634,27040.000,180763,8089,111979
1201901.173967,27050.333,180787,8075,112005
1201901.1843,27060.667,180787,8088,112010
1201901.194634,27071.000,180817,8107,112025
1201901.204967,27081.333,180828,8087,112014
1201901.2153,27091.667,180790,8086,112014
1201901.225633,27102.000,180761,8095,111983
1201901.235967,27112.333,180820,8097,112042
1201901.2463,27122.667,180774,8061,112008
1201901.256633,27133.000,180797,8077,112018
1201901.26636,27142.727,180808,8086,112007
1201901.276088,27152.455,180793,8088,112017
1201901.285815,27162.182,180810,8119,112039
1201901.295542,27171.909,180780,8081,112013
1201901.305269,27181.636,180793,8079,112036
1201901.314997,27191.364,180812,8097,112028
1201901.324724,27201.091,180807,8096,112001
1201901.334451,27210.818,180770,8106,112014
1201901.344178,27220.545,180747,8079,112008
1201901.353905,27230.273,180794,8110,112018
1201901.363633,27240.000,180755,8101,111986
1201901.373966,27250.333,180786,8093,112009
1201901.384299,27260.667,180769,8083,111980
1201901.394633,27271.000,180808,8116,112041
1201901.404966,27281.333,180809,8124,112028
1201901.415299,27291.667,180791,8092,112025
1201901.425632,27302.000,180805,8084,112015
1201901.435966,27312.333,180818,8109,112012
1201901.446299,27322.667,180772,8090,112029
1201901.456632,27333.000,180806,8093,112033
1201901.467332,27343.700,180828,8091,112007
1201901.478032,27354.400,180807,8121,112026
1201901.488732,27365.100,180761,8109,112003
1201901.499432,27375.800,180808,8102,112013
1201901.510132,27386.500,180773,8097,112022
1201901.520832,27397.200,180812,8128,112027
1201901.531532,27407.900,180804,8087,112029
1201901.542232,27418.600,180810,8090,112021
1201901.552932,27429.300,180778,8102,111986
1201901.563632,27440.000,180826,8116,112039
1201901.573268,27449.636,180793,8084,112017
1201901.582904,27459.273,180802,8101,112028
1201901.592541,27468.909,180824,8100,112028
1201901.602177,27478.545,180821,8107,112031
1201901.611813,27488.182,180790,8080,112002
1201901.62145,27497.818,180797,8096,112029
1201901.631086,27507.455,180801,8107,112021
1201901.640722,27517.091,180821,8132,112049
1201901.650358,27526.727,180807,8112,112012
1201901.659995,27536.364,180790,8090,112033
1201901.669631,27546.000,180824,8106,112019
1201901.680076,27556.444,180842,8117,112028
1201901.69052,27566.889,180812,8100,112009
1201901.700964,27577.333,180794,8105,112003
1201901.711409,27587.778,180798,8098,112033
1201901.721853,27598.222,180779,8134,112034
1201901.732297,27608.667,180798,8093,112024
1201901.742742,27619.111,180761,8107,112009
1201901.753186,27629.556,180779,8103,112022
1201901.763631,27640.000,180783,8109,112043
1201901.773267,27649.636,180755,8098,112026
1201901.782903,27659.273,180767,8070,112031
1201901.79254,27668.909,180768,8105,112024
1201901.802176,27678.545,180773,8107,112041
1201901.811812,27688.182,180743,8125,112003
1201901.821449,27697.818,180738,8100,112017
1201901.831085,27707.455,180758,8099,112010
1201901.840721,27717.091,180772,8124,112010
1201901.850357,27726.727,180783,8119,112000
1201901.859994,27736.364,180741,8079,111988
1201901.86963,27746.000,180769,8101,112019
1201901.88033,27756.700,180787,8118,112035
1201901.89103,27767.400,180763,8133,112026
1201901.90173,27778.100,180764,8103,112034
1201901.91243,27788.800,180760,8099,112023
1201901.92313,27799.500,180775,8104,112030
1201901.93383,27810.200,180759,8110,112021
1201901.94453,27820.900,180752,8075,112015
1201901.95523,27831.600,180753,8094,112024
1201901.96593,27842.300,180741,8117,112014
1201901.97663,27853.000,180770,8126,112033
1201901.985929,27862.300,180738,8096,112009
1201901.995229,27871.600,180754,8120,112011
1201902.004529,27880.900,180730,8125,112023
1201902.013829,27890.200,180739,8122,112004
1201902.023129,27899.500,180738,8075,111983
1201902.032429,27908.800,180780,8110,112035
1201902.041729,27918.100,180746,8108,112029
1201902.051029,27927.400,180760,8140,112028
1201902.060329,27936.700,180720,8092,111993
1201902.069629,27946.000,180728,8104,112030
1201902.080329,27956.700,180751,8120,112022
1201902.091029,27967.400,180765,8138,112018
1201902.101729,27978.100,180735,8105,112004
1201902.112429,27988.800,180741,8135,112028
1201902.123129,27999.500,180735,8124,112024
1201902.133829,28010.200,180732,8161,112012
1201902.144529,28020.900,180677,8105,112007
1201902.155229,28031.600,180733,8137,112013
1201902.165929,28042.300,180706,8110,112019
1201902.176628,28053.000,180714,8122,112032
1201902.186356,28062.727,180695,8088,112002
1201902.196083,28072.455,180735,8095,112013
1201902.20581,28082.182,180725,8123,112016
1201902.215537,28091.909,180696,8101,112020
1201902.225265,28101.636,180736,8137,112045
1201902.234992,28111.364,180710,8142,112039
1201902.244719,28121.091,180732,8114,112022
1201902.254446,28130.818,180749,8144,112017
1201902.264173,28140.545,180708,8109,111966
1201902.273901,28150.273,180753,8144,112054
1201902.283628,28160.000,180716,8120,112004
1201902.293961,28170.333,180742,8114,112024
1201902.304294,28180.667,180713,8144,111995
1201902.314628,28191.000,180733,8111,112031
1201902.324961,28201.333,180736,8121,112005
1201902.335294,28211.667,180762,8127,111993
1201902.345628,28222.000,180696,8091,112005
1201902.355961,28232.333,180749,8125,112046
1201902.366294,28242.667,180717,8129,112013
1201902.376627,28253.000,180728,8120,112026
1201902.386355,28262.727,180692,8134,112014
1201902.396082,28272.455,180686,8110,112004
1201902.405809,28282.182,180704,8118,112010
1201902.415536,28291.909,180688,8119,111995
1201902.425264,28301.636,180691,8131,111991
1201902.434991,28311.364,180710,8115,112005
1201902.444718,28321.091,180688,8144,112007
1201902.454445,28330.818,180691,8122,112002
1201902.464172,28340.545,180690,8138,112019
1201902.4739,28350.273,180682,8102,112003
1201902.483627,28360.000,180709,8131,112020
1201902.494227,28370.600,180703,8110,112007
1201902.504827,28381.200,180721,8121,111991
1201902.515427,28391.800,180706,8105,112014
1201902.526027,28402.400,180697,8132,112013
1201902.536627,28413.000,180686,8112,112002
1201902.547227,28423.600,180647,8101,112004
1201902.557827,28434.200,180688,8137,111989
1201902.568426,28444.800,180719,8134,111999
1201902.579026,28455.400,180684,8111,111998
1201902.589626,28466.000,180660,8112,111985
1201902.599026,28475.400,180667,8096,111974
1201902.608426,28484.800,180710,8093,112013
1201902.617826,28494.200,180687,8120,112002
1201902.627226,28503.600,180696,8135,111990
1201902.636626,28513.000,180709,8137,112018
1201902.646026,28522.400,180674,8130,112013
1201902.655426,28531.800,180689,8109,111997
1201902.664826,28541.200,180707,8130,111968
1201902.674226,28550.600,180693,8094,111980
1201902.683626,28560.000,180691,8111,111971
1201902.694226,28570.600,180680,8115,111986
1201902.704826,28581.200,180728,8139,112014
1201902.715426,28591.800,180668,8113,112014
1201902.726026,28602.400,180722,8141,112008
1201902.736626,28613.000,180697,8113,111990
1201902.747226,28623.600,180687,8140,111975
1201902.757825,28634.200,180692,8117,111957
1201902.768425,28644.800,180728,8119,112015
1201902.779025,28655.400,180721,8105,111995
1201902.789625,28666.000,180689,8140,111979
1201902.80007,28676.444,180658,8093,111962
1201902.810514,28686.889,180690,8121,112008
1201902.820958,28697.333,180710,8100,111997
1201902.831403,28707.778,180728,8126,111999
1201902.841847,28718.222,180721,8117,111989
1201902.852292,28728.667,180736,8121,111972
1201902.862736,28739.111,180770,8130,111994
1201902.87318,28749.556,180743,8126,111990
1201902.883625,28760.000,180720,8125,111962
1201902.893261,28769.636,180755,8122,112004
1201902.902897,28779.273,180759,8148,112003
1201902.912534,28788.909,180751,8125,111991
1201902.92217,28798.545,180727,8110,111964
1201902.931806,28808.182,180760,8116,111996
1201902.941443,28817.818,180769,8149,112013
1201902.951079,28827.455,180765,8128,111981
1201902.960715,28837.091,180751,8109,111976
1201902.970352,28846.727,180808,8147,112001
1201902.979988,28856.364,180831,8141,112026
1201902.989624,28866.000,180821,8125,111996
1201903.000069,28876.444,180836,8138,111969
1201903.010513,28886.889,180802,8119,111964
1201903.020957,28897.333,180795,8135,112014
1201903.031402,28907.778,180819,8120,112007
1201903.041846,28918.222,180782,8092,112001
1201903.052291,28928.667,180810,8135,111993
1201903.062735,28939.111,180792,8132,112024
1201903.073179,28949.556,180811,8130,112033
1201903.083624,28960.000,180799,8098,112000
1201903.09326,28969.636,180784,8098,111996
1201903.102896,28979.273,180815,8140,112014
1201903.112533,28988.909,180805,8116,111991
1201903.122169,28998.545,180778,8103,111984
1201903.131805,29008.182,180773,8113,111997
1201903.141442,29017.818,180809,8128,111988
1201903.151078,29027.455,180810,8113,112000
1201903.160714,29037.091,180810,8113,112012
1201903.170351,29046.727,180828,8135,112017
1201903.179987,29056.364,180845,8098,112012
1201903.189623,29066.000,180793,8144,112004
1201903.200323,29076.700,180776,8131,112016
1201903.211023,29087.400,180792,8117,111998
1201903.221723,29098.100,180797,8136,111993
1201903.232423,29108.800,180791,8111,112003
1201903.243123,29119.500,180818,8128,112010
1201903.253823,29130.200,180853,8111,112053
1201903.264523,29140.900,180827,8127,112003
1201903.275223,29151.600,180816,8113,111998
1201903.285923,29162.300,180834,8124,112014
1201903.296623,29173.000,180819,8123,112018
1201903.305923,29182.300,180845,8123,112023
1201903.315223,29191.600,180805,8132,112037
1201903.324523,29200.900,180868,8135,112020
1201903.333822,29210.200,180826,8119,112000
1201903.343122,29219.500,180853,8140,112015
1201903.352422,29228.800,180870,8142,112026
1201903.361722,29238.100,180865,8125,112031
1201903.371022,29247.400,180882,8145,112034
1201903.380322,29256.700,180851,8139,112046
1201903.389622,29266.000,180905,8135,112043
1201903.400322,29276.700,180900,8125,112030
1201903.411022,29287.400,180878,8149,111989
1201903.421722,29298.100,180930,8127,112046
1201903.432422,29308.800,180925,8117,112064
1201903.443122,29319.500,180913,8132,112039
1201903.453822,29330.200,180871,8124,112037
1201903.464522,29340.900,180898,8153,112046
1201903.475222,29351.600,180889,8175,112083
1201903.485922,29362.300,180898,8138,112041
1201903.496622,29373.000,180883,8102,112023
1201903.506258,29382.636,180927,8155,112024
1201903.515894,29392.273,180917,8154,112002
1201903.525531,29401.909,180913,8142,112042
1201903.535167,29411.545,180897,8139,112020
1201903.544803,29421.182,180937,8147,112061
1201903.55444,29430.818,180895,8131,112042
1201903.564076,29440.455,180901,8135,112052
1201903.573712,29450.091,180900,8137,112028
1201903.583348,29459.727,180942,8131,112059
1201903.592985,29469.364,180912,8136,112058
1201903.602621,29479.000,180923,8165,112022
1201903.613065,29489.444,180889,8154,112026
1201903.62351,29499.889,180857,8161,112007
1201903.633954,29510.333,180910,8171,112023
1201903.644399,29520.778,180867,8132,112058
1201903.654843,29531.222,180898,8135,112019
1201903.665287,29541.667,180925,8157,112077
1201903.675732,29552.111,180914,8171,112056
1201903.686176,29562.556,180901,8159,112069
1201903.696621,29573.000,180892,8148,112048
1201903.706348,29582.727,180883,8139,112052
1201903.716075,29592.455,180855,8127,112042
1201903.725802,29602.182,180876,8130,112028
1201903.735529,29611.909,180835,8122,112021
1201903.745257,29621.636,180828,8105,112028
1201903.754984,29631.364,180856,8123,112024
1201903.764711,29641.091,180825,8116,112027
1201903.774438,29650.818,180851,8139,112039
1201903.784166,29660.545,180880,8150,112038
1201903.793893,29670.273,180824,8139,112058
1201903.80362,29680.000,180875,8156,112048
1201903.813953,29690.333,180864,8129,112034
1201903.824287,29700.667,180871,8128,112029
1201903.83462,29711.000,180833,8110,112013
1201903.844953,29721.333,180855,8135,112021
1201903.855286,29731.667,180853,8133,112043
1201903.86562,29742.000,180822,8131,112030
1201903.875953,29752.333,180881,8160,112061
1201903.886286,29762.667,180870,8165,112052
1201903.89662,29773.000,180842,8141,112036
1201903.906347,29782.727,180881,8151,112038
1201903.916074,29792.455,180874,8134,112062
1201903.925801,29802.182,180843,8123,112015
1201903.935528,29811.909,180849,8134,112023
1201903.945256,29821.636,180839,8152,112017
1201903.954983,29831.364,180837,8137,112009
1201903.96471,29841.091,180823,8131,112023
1201903.974437,29850.818,180849,8133,112043
1201903.984165,29860.545,180830,8121,112027
1201903.993892,29870.273,180845,8139,112045
1201904.003619,29880.000,180852,8120,112029
1201904.014219,29890.600,180844,8155,112028
1201904.024819,29901.200,180817,8138,112031
1201904.035419,29911.800,180863,8153,112046
1201904.046019,29922.400,180811,8139,112042
1201904.056619,29933.000,180812,8122,112021
1201904.067219,29943.600,180843,8135,112020
1201904.077819,29954.200,180862,8132,112040
1201904.088419,29964.800,180842,8143,112004
1201904.099018,29975.400,180874,8122,112054
1201904.109618,29986.000,180843,8141,112028
1201904.119952,29996.333,180825,8132,112055
1201904.130285,30006.667,180836,8146,112027
1201904.140618,30017.000,180839,8137,112017
1201904.150952,30027.333,180841,8141,112020
1201904.161285,30037.667,180820,8146,112000
1201904.171618,30048.000,180847,8107,112023
1201904.181951,30058.333,180836,8130,112000
1201904.192285,30068.667,180842,8134,112024
1201904.202618,30079.000,180813,8145,112033
1201904.212345,30088.727,180800,8122,112033
1201904.222072,30098.455,180848,8162,112065
1201904.2318,30108.182,180842,8151,112043
1201904.241527,30117.909,180826,8165,112071
1201904.251254,30127.636,180841,8141,112007
1201904.260981,30137.364,180871,8148,112046
1201904.270709,30147.091,180817,8139,112045
1201904.280436,30156.818,180816,8145,112009
1201904.290163,30166.545,180837,8140,112019
1201904.29989,30176.273,180846,8175,112064
1201904.309617,30186.000,180850,8146,112025
1201904.319345,30195.727,180835,8135,112032
1201904.329072,30205.455,180842,8132,112044
1201904.338799,30215.182,180843,8144,112031
1201904.348526,30224.909,180851,8156,112033
1201904.358254,30234.636,180858,8150,112023
1201904.367981,30244.364,180838,8147,112049
1201904.377708,30254.091,180868,8149,112047
1201904.387435,30263.818,180849,8147,112036
1201904.397162,30273.545,180823,8124,111997
1201904.40689,30283.273,180806,8129,112011
1201904.416617,30293.000,180869,8114,112056
1201904.42695,30303.333,180831,8132,112015
1201904.437283,30313.667,180835,8140,112017
1201904.447617,30324.000,180860,8160,112031
1201904.45795,30334.333,180852,8121,112021
1201904.468283,30344.667,180819,8114,112022
1201904.478617,30355.000,180870,8134,112002
1201904.48895,30365.333,180848,8116,112013
1201904.499283,30375.667,180869,8150,111988
1201904.509616,30386.000,180861,8150,112005
1201904.520316,30396.700,180860,8135,112024
1201904.531016,30407.400,180861,8148,112034
1201904.541716,30418.100,180830,8118,112009
1201904.552416,30428.800,180872,8151,112022
1201904.563116,30439.500,180862,8137,112014
1201904.573816,30450.200,180843,8114,111999
1201904.584516,30460.900,180891,8165,112039
1201904.595216,30471.600,180891,8165,112054
1201904.605916,30482.300,180865,8133,112031
1201904.616616,30493.000,180853,8127,111998
1201904.625916,30502.300,180845,8140,112039
1201904.635216,30511.600,180894,8156,112028
1201904.644516,30520.900,180872,8143,112030
1201904.653816,30530.200,180860,8121,112021
1201904.663116,30539.500,180867,8161,112019
1201904.672416,30548.800,180849,8148,112010
1201904.681715,30558.100,180875,8140,112035
1201904.691015,30567.400,180853,8148,112023
1201904.700315,30576.700,180886,8144,112039
1201904.709615,30586.000,180895,8156,112034
1201904.720315,30596.700,180872,8134,112040
1201904.731015,30607.400,180862,8114,112009
1201904.741715,30618.100,180892,8140,112052
1201904.752415,30628.800,180887,8127,112035
1201904.763115,30639.500,180872,8141,112036
1201904.773815,30650.200,180893,8126,112029
1201904.784515,30660.900,180887,8127,112035
1201904.795215,30671.600,180897,8169,112055
1201904.805915,30682.300,180861,8133,112013
1201904.816615,30693.000,180859,8135,112026
1201904.826342,30702.727,180887,8142,112021
1201904.836069,30712.455,180904,8161,112049
1201904.845796,30722.182,180877,8119,112044
1201904.855524,30731.909,180857,8163,112023
1201904.865251,30741.636,180869,8143,112038
1201904.874978,30751.364,180851,8140,112017
1201904.884705,30761.091,180855,8137,112023
1201904.894433,30770.818,180880,8150,112013
1201904.90416,30780.545,180897,8128,112041
1201904.913887,30790.273,180916,8167,112055
1201904.923614,30800.000,180865,8138,112005
1201904.933947,30810.333,180845,8133,112033
1201904.944281,30820.667,180834,8146,112031
1201904.954614,30831.000,180875,8165,112055
1201904.964947,30841.333,180905,8175,112062
1201904.975281,30851.667,180895,8154,112048
1201904.985614,30862.000,180897,8175,112044
1201904.995947,30872.333,180907,8151,112075
1201905.00628,30882.667,180861,8145,112026
1201905.016614,30893.000,180886,8166,112034
1201905.026341,30902.727,180875,8140,112032
1201905.036068,30912.455,180898,8178,112059
1201905.045795,30922.182,180837,8130,112034
1201905.055523,30931.909,180870,8157,112039
1201905.06525,30941.636,180884,8140,112023
1201905.074977,30951.364,180880,8174,112069
1201905.084704,30961.091,180836,8155,112012
1201905.094432,30970.818,180858,8147,112028
1201905.104159,30980.545,180838,8145,112040
1201905.113886,30990.273,180893,8183,112064
1201905.123613,31000.000,180877,8148,112006
1201905.134213,31010.600,180864,8152,112042
1201905.144813,31021.200,180839,8128,112013
1201905.155413,31031.800,180876,8137,112029
1201905.166013,31042.400,180838,8138,112028
1201905.176613,31053.000,180877,8137,112048
1201905.187213,31063.600,180861,8131,112033
1201905.197813,31074.200,180910,8189,112091
1201905.208413,31084.800,180845,8130,112020
1201905.219013,31095.400,180863,8142,112041
1201905.229613,31106.000,180849,8137,112031
1201905.239946,31116.333,180892,8152,112047
1201905.250279,31126.667,180853,8165,112025
1201905.260612,31137.000,180870,8129,112037
1201905.270946,31147.333,180845,8169,112034
1201905.281279,31157.667,180844,8129,112022
1201905.291612,31168.000,180844,8147,112007
1201905.301946,31178.333,180855,8138,112045
1201905.312279,31188.667,180880,8158,112028
1201905.322612,31199.000,180890,8122,112042
1201905.332339,31208.727,180869,8182,112047
1201905.342067,31218.455,180814,8123,112005
1201905.351794,31228.182,180864,8146,112030
1201905.361521,31237.909,180881,8160,112051
1201905.371248,31247.636,180874,8162,112035
1201905.380975,31257.364,180843,8148,112044
1201905.390703,31267.091,180870,8144,112045
1201905.40043,31276.818,180869,8187,112056
1201905.410157,31286.545,180844,8160,112021
1201905.419884,31296.273,180860,8146,112027
1201905.429612,31306.000,180868,8152,112053
1201905.439945,31316.333,180874,8153,112032
1201905.450278,31326.667,180870,8154,112020
1201905.460611,31337.000,180848,8137,112018
1201905.470945,31347.333,180867,8130,112026
1201905.481278,31357.667,180836,8140,112044
1201905.491611,31368.000,180859,8190,112050
1201905.501945,31378.333,180858,8132,112021
1201905.512278,31388.667,180882,8161,112057
1201905.522611,31399.000,180857,8138,112062
1201905.532338,31408.727,180914,8166,112053
1201905.542066,31418.455,180864,8148,112016
1201905.551793,31428.182,180876,8168,112054
1201905.56152,31437.909,180871,8176,112026
1201905.571247,31447.636,180873,8170,112073
1201905.580974,31457.364,180859,8146,112032
1201905.590702,31467.091,180872,8155,112044
1201905.600429,31476.818,180868,8146,112036
1201905.610156,31486.545,180832,8156,112032
1201905.619883,31496.273,180857,8171,112036
1201905.629611,31506.000,180882,8153,112050
1201905.64031,31516.700,180871,8149,112045
1201905.65101,31527.400,180910,8200,112067
1201905.66171,31538.100,180881,8159,112039
1201905.67241,31548.800,180875,8151,112054
1201905.68311,31559.500,180851,8178,112056
1201905.69381,31570.200,180852,8142,112045
1201905.70451,31580.900,180841,8147,112038
1201905.71521,31591.600,180828,8137,112039
1201905.72591,31602.300,180866,8163,112025
1201905.73661,31613.000,180902,8179,112038
1201905.74591,31622.300,180846,8184,112038
1201905.75521,31631.600,180819,8146,112008
1201905.76451,31640.900,180840,8149,112025
1201905.77381,31650.200,180867,8153,112036
1201905.78311,31659.500,180884,8151,112056
1201905.79241,31668.800,180850,8126,112048
1201905.80171,31678.100,180850,8146,112049
1201905.81101,31687.400,180826,8160,112011
1201905.82031,31696.700,180826,8174,112036
1201905.829609,31706.000,180822,8130,112034
1201905.840309,31716.700,180847,8147,112040
1201905.851009,31727.400,180853,8164,112028
1201905.861709,31738.100,180837,8143,112028
1201905.872409,31748.800,180769,8115,112010
1201905.883109,31759.500,180836,8141,112031
1201905.893809,31770.200,180867,8182,112077
1201905.904509,31780.900,180832,8138,112013
1201905.915209,31791.600,180827,8130,112012
1201905.925909,31802.300,180853,8155,112031
1201905.936609,31813.000,180830,8150,112061
1201905.946245,31822.636,180858,8173,112021
1201905.955882,31832.273,180836,8143,112031
1201905.965518,31841.909,180855,8151,112033
1201905.975154,31851.545,180847,8167,112059
1201905.984791,31861.182,180799,8144,112013
1201905.994427,31870.818,180830,8148,112040
1201906.004063,31880.455,180840,8167,112029
1201906.013699,31890.091,180889,8189,112035
1201906.023336,31899.727,180837,8179,112021
1201906.032972,31909.364,180821,8133,112025
1201906.042608,31919.000,180846,8166,112028
1201906.053053,31929.444,180849,8140,112038
1201906.063497,31939.889,180855,8171,112055
1201906.073942,31950.333,180835,8152,112035
1201906.084386,31960.778,180860,8164,112049
1201906.09483,31971.222,180889,8166,112063
1201906.105275,31981.667,180871,8179,112037
1201906.115719,31992.111,180848,8139,112039
1201906.126164,32002.556,180864,8144,112043
1201906.136608,32013.000,180854,8179,112027
1201906.146244,32022.636,180861,8182,112047
1201906.155881,32032.273,180830,8138,112010
1201906.165517,32041.909,180878,8181,112040
1201906.175153,32051.545,180854,8164,112045
1201906.184789,32061.182,180875,8172,112055
1201906.194426,32070.818,180810,8146,112021
1201906.204062,32080.455,180839,8184,112055
1201906.213698,32090.091,180867,8155,112044
1201906.223335,32099.727,180852,8161,112025
1201906.232971,32109.364,180835,8152,112033
1201906.242607,32119.000,180866,8142,112029
1201906.252941,32129.333,180873,,112044
1201906.253052,32129.444,,8155,
1201906.263274,32139.667,180907,,112034
1201906.263496,32139.889,,8178,
1201906.273607,32150.000,180842,,112013
1201906.273941,32150.333,,8162,
1201906.28394,32160.333,180883,,112052
1201906.284385,32160.778,,8177,
1201906.294274,32170.667,180873,,112052
1201906.294829,32171.222,,8167,
1201906.304607,32181.000,180895,,112077
1201906.305274,32181.667,,8177,
1201906.31494,32191.333,180840,,112032
1201906.315718,32192.111,,8156,
1201906.325274,32201.667,180879,,112044
1201906.326162,32202.556,,8156,
1201906.335607,32212.000,180860,,112042
1201906.336607,32213.000,,8163,
1201906.345334,32221.727,180901,,112058
1201906.346243,32222.636,,8166,
1201906.355061,32231.455,180878,,112023
1201906.355879,32232.273,,8164,
1201906.364789,32241.182,180872,,112048
1201906.365516,32241.909,,8146,
1201906.374516,32250.909,180864,,112057
1201906.375152,32251.545,,8161,
1201906.384243,32260.636,180853,,112056
1201906.384788,32261.182,,8180,
1201906.39397,32270.364,180793,,112000
1201906.394425,32270.818,,8126,
1201906.403697,32280.091,180842,,112049
1201906.404061,32280.455,,8186,
1201906.413425,32289.818,180841,,112038
1201906.413697,32290.091,,8151,
1201906.423152,32299.545,180883,,112005
1201906.423334,32299.727,,8133,
1201906.432879,32309.273,180855,,112026
1201906.43297,32309.364,,8177,
1201906.442606,32319.000,180861,8154,112059
1201906.453306,32329.700,180841,8154,112042
1201906.464006,32340.400,180861,8135,112060
1201906.474706,32351.100,180809,8124,112040
1201906.485406,32361.800,180847,8166,112064
1201906.496106,32372.500,180851,8153,112032
1201906.506806,32383.200,180857,8145,112044
1201906.517506,32393.900,180868,8133,112033
1201906.528206,32404.600,180846,8149,112026
1201906.538906,32415.300,180840,8173,112057
1201906.549606,32426.000,180842,8153,112053
1201906.559939,32436.333,180830,8172,112049
1201906.570272,32446.667,180824,8144,112035
1201906.580606,32457.000,180865,8169,112046
1201906.590939,32467.333,180842,8160,112052
1201906.601272,32477.667,180856,8143,112035
1201906.611605,32488.000,180870,8150,112031
1201906.621939,32498.333,180848,8178,112035
1201906.632272,32508.667,180837,8162,112052
1201906.642605,32519.000,180821,8173,112050
1201906.652332,32528.727,180801,8139,112011
1201906.66206,32538.455,180864,8178,112028
1201906.671787,32548.182,180861,8177,112059
1201906.681514,32557.909,180816,8138,112011
1201906.691241,32567.636,180819,8161,112007
1201906.700969,32577.364,180850,8183,112048
1201906.710696,32587.091,180845,8142,112048
1201906.720423,32596.818,180830,8143,112046
1201906.73015,32606.545,180836,8140,112036
1201906.739877,32616.273,180837,8150,112075
1201906.749605,32626.000,180846,8164,112040
1201906.759938,32636.333,180815,8166,112062
1201906.770271,32646.667,180838,8156,112028
1201906.780605,32657.000,180830,8174,112024
1201906.790938,32667.333,180858,8166,112042
1201906.801271,32677.667,180819,8203,112002
1201906.811604,32688.000,180819,8145,112015
1201906.821938,32698.333,180845,8151,112012
1201906.832271,32708.667,180867,8160,112034
1201906.842604,32719.000,180878,8184,112052
1201906.852331,32728.727,180871,8178,112037
1201906.862059,32738.455,180858,8152,112023
1201906.871786,32748.182,180865,8161,112044
1201906.881513,32757.909,180845,8144,112041
1201906.89124,32767.636,180835,8145,112032
1201906.900968,32777.364,180869,8187,112063
1201906.910695,32787.091,180868,8168,112043
1201906.920422,32796.818,180835,8162,112012
1201906.930149,32806.545,180861,8135,112024
1201906.939876,32816.273,180855,8146,112039
1201906.949604,32826.000,180849,8169,112037
1201906.960204,32836.600,180874,8169,112018
1201906.970804,32847.200,180815,8178,112038
1201906.981404,32857.800,180865,8181,112030
1201906.992003,32868.400,180844,8144,112047
1201907.002603,32879.000,180850,8172,112035
1201907.013203,32889.600,180859,8159,112050
1201907.023803,32900.200,180856,8164,112066
1201907.034403,32910.800,180839,8188,112066
1201907.045003,32921.400,180836,8144,112038
1201907.055603,32932.000,180830,8210,112034
1201907.065003,32941.400,180797,8152,112015
1201907.074403,32950.800,180817,8152,112063
1201907.083803,32960.200,180818,8148,112025
1201907.093203,32969.600,180797,8123,112014
1201907.102603,32979.000,180832,8166,112048
1201907.112003,32988.400,180847,8177,112028
1201907.121403,32997.800,180804,8157,112027
1201907.130803,33007.200,180779,8161,111997
1201907.140203,33016.600,180797,8136,112006
1201907.149603,33026.000,180825,8146,112030
1201907.160203,33036.600,180821,8152,112016
1201907.170803,33047.200,180821,8151,112036
1201907.181402,33057.800,180855,8168,112049
1201907.192002,33068.400,180826,8142,112034
1201907.202602,33079.000,180854,8150,112016
1201907.213202,33089.600,180810,8146,112028
1201907.223802,33100.200,180832,8162,112056
1201907.234402,33110.800,180829,8166,112005
1201907.245002,33121.400,180834,8147,112024
1201907.255602,33132.000,180810,8121,112004
1201907.265329,33141.727,180834,8173,112008
1201907.275057,33151.455,180849,8164,112047
1201907.284784,33161.182,180828,8152,112023
1201907.294511,33170.909,180825,8142,112023
1201907.304238,33180.636,180856,8171,112052
1201907.313965,33190.364,180794,8140,112023
1201907.323693,33200.091,180831,8164,112028
1201907.33342,33209.818,180771,8128,111976
1201907.343147,33219.545,180817,8140,112039
1201907.352874,33229.273,180815,8144,112012
1201907.362602,33239.000,180834,8167,112040
1201907.372935,33249.333,180823,8158,112025
1201907.383268,33259.667,180812,8170,112045
1201907.393601,33270.000,180817,8143,112017
1201907.403935,33280.333,180807,8158,112029
1201907.414268,33290.667,180837,8154,112029
1201907.424601,33301.000,180858,8157,112041
1201907.434934,33311.333,180820,8146,112017
1201907.445268,33321.667,180821,8163,111999
1201907.455601,33332.000,180845,8164,112022
1201907.465328,33341.727,180834,8179,112030
1201907.475055,33351.455,180807,8161,112008
1201907.484783,33361.182,180826,8155,112008
1201907.49451,33370.909,180850,8164,112037
1201907.504237,33380.636,180898,8185,112038
1201907.513964,33390.364,180828,8154,112026
1201907.523692,33400.091,180858,8189,112053
1201907.533419,33409.818,180855,8159,112033
1201907.543146,33419.545,180849,8161,112011
1201907.552873,33429.273,180832,8142,112016
1201907.5626,33439.000,180880,8169,112044
1201907.5733,33449.700,180857,8173,112026
1201907.584,33460.400,180857,8139,112028
1201907.5947,33471.100,180848,8150,112016
1201907.6054,33481.800,180840,8160,112022
1201907.6161,33492.500,180841,8156,112025
1201907.6268,33503.200,180833,8186,112047
1201907.6375,33513.900,180842,8155,112019
1201907.6482,33524.600,180864,8189,112062
1201907.6589,33535.300,180850,8164,112036
1201907.6696,33546.000,180834,8154,112015
1201907.679,33555.400,180819,8152,112005
1201907.6884,33564.800,180851,8178,112016
1201907.6978,33574.200,180841,8155,112024
1201907.7072,33583.600,180822,8146,112018
1201907.7166,33593.000,180822,8146,112028
1201907.726,33602.400,180854,8171,112047
1201907.7354,33611.800,180840,8174,112050
1201907.7448,33621.200,180853,8156,112039
1201907.754199,33630.600,180801,8148,112027
1201907.763599,33640.000,180829,8133,112045
1201907.774199,33650.600,180835,8155,112036
1201907.784799,33661.200,180853,8166,112039
1201907.795399,33671.800,180815,8150,112019
1201907.805999,33682.400,180813,8153,112044
1201907.816599,33693.000,180805,8139,112025
1201907.827199,33703.600,180819,8154,112004
1201907.837799,33714.200,180804,8151,112026
1201907.848399,33724.800,180879,8166,112035
1201907.858999,33735.400,180859,8183,112058
1201907.869599,33746.000,180821,8139,112022
1201907.879932,33756.333,180825,8157,112022
1201907.890265,33766.667,180827,8161,112019
1201907.900599,33777.000,180858,8173,112030
1201907.910932,33787.333,180849,8166,112031
1201907.921265,33797.667,180861,8180,112037
1201907.931599,33808.000,180822,8168,112046
1201907.941932,33818.333,180850,8167,112027
1201907.952265,33828.667,180838,8149,112020
1201907.962598,33839.000,180838,8162,112010
1201907.972326,33848.727,180827,8160,112028
1201907.982053,33858.455,180864,8190,112036
1201907.99178,33868.182,180843,8154,112030
1201908.001507,33877.909,180890,8168,112006
1201908.011235,33887.636,180851,8177,112038
1201908.020962,33897.364,180822,8162,112043
1201908.030689,33907.091,180837,8155,112010
1201908.040416,33916.818,180824,8161,112009
1201908.050143,33926.545,180864,8166,112038
1201908.059871,33936.273,180807,8152,112007
1201908.069598,33946.000,180842,8168,112032
1201908.079325,33955.727,180844,8152,112038
1201908.089052,33965.455,180860,8150,112041
1201908.09878,33975.182,180865,8179,112043
1201908.108507,33984.909,180843,8164,112034
1201908.118234,33994.636,180858,8171,111999
1201908.127961,34004.364,180889,8216,112069
1201908.137688,34014.091,180845,8167,112012
1201908.147416,34023.818,180843,8174,112031
1201908.157143,34033.545,180859,8171,112012
1201908.16687,34043.273,180851,8148,111993
1201908.176597,34053.000,180884,8182,112042
1201908.186931,34063.333,180855,8158,112028
1201908.197264,34073.667,180857,8183,112027
1201908.207597,34084.000,180868,8177,112067
1201908.21793,34094.333,180865,8162,112000
1201908.228264,34104.667,180819,8152,112034
1201908.238597,34115.000,180865,8165,112018
1201908.24893,34125.333,180859,8149,112031
1201908.259264,34135.667,180849,8183,112009
1201908.269597,34146.000,180854,8200,112017
1201908.280197,34156.600,180849,8168,112022
1201908.290797,34167.200,180824,8170,112027
1201908.301397,34177.800,180829,8158,112030
1201908.311997,34188.400,180851,8183,112002
1201908.322597,34199.000,180838,8176,112033
1201908.333196,34209.600,180846,8197,112058
1201908.343796,34220.200,180869,8171,112049
1201908.354396,34230.800,180851,8141,112023
1201908.364996,34241.400,180846,8166,112036
1201908.375596,34252.000,180827,8145,112023
1201908.385323,34261.727,180851,8179,112047
1201908.395051,34271.455,180807,8149,112018
1201908.404778,34281.182,180828,8143,112014
1201908.414505,34290.909,180835,8142,112036
1201908.424232,34300.636,180818,8145,112007
1201908.43396,34310.364,180804,8173,111996
1201908.443687,34320.091,180847,8166,112029
1201908.453414,34329.818,180798,8143,112023
1201908.463141,34339.545,180848,8166,112030
1201908.472868,34349.273,180811,8158,112002
1201908.482596,34359.000,180837,8165,112036
1201908.492929,34369.333,180819,8146,112005
1201908.503262,34379.667,180854,8159,112039
1201908.513596,34390.000,180842,8151,112016
1201908.523929,34400.333,180835,8160,112024
1201908.534262,34410.667,180813,8155,112067
1201908.544595,34421.000,180839,8184,112059
1201908.554929,34431.333,180814,8150,112015
1201908.565262,34441.667,180842,8167,112033
1201908.575595,34452.000,180835,8164,112026
1201908.585322,34461.727,180856,8185,112050
1201908.59505,34471.455,180825,8169,112015
1201908.604777,34481.182,180843,8159,112034
1201908.614504,34490.909,180850,8154,112058
1201908.624231,34500.636,180865,8166,112059
1201908.633959,34510.364,180812,8151,112005
1201908.643686,34520.091,180825,8141,112030
1201908.653413,34529.818,180828,8165,112009
1201908.66314,34539.545,180884,8204,112050
1201908.672867,34549.273,180805,8159,112013
1201908.682595,34559.000,180803,8133,111998
1201908.692928,34569.333,180837,8165,112029
1201908.703261,34579.667,180830,8159,112043
1201908.713595,34590.000,180813,8138,112023
1201908.723928,34600.333,180811,8158,112051
1201908.734261,34610.667,180839,8169,112035
1201908.744594,34621.000,180851,8183,112040
1201908.754928,34631.333,180812,8168,112010
1201908.765261,34641.667,180817,8156,112023
1201908.775594,34652.000,180850,8165,112028
1201908.785321,34661.727,180810,8150,112003
1201908.795049,34671.455,180871,8200,112039
1201908.804776,34681.182,180852,8173,111984
1201908.814503,34690.909,180844,8173,112026
1201908.82423,34700.636,180852,8150,112052
1201908.833958,34710.364,180858,8180,112059
1201908.843685,34720.091,180824,8160,112031
1201908.853412,34729.818,180857,8164,112027
1201908.863139,34739.545,180848,8165,112042
1201908.872866,34749.273,180859,8190,112019
1201908.882594,34759.000,180844,8158,112029
1201908.893294,34769.700,180847,8178,112024
1201908.903994,34780.400,180861,8178,112025
1201908.914693,34791.100,180834,8202,112013
1201908.925393,34801.800,180818,8162,112028
1201908.936093,34812.500,180830,8172,112021
1201908.946793,34823.200,180845,8195,112030
1201908.957493,34833.900,180833,8182,112008
1201908.968193,34844.600,180831,8150,112041
1201908.978893,34855.300,180833,8162,112029
1201908.989593,34866.000,180823,8153,112025
1201908.999926,34876.333,180842,8180,112050
1201909.01026,34886.667,180803,8163,112009
1201909.020593,34897.000,180822,8156,112024
1201909.030926,34907.333,180807,8148,112032
1201909.041259,34917.667,180805,8146,112008
1201909.051593,34928.000,180810,8168,111990
1201909.061926,34938.333,180829,8150,112026
1201909.072259,34948.667,180827,8162,112027
1201909.082593,34959.000,180834,8176,112037
1201909.09232,34968.727,180812,8179,112023
1201909.102047,34978.455,180819,8147,112013
1201909.111774,34988.182,180830,8158,112027
1201909.121501,34997.909,180852,8165,112016
1201909.131229,35007.636,180848,8157,112032
1201909.140956,35017.364,180855,8145,112054
1201909.150683,35027.091,180827,8160,112028
1201909.16041,35036.818,180828,8172,112040
1201909.170138,35046.545,180835,8171,112053
1201909.179865,35056.273,180810,8147,112030
1201909.189592,35066.000,180844,8163,112041
1201909.199925,35076.333,180836,8207,112039
1201909.210259,35086.667,180837,8186,112006
1201909.220592,35097.000,180845,8165,112010
1201909.230925,35107.333,180838,8162,112039
1201909.241258,35117.667,180819,8139,112035
1201909.251592,35128.000,180844,8191,112040
1201909.261925,35138.333,180831,8158,112009
1201909.272258,35148.667,180831,8154,112025
1201909.282592,35159.000,180850,8159,112054
1201909.292319,35168.727,180811,8135,112029
1201909.302046,35178.455,180831,8155,112026
1201909.311773,35188.182,180847,8161,112027
1201909.3215,35197.909,180820,8145,112034
1201909.331228,35207.636,180790,8143,111997
1201909.340955,35217.364,180810,8151,112015
1201909.350682,35227.091,180827,8158,112031
1201909.360409,35236.818,180850,8183,112026
1201909.370137,35246.545,180872,8186,112052
1201909.379864,35256.273,180819,8148,112015
1201909.389591,35266.000,180834,8168,112025
1201909.400191,35276.600,180842,8145,112026
1201909.410791,35287.200,180866,8174,112046
1201909.421391,35297.800,180859,8157,112036
1201909.431991,35308.400,180842,8166,112023
1201909.442591,35319.000,180821,8166,112031
1201909.453191,35329.600,180816,8150,112016
1201909.463791,35340.200,180854,8152,112035
1201909.474391,35350.800,180831,8164,112023
1201909.48499,35361.400,180832,8175,112005
1201909.49559,35372.000,180858,8192,112053
1201909.50499,35381.400,180831,8178,112027
1201909.51439,35390.800,180853,8175,112028
1201909.52379,35400.200,180865,8171,112036
1201909.53319,35409.600,180882,8186,112050
1201909.54259,35419.000,180859,8162,112025
1201909.55199,35428.400,180894,8160,112059
1201909.56139,35437.800,180873,8178,112033
1201909.57079,35447.200,180847,8194,112048
1201909.58019,35456.600,180825,8153,112031
1201909.58959,35466.000,180849,8149,112047
1201909.60019,35476.600,180848,8191,112037
1201909.61079,35487.200,180857,8191,112040
1201909.62139,35497.800,180825,8146,112021
1201909.63199,35508.400,180834,8154,112012
1201909.64259,35519.000,180827,8159,112033
1201909.65319,35529.600,180841,8154,112045
1201909.66379,35540.200,180803,8156,112038
1201909.67439,35550.800,180808,8162,112021
1201909.684989,35561.400,180827,8156,112035
1201909.695589,35572.000,180803,8141,112044
1201909.705317,35581.727,180858,8177,112049
1201909.715044,35591.455,180825,8147,112019
1201909.724771,35601.182,180843,8152,112026
1201909.734498,35610.909,180825,8181,112060
1201909.744226,35620.636,180845,8187,112050
1201909.753953,35630.364,180801,8133,112019
1201909.76368,35640.091,180830,8153,112020
1201909.773407,35649.818,180844,8164,112039
1201909.783134,35659.545,180819,8138,112012
1201909.792862,35669.273,180845,8158,112019
1201909.802589,35679.000,180828,8147,112026
1201909.812922,35689.333,180841,8127,112023
1201909.823255,35699.667,180851,8170,112033
1201909.833589,35710.000,180843,8154,112031
1201909.843922,35720.333,180844,8160,112040
1201909.854255,35730.667,180865,8161,112056
1201909.864589,35741.000,180829,8131,112039
1201909.874922,35751.333,180834,8156,112018
1201909.885255,35761.667,180818,8157,112020
1201909.895588,35772.000,180822,8152,112015
1201909.905316,35781.727,180805,8145,112007
1201909.915043,35791.455,180810,8137,112009
1201909.92477,35801.182,180863,8176,112028
1201909.934497,35810.909,180853,8155,112046
1201909.944224,35820.636,180841,8165,112011
1201909.953952,35830.364,180860,8166,112025
1201909.963679,35840.091,180862,8165,112044
1201909.973406,35849.818,180830,8156,112035
1201909.983133,35859.545,180833,8173,112046
1201909.992861,35869.273,180816,8149,112007
1201910.002588,35879.000,180776,8144,112064
1201910.013188,35889.600,180832,8158,112026
1201910.023788,35900.200,180854,8176,112039
1201910.034388,35910.800,180855,8140,112028
1201910.044988,35921.400,180862,8177,112066
1201910.055588,35932.000,180853,8168,112028
1201910.066187,35942.600,180867,8167,112046
1201910.076787,35953.200,180820,8136,112034
1201910.087387,35963.800,180839,8157,112037
1201910.097987,35974.400,180845,8157,112043
1201910.108587,35985.000,180865,8172,112038
1201910.117987,35994.400,180821,8134,112015
1201910.127387,36003.800,180863,8176,112011
1201910.136787,36013.200,180871,8185,112018
1201910.146187,36022.600,180834,8174,112054
1201910.155587,36032.000,180842,8160,112013
1201910.164987,36041.400,180826,8153,112029
1201910.174387,36050.800,180863,8174,112022
1201910.183787,36060.200,180854,8199,112032
1201910.193187,36069.600,180869,8192,112011
1201910.202587,36079.000,180834,8160,112038
1201910.213187,36089.600,180859,8163,112032
1201910.223787,36100.200,180855,8160,112047
1201910.234387,36110.800,180840,8143,112028
1201910.244987,36121.400,180829,8182,112013
1201910.255586,36132.000,180850,8155,112038
1201910.266186,36142.600,180875,8191,112069
1201910.276786,36153.200,180827,8158,112005
1201910.287386,36163.800,180836,8188,112051
1201910.297986,36174.400,180830,8158,112033
1201910.308586,36185.000,180825,8157,112013
1201910.319031,36195.444,180852,8150,112051
1201910.329475,36205.889,180860,8157,112053
1201910.339919,36216.333,180841,8180,112030
1201910.350364,36226.778,180820,8156,112052
1201910.360808,36237.222,180806,8152,111998
1201910.371253,36247.667,180794,8137,112042
1201910.381697,36258.111,180836,8132,112049
1201910.392141,36268.556,180813,8144,112033
1201910.402586,36279.000,180778,8168,111988
1201910.412222,36288.636,180808,8146,112010
1201910.421858,36298.273,180787,8127,112017
1201910.431495,36307.909,180821,8155,112035
1201910.441131,36317.545,180810,8134,112018
1201910.450767,36327.182,180806,8141,112022
1201910.460404,36336.818,180863,8158,112045
1201910.47004,36346.455,180823,8155,112032
1201910.479676,36356.091,180800,8134,112008
1201910.489313,36365.727,180856,8165,112033
1201910.498949,36375.364,180816,8160,112009
1201910.508585,36385.000,180821,8153,112034
1201910.51903,36395.444,180789,8145,112032
1201910.529474,36405.889,180833,8146,112047
1201910.539918,36416.333,180850,8154,112056
1201910.550363,36426.778,180820,8159,112028
1201910.560807,36437.222,180788,8158,112009
1201910.571252,36447.667,180818,8152,112003
1201910.581696,36458.111,180824,8154,112022
1201910.59214,36468.556,180828,8161,112037
1201910.602585,36479.000,180805,8142,112006
1201910.612221,36488.636,180789,8154,112043
1201910.621857,36498.273,180790,8161,112022
1201910.631494,36507.909,180823,8152,112031
1201910.64113,36517.545,180843,8136,112061
1201910.650766,36527.182,180803,8153,112002
1201910.660403,36536.818,180813,8152,112048
1201910.670039,36546.455,180777,8132,112032
1201910.679675,36556.091,180812,8134,112042
1201910.689312,36565.727,180836,8183,112039
1201910.698948,36575.364,180813,8174,112013
1201910.708584,36585.000,180809,8157,112027
1201910.719284,36595.700,180817,8162,112034
1201910.729984,36606.400,180836,8146,112058
1201910.740684,36617.100,180802,8173,112038
1201910.751384,36627.800,180816,8149,112024
1201910.762084,36638.500,180824,8170,112041
1201910.772784,36649.200,180789,8165,112015
1201910.783484,36659.900,180826,8170,112016
1201910.794184,36670.600,180801,8151,112015
1201910.804884,36681.300,180832,8187,112016
1201910.815584,36692.000,180800,8176,111995
1201910.824984,36701.400,180832,8177,112022
1201910.834383,36710.800,180800,8149,112028
1201910.843783,36720.200,180853,8171,112014
1201910.853183,36729.600,180846,8144,112009
1201910.862583,36739.000,180847,8132,112056
1201910.871983,36748.400,180822,8157,112019
1201910.881383,36757.800,180835,8171,112032
1201910.890783,36767.200,180868,8181,112066
1201910.900183,36776.600,180866,8162,112043
1201910.909583,36786.000,180823,8159,112010
1201910.920183,36796.600,180838,8171,112046
1201910.930783,36807.200,180795,8152,112038
1201910.941383,36817.800,180832,8184,112022
1201910.951983,36828.400,180808,8162,112033
1201910.962583,36839.000,180838,8170,112046
1201910.973183,36849.600,180840,8196,112024
1201910.983783,36860.200,180811,8164,112025
1201910.994383,36870.800,180817,8162,112019
1201911.004983,36881.400,180819,8162,112030
1201911.015583,36892.000,180833,8178,112037
1201911.02531,36901.727,180824,8182,112060
1201911.035037,36911.455,180798,8147,112025
1201911.044764,36921.182,180813,8159,112047
1201911.054491,36930.909,180783,8164,112047
1201911.064219,36940.636,180772,8143,112028
1201911.073946,36950.364,180769,8152,112012
1201911.083673,36960.091,180803,8166,112038
1201911.0934,36969.818,180747,8165,112053
1201911.103128,36979.545,180820,8171,112072
1201911.112855,36989.273,180801,8142,112031
1201911.122582,36999.000,180800,8156,112044
1201911.132915,37009.333,180806,8154,112013
1201911.143249,37019.667,180820,8167,112048
1201911.153582,37030.000,180785,8139,112012
1201911.163915,37040.333,180849,8161,112038
1201911.174248,37050.667,180817,8150,112035
1201911.184582,37061.000,180851,8179,112067
1201911.194915,37071.333,180795,8143,112025
1201911.205248,37081.667,180840,8132,112072
1201911.215582,37092.000,180825,8164,112044
1201911.225309,37101.727,180825,8173,112064
1201911.235036,37111.455,180811,8152,112034
1201911.244763,37121.182,180815,8164,112070
1201911.25449,37130.909,180836,8155,112052
1201911.264218,37140.636,180852,8183,112051
1201911.273945,37150.364,180779,8168,112026
1201911.283672,37160.091,180790,8151,112045
1201911.293399,37169.818,180812,8161,112032
1201911.303126,37179.545,180839,8166,112030
1201911.312854,37189.273,180811,8154,112036
1201911.322581,37199.000,180813,8162,112062
1201911.332914,37209.333,180815,8195,112079
1201911.343248,37219.667,180810,8171,112075
1201911.353581,37230.000,180778,8166,112029
1201911.363914,37240.333,180812,8193,112076
1201911.374247,37250.667,180822,8171,112063
1201911.384581,37261.000,180819,8177,112058
1201911.394914,37271.333,180799,8181,112045
1201911.405247,37281.667,180804,8160,112037
1201911.41558,37292.000,180824,8172,112058
1201911.425308,37301.727,180851,8191,112053
1201911.435035,37311.455,180813,8165,112031
1201911.444762,37321.182,180806,8189,112040
1201911.454489,37330.909,180824,8168,112054
1201911.464217,37340.636,180827,8137,112075
1201911.473944,37350.364,180803,8170,112072
1201911.483671,37360.091,180819,8172,112054
1201911.493398,37369.818,180818,8173,112058
1201911.503125,37379.545,180812,8162,112070
1201911.512853,37389.273,180802,8164,112038
1201911.52258,37399.000,180818,8180,112058
1201911.53318,37409.600,180836,8181,112071
1201911.54378,37420.200,180816,8181,112072
1201911.55438,37430.800,180815,8178,112055
1201911.56498,37441.400,180868,8183,112053
1201911.57558,37452.000,180860,8172,112058
1201911.58618,37462.600,180848,8187,112071
1201911.59678,37473.200,180825,8168,112002
1201911.607379,37483.800,180822,8166,112042
1201911.617979,37494.400,180855,8157,112066
1201911.628579,37505.000,180835,8189,112044
1201911.639024,37515.444,180845,8227,112030
1201911.649468,37525.889,180823,8164,112030
1201911.659913,37536.333,180822,8187,112057
1201911.670357,37546.778,180859,8183,112052
1201911.680801,37557.222,180861,8164,112045
1201911.691246,37567.667,180830,8176,112052
1201911.70169,37578.111,180870,8175,112042
1201911.712134,37588.556,180870,8173,112061
1201911.722579,37599.000,180852,8187,112077
1201911.732215,37608.636,180848,8150,112037
1201911.741851,37618.273,180866,8177,112041
1201911.751488,37627.909,180844,8174,112039
1201911.761124,37637.545,180872,8164,112030
1201911.77076,37647.182,180837,8144,112036
1201911.780397,37656.818,180899,8181,112069
1201911.790033,37666.455,180885,8168,112056
1201911.799669,37676.091,180866,8160,112065
1201911.809306,37685.727,180874,8159,112046
1201911.818942,37695.364,180859,8159,112056
1201911.828578,37705.000,180907,8158,112063
1201911.839023,37715.444,180914,8176,112072
1201911.849467,37725.889,180885,8179,112043
1201911.859911,37736.333,180911,8168,112061
1201911.870356,37746.778,180939,8183,112094
1201911.8808,37757.222,180892,8166,112051
1201911.891245,37767.667,180893,8142,112053
1201911.901689,37778.111,180938,8179,112090
1201911.912133,37788.556,180927,8158,112078
1201911.922578,37799.000,180947,8179,112091
1201911.932214,37808.636,180917,8145,112070
1201911.94185,37818.273,180936,8156,112074
1201911.951487,37827.909,180958,8197,112083
1201911.961123,37837.545,180941,8176,112100
1201911.970759,37847.182,180907,8166,112051
1201911.980396,37856.818,180950,8162,112057
1201911.990032,37866.455,180969,8182,112079
1201911.999668,37876.091,180924,8191,112092
1201912.009305,37885.727,180922,8175,112059
1201912.018941,37895.364,180920,8162,112057
1201912.028577,37905.000,180964,8186,112108
1201912.039277,37915.700,180943,8168,112082
1201912.049977,37926.400,180952,8190,112075
1201912.060677,37937.100,180958,8163,112099
1201912.071377,37947.800,180945,8153,112073
1201912.082077,37958.500,180939,8170,112083
1201912.092777,37969.200,180935,8160,112059
1201912.103477,37979.900,180946,8158,112080
1201912.114177,37990.600,180965,8192,112080
1201912.124877,38001.300,180952,8171,112073
1201912.135577,38012.000,180935,8207,112082
1201912.144877,38021.300,180915,8164,112064
1201912.154177,38030.600,180965,8188,112094
1201912.163477,38039.900,180955,8174,112086
1201912.172777,38049.200,180961,8191,112060
1201912.182076,38058.500,180943,8176,112071
1201912.191376,38067.800,180937,8185,112095
1201912.200676,38077.100,180946,8177,112083
1201912.209976,38086.400,180956,8190,112095
1201912.219276,38095.700,180936,8155,112050
1201912.228576,38105.000,180931,8173,112093
1201912.239276,38115.700,180946,8180,112083
1201912.249976,38126.400,180968,8184,112088
1201912.260676,38137.100,180951,8167,112086
1201912.271376,38147.800,180948,8206,112096
1201912.282076,38158.500,180921,8184,112088
1201912.292776,38169.200,180908,8184,112071
1201912.303476,38179.900,180935,8206,112095
1201912.314176,38190.600,180980,8194,112112
1201912.324876,38201.300,180937,8188,112079
1201912.335576,38212.000,180954,8196,112102
1201912.345303,38221.727,180935,8163,112055
1201912.35503,38231.455,180953,8182,112092
1201912.364757,38241.182,180944,8181,112092
1201912.374485,38250.909,180934,8183,112094
1201912.384212,38260.636,180910,8173,112074
1201912.393939,38270.364,180915,8177,112102
1201912.403666,38280.091,180968,8203,112096
1201912.413393,38289.818,180908,8182,112087
1201912.423121,38299.545,180901,8164,112041
1201912.432848,38309.273,180927,8172,112075
1201912.442575,38319.000,180904,8187,112052
1201912.452908,38329.333,180929,8173,112083
1201912.463242,38339.667,180899,8207,112073
1201912.473575,38350.000,180938,8190,112100
1201912.483908,38360.333,180943,8188,112086
1201912.494242,38370.667,180935,8164,112076
1201912.504575,38381.000,180916,8163,112072
1201912.514908,38391.333,180924,8146,112070
1201912.525241,38401.667,180937,8186,112103
1201912.535575,38412.000,180907,8151,112081
1201912.545302,38421.727,180908,8164,112076
1201912.555029,38431.455,180890,8154,112068
1201912.564756,38441.182,180899,8174,112071
1201912.574484,38450.909,180930,8163,112079
1201912.584211,38460.636,180909,8173,112066
1201912.593938,38470.364,180938,8188,112066
1201912.603665,38480.091,180947,8188,112094
1201912.613392,38489.818,180918,8165,112077
1201912.62312,38499.545,180924,8176,112070
1201912.632847,38509.273,180926,8164,112078
1201912.642574,38519.000,180936,8187,112091
1201912.652574,38529.000,180924,8161,112074
1201912.662574,38539.000,180925,8145,112073
1201912.672574,38549.000,180928,8140,112071
1201912.682574,38559.000,180934,8190,112082
1201912.692574,38569.000,180918,8175,112073
1201912.702574,38579.000,180920,8189,112088
1201912.712574,38589.000,180911,8163,112098
1201912.722574,38599.000,180938,8183,112090
1201912.732574,38609.000,180932,8169,112077
1201912.742574,38619.000,180935,8175,112076
1201912.752574,38629.000,180898,8149,112061
1201912.762573,38639.000,180945,8200,112099
1201912.773173,38649.600,180941,8182,112081
1201912.783773,38660.200,180912,8171,112076
1201912.794373,38670.800,180890,8143,112074
1201912.804973,38681.400,180926,8180,112084
1201912.815573,38692.000,180898,8146,112074
1201912.826173,38702.600,180916,8177,112060
1201912.836773,38713.200,180932,8157,112078
1201912.847373,38723.800,180918,8155,112059
1201912.857973,38734.400,180914,8192,112086
1201912.868573,38745.000,180937,8174,112092
1201912.8783,38754.727,180917,8180,112066
1201912.888027,38764.455,180933,8181,112097
1201912.897755,38774.182,180922,8171,112070
1201912.907482,38783.909,180946,8177,112086
1201912.917209,38793.636,180922,8177,112081
1201912.926936,38803.364,180948,8168,112103
1201912.936663,38813.091,180947,8208,112074
1201912.946391,38822.818,180929,8189,112090
1201912.956118,38832.545,180895,8173,112077
1201912.965845,38842.273,180906,8176,112095
1201912.975572,38852.000,180959,8193,112101
1201912.985906,38862.333,180934,8184,112071
1201912.996239,38872.667,180925,8156,112076
1201913.006572,38883.000,180947,8200,112094
1201913.016905,38893.333,180910,8188,112058
1201913.027239,38903.667,180942,8187,112090
1201913.037572,38914.000,180924,8199,112062
1201913.047905,38924.333,180969,8212,112112
1201913.058239,38934.667,180943,8205,112112
1201913.068572,38945.000,180913,8170,112078
1201913.078299,38954.727,180927,8176,112079
1201913.088026,38964.455,180934,8167,112073
1201913.097754,38974.182,180942,8211,112081
1201913.107481,38983.909,180922,8184,112079
1201913.117208,38993.636,180914,8164,112049
1201913.126935,39003.364,180893,8184,112095
1201913.136662,39013.091,180893,8154,112064
1201913.14639,39022.818,180915,8171,112081
1201913.156117,39032.545,180914,8153,112075
1201913.165844,39042.273,180940,8196,112096
1201913.175571,39052.000,180935,8156,112081
1201913.186171,39062.600,180899,,
1201913.186271,39062.700,,8196,112068
1201913.196771,39073.200,180867,,
1201913.196971,39073.400,,8185,112056
1201913.207371,39083.800,180912,,
1201913.207671,39084.100,,8171,112091
1201913.217971,39094.400,180915,,
1201913.218371,39094.800,,8174,112057
1201913.228571,39105.000,180880,,
1201913.229071,39105.500,,8147,112077
1201913.239171,39115.600,180907,,
1201913.239771,39116.200,,8164,112046
1201913.249771,39126.200,180916,,
1201913.250471,39126.900,,8151,112075
1201913.260371,39136.800,180920,,
1201913.261171,39137.600,,8171,112075
1201913.270971,39147.400,180927,,
1201913.271871,39148.300,,8191,112097
1201913.281571,39158.000,180925,,
1201913.282571,39159.000,,8163,112084
1201913.292015,39168.444,180889,,
1201913.292904,39169.333,,8160,112093
1201913.30246,39178.889,180928,,
1201913.303237,39179.667,,8171,112103
1201913.312904,39189.333,180906,,
1201913.313571,39190.000,,8159,112061
1201913.323348,39199.778,180932,,
1201913.323904,39200.333,,8171,112082
1201913.333793,39210.222,180930,,
1201913.334237,39210.667,,8162,112073
1201913.344237,39220.667,180913,,
1201913.34457,39221.000,,8182,112090
1201913.354681,39231.111,180909,,
1201913.354904,39231.333,,8159,112044
1201913.365126,39241.556,180923,,
1201913.365237,39241.667,,8161,112073
1201913.37557,39252.000,180898,8155,112072
1201913.385207,39261.636,180948,8199,112110
1201913.394843,39271.273,180954,8195,112069
1201913.404479,39280.909,180946,8167,112077
1201913.414116,39290.545,180951,8159,112084
1201913.423752,39300.182,180935,8170,112062
1201913.433388,39309.818,180909,8176,112059
1201913.443024,39319.455,180950,8170,112086
1201913.452661,39329.091,180926,8156,112101
1201913.462297,39338.727,180922,8208,112057
1201913.471933,39348.364,180955,8196,112078
1201913.48157,39358.000,180950,8172,112076
1201913.492014,39368.444,180926,8176,112047
1201913.502459,39378.889,180954,8189,112060
1201913.512903,39389.333,180954,8171,112079
1201913.523347,39399.778,180962,8172,112080
1201913.533792,39410.222,180924,8148,112096
1201913.544236,39420.667,180946,8178,112088
1201913.55468,39431.111,180939,8166,112062
1201913.565125,39441.556,180964,8181,112070
1201913.575569,39452.000,180963,8162,112070
1201913.585296,39461.727,180956,8183,112093
1201913.595024,39471.455,180960,8165,112098
1201913.604751,39481.182,180985,8194,112069
1201913.614478,39490.909,180914,8182,112093
1201913.624205,39500.636,180936,8200,112062
1201913.633933,39510.364,180971,8179,112059
1201913.64366,39520.091,180938,8166,112087
1201913.653387,39529.818,180968,8184,112080
1201913.663114,39539.545,180988,8210,112069
1201913.672841,39549.273,180998,8188,112067
1201913.682569,39559.000,180979,8196,112114
1201913.692902,39569.333,180972,8184,112099
1201913.703235,39579.667,180964,8186,112097
1201913.713569,39590.000,180990,8221,112106
1201913.723902,39600.333,180979,8190,112077
1201913.734235,39610.667,180932,8172,112071
1201913.744568,39621.000,180941,8188,112054
1201913.754902,39631.333,180964,8210,112099
1201913.765235,39641.667,180998,8205,112101
1201913.775568,39652.000,180969,8185,112089
1201913.785295,39661.727,180966,8186,112060
1201913.795023,39671.455,180953,8188,112117
1201913.80475,39681.182,180916,8163,112060
1201913.814477,39690.909,180951,8178,112089
1201913.824204,39700.636,180950,8169,112086
1201913.833932,39710.364,180951,8179,112065
1201913.843659,39720.091,180920,8153,112060
1201913.853386,39729.818,180936,8174,112084
1201913.863113,39739.545,180945,8204,112096
1201913.87284,39749.273,180939,8180,112085
1201913.882568,39759.000,180931,8156,112065
1201913.893168,39769.600,180941,8174,112078
1201913.903768,39780.200,180968,8185,112089
1201913.914367,39790.800,180953,8186,112108
1201913.924967,39801.400,180978,8210,112094
1201913.935567,39812.000,180955,8168,112095
1201913.946167,39822.600,180944,8163,112070
1201913.956767,39833.200,180964,8189,112091
1201913.967367,39843.800,180951,8169,112104
1201913.977967,39854.400,180954,8172,112099
1201913.988567,39865.000,180951,8189,112085
1201913.9989,39875.333,180956,,
1201913.999011,39875.444,,8143,112086
1201914.009234,39885.667,180946,,
1201914.009456,39885.889,,8158,112086
1201914.019567,39896.000,180947,,
1201914.0199,39896.333,,8157,112084
1201914.0299,39906.333,180914,,
1201914.030345,39906.778,,8189,112088
1201914.040233,39916.667,180957,,
1201914.040789,39917.222,,8174,112083
1201914.050567,39927.000,180927,,
1201914.051233,39927.667,,8172,112058
1201914.0609,39937.333,180973,,
1201914.061678,39938.111,,8193,112090
1201914.071233,39947.667,180956,,
1201914.072122,39948.556,,8186,112103
1201914.081567,39958.000,180940,,
1201914.082567,39959.000,,8182,112074
1201914.091294,39967.727,180955,,
1201914.092203,39968.636,,8174,112081
1201914.101021,39977.455,180928,,
1201914.101839,39978.273,,8154,112067
1201914.110748,39987.182,180957,,
1201914.111476,39987.909,,8174,112086
1201914.120475,39996.909,180967,,
1201914.121112,39997.545,,8192,112080
1201914.130203,40006.636,180951,,
1201914.130748,40007.182,,8186,112114
1201914.13993,40016.364,180941,,
1201914.140384,40016.818,,8156,112086
1201914.149657,40026.091,180937,,
1201914.150021,40026.455,,8180,112087
1201914.159384,40035.818,180922,,
1201914.159657,40036.091,,8173,112067
1201914.169112,40045.545,180943,,
1201914.169293,40045.727,,8159,112085
1201914.178839,40055.273,180954,,
1201914.17893,40055.364,,8197,112104
1201914.188566,40065.000,180950,8185,112093
1201914.198293,40074.727,180917,8173,112083
1201914.20802,40084.455,180919,8162,112086
1201914.217748,40094.182,180912,8170,112071
1201914.227475,40103.909,180948,8174,112084
1201914.237202,40113.636,180973,8163,112086
1201914.246929,40123.364,180939,8213,112066
1201914.256657,40133.091,180959,8169,112115
1201914.266384,40142.818,180920,8167,112091
1201914.276111,40152.545,180938,8191,112076
1201914.285838,40162.273,180926,8178,112077
1201914.295565,40172.000,180935,8187,112104
1201914.305899,40182.333,180965,8178,112086
1201914.316232,40192.667,180953,8171,112071
1201914.326565,40203.000,180955,8183,112087
1201914.336899,40213.333,180965,8198,112102
1201914.347232,40223.667,180958,8187,112093
1201914.357565,40234.000,180940,8173,112082
1201914.367898,40244.333,180949,8218,112089
1201914.378232,40254.667,180992,8230,112111
1201914.388565,40265.000,180947,8192,112092
1201914.399265,40275.700,180928,8154,112064
1201914.409965,40286.400,180927,8172,112066
1201914.420665,40297.100,180907,8164,112050
1201914.431365,40307.800,180954,8157,112087
1201914.442065,40318.500,180915,8189,112068
1201914.452765,40329.200,180959,8210,112090
1201914.463465,40339.900,180903,8179,112108
1201914.474165,40350.600,180899,8150,112101
1201914.484865,40361.300,180925,8177,112081
1201914.495564,40372.000,180939,8168,112085
1201914.505201,40381.636,180930,8200,112058
1201914.514837,40391.273,180943,8184,112063
1201914.524473,40400.909,180931,8180,112093
1201914.53411,40410.545,180916,8175,112087
1201914.543746,40420.182,180953,8193,112103
1201914.553382,40429.818,180917,8150,112065
1201914.563019,40439.455,180934,8165,112081
1201914.572655,40449.091,180921,8170,112075
1201914.582291,40458.727,180944,8149,112095
1201914.591928,40468.364,180942,8172,112098
1201914.601564,40478.000,180937,8166,112095
1201914.612008,40488.444,180897,8153,112073
1201914.622453,40498.889,180902,8169,112093
1201914.632897,40509.333,180910,8191,112096
1201914.643341,40519.778,180937,8178,112081
1201914.653786,40530.222,180922,8170,112078
1201914.66423,40540.667,180929,8200,112057
1201914.674675,40551.111,180947,8185,112068
1201914.685119,40561.556,180926,8176,112084
1201914.695563,40572.000,180890,8185,112069
1201914.7052,40581.636,180935,8203,112105
1201914.714836,40591.273,180956,8208,112094
1201914.724472,40600.909,180924,8176,112081
1201914.734109,40610.545,180920,8164,112070
1201914.743745,40620.182,180953,8157,112103
1201914.753381,40629.818,180918,8182,112073
1201914.763018,40639.455,180934,8179,112090
1201914.772654,40649.091,180951,8198,112091
1201914.78229,40658.727,180897,8184,112105
1201914.791927,40668.364,180954,8206,112092
1201914.801563,40678.000,180949,8180,112083
1201914.812007,40688.444,180902,8159,112054
1201914.822452,40698.889,180916,8187,112063
1201914.832896,40709.333,180962,8198,112068
1201914.84334,40719.778,180929,8154,112089
1201914.853785,40730.222,180905,8191,112079
1201914.864229,40740.667,180924,8165,112091
1201914.874674,40751.111,180946,8194,112108
1201914.885118,40761.556,180902,8172,112076
1201914.895562,40772.000,180940,8184,112061
1201914.90529,40781.727,180935,8163,112087
1201914.915017,40791.455,180954,8197,112089
1201914.924744,40801.182,180910,8173,112058
1201914.934471,40810.909,180904,8161,112090
1201914.944198,40820.636,180912,8201,112109
1201914.953926,40830.364,180906,8207,112099
1201914.963653,40840.091,180924,8174,112066
1201914.97338,40849.818,180954,8182,112088
1201914.983107,40859.545,180952,8192,112066
1201914.992835,40869.273,180959,8197,112112
1201915.002562,40879.000,180934,8177,112084
1201915.013162,40889.600,180935,8192,112096
1201915.023762,40900.200,180938,8176,112089
1201915.034362,40910.800,180965,8218,112110
1201915.044962,40921.400,180912,8174,112068
1201915.055562,40932.000,180941,8188,112078
1201915.066161,40942.600,180905,8172,112101
1201915.076761,40953.200,180936,8202,112096
1201915.087361,40963.800,180873,8186,112066
1201915.097961,40974.400,180908,8173,112079
1201915.108561,40985.000,180883,8183,112069
1201915.117961,40994.400,180944,8180,112113
1201915.127361,41003.800,180912,8181,112062
1201915.136761,41013.200,180911,8178,112080
1201915.146161,41022.600,180923,8169,112060
1201915.155561,41032.000,180871,8182,112069
1201915.164961,41041.400,180882,8144,112058
1201915.174361,41050.800,180910,8169,112074
1201915.183761,41060.200,180890,8162,112066
1201915.193161,41069.600,180922,8207,112109
1201915.202561,41079.000,180876,8157,112059
1201915.213161,41089.600,180900,8167,112071
1201915.223761,41100.200,180871,8162,112038
1201915.234361,41110.800,180898,8183,112058
1201915.244961,41121.400,180885,8189,112050
1201915.25556,41132.000,180900,8161,112079
1201915.26616,41142.600,180890,8172,112077
1201915.27676,41153.200,180917,8188,112099
1201915.28736,41163.800,180903,8183,112067
1201915.29796,41174.400,180904,8187,112073
1201915.30856,41185.000,180884,8172,112082
1201915.318894,41195.333,180935,8162,112068
1201915.329227,41205.667,180886,8196,112087
1201915.33956,41216.000,180874,8153,112060
1201915.349893,41226.333,180898,8169,112070
1201915.360227,41236.667,180923,8177,112081
1201915.37056,41247.000,180910,8169,112071
1201915.380893,41257.333,180875,8180,112074
1201915.391226,41267.667,180914,8168,112068
1201915.40156,41278.000,180875,8170,112063
1201915.411287,41287.727,180905,8192,112105
1201915.421014,41297.455,180886,8166,112063
1201915.430741,41307.182,180895,8176,112073
1201915.440469,41316.909,180903,8180,112075
1201915.450196,41326.636,180920,8171,112038
1201915.459923,41336.364,180904,8168,112060
1201915.46965,41346.091,180893,8161,112044
1201915.479378,41355.818,180905,8145,112094
1201915.489105,41365.545,180905,8200,112086
1201915.498832,41375.273,180887,8167,112055
1201915.508559,41385.000,180910,8170,112065
1201915.518286,41394.727,180885,8163,112059
1201915.528014,41404.455,180931,8204,112094
1201915.537741,41414.182,180881,8164,112078
1201915.547468,41423.909,180901,8174,112071
1201915.557195,41433.636,180922,8180,112079
1201915.566923,41443.364,180899,8189,112096
1201915.57665,41453.091,180908,8158,112052
1201915.586377,41462.818,180908,8178,112081
1201915.596104,41472.545,180911,8177,112055
1201915.605831,41482.273,180918,8205,112092
1201915.615559,41492.000,180907,8195,112041
1201915.625892,41502.333,180918,8175,112074
1201915.636225,41512.667,180918,8175,112067
1201915.646558,41523.000,180935,8203,112104
1201915.656892,41533.333,180919,8157,112058
1201915.667225,41543.667,180912,8183,112078
1201915.677558,41554.000,180886,8170,112091
1201915.687892,41564.333,180945,8203,112099
1201915.698225,41574.667,180910,8182,112048
1201915.708558,41585.000,180868,8163,112079
1201915.719258,41595.700,180897,8176,112047
1201915.729958,41606.400,180930,8197,112083
1201915.740658,41617.100,180860,8157,112039
1201915.751358,41627.800,180863,8154,112032
1201915.762058,41638.500,180882,8164,112066
1201915.772758,41649.200,180898,8176,112064
1201915.783458,41659.900,180867,8154,112038
1201915.794158,41670.600,180873,8158,112039
1201915.804858,41681.300,180882,8170,112060
1201915.815558,41692.000,180878,8177,112079
1201915.825194,41701.636,180846,8146,112056
1201915.83483,41711.273,180854,8134,112068
1201915.844467,41720.909,180871,8167,112065
1201915.854103,41730.545,180908,8180,112069
1201915.863739,41740.182,180849,8151,112059
1201915.873375,41749.818,180788,8125,112017
1201915.883012,41759.455,180861,8160,112063
1201915.892648,41769.091,180884,8168,112091
1201915.902284,41778.727,180888,8175,112063
1201915.911921,41788.364,180851,8160,112038
1201915.921557,41798.000,180872,8171,112050
1201915.932001,41808.444,180882,8171,112072
1201915.942446,41818.889,180912,8196,112084
1201915.95289,41829.333,180880,8154,112053
1201915.963335,41839.778,180887,8157,112056
1201915.973779,41850.222,180866,8188,112071
1201915.984223,41860.667,180844,8169,112032
1201915.994668,41871.111,180864,8160,112036
1201916.005112,41881.556,180873,8170,112052
1201916.015557,41892.000,180870,8158,112049
1201916.025193,41901.636,180867,8187,112071
1201916.034829,41911.273,180880,8163,112050
1201916.044465,41920.909,180880,8169,112064
1201916.054102,41930.545,180894,8180,112086
1201916.063738,41940.182,180915,8186,112082
1201916.073374,41949.818,180849,8140,112038
1201916.083011,41959.455,180882,8157,112051
1201916.092647,41969.091,180873,8159,112067
1201916.102283,41978.727,180898,8184,112078
1201916.11192,41988.364,180871,8154,112034
1201916.121556,41998.000,180860,8167,112056
1201916.132,42008.444,180887,8178,112050
1201916.142445,42018.889,180887,8180,112080
1201916.152889,42029.333,180849,8161,112035
1201916.163334,42039.778,180883,8197,112053
1201916.173778,42050.222,180886,8180,112044
1201916.184222,42060.667,180898,8172,112074
1201916.194667,42071.111,180851,8166,112046
1201916.205111,42081.556,180865,8167,112043
1201916.215556,42092.000,180881,8183,112066
1201916.225192,42101.636,180860,8177,112072
1201916.234828,42111.273,180885,8184,112093
1201916.244464,42120.909,180885,8190,112085
1201916.254101,42130.545,180886,8168,112071
1201916.263737,42140.182,180892,8215,112044
1201916.273373,42149.818,180851,8165,112029
1201916.28301,42159.455,180880,8178,112041
1201916.292646,42169.091,180879,8164,112059
1201916.302282,42178.727,180912,8177,112087
1201916.311919,42188.364,180871,8185,112040
1201916.321555,42198.000,180845,8165,112037
1201916.332255,42208.700,180877,8166,112061
1201916.342955,42219.400,180877,8162,112073
1201916.353655,42230.100,180839,8141,112049
1201916.364355,42240.800,180866,8151,112042
1201916.375055,42251.500,180872,8161,112049
1201916.385755,42262.200,180855,8171,112059
1201916.396455,42272.900,180810,8158,112062
1201916.407155,42283.600,180818,8136,112019
1201916.417854,42294.300,180842,8158,112046
1201916.428554,42305.000,180837,8152,112043
1201916.437854,42314.300,180857,8187,112068
1201916.447154,42323.600,180839,8144,112034
1201916.456454,42332.900,180852,8152,112044
1201916.465754,42342.200,180857,8132,112051
1201916.475054,42351.500,180839,8180,112027
1201916.484354,42360.800,180863,8172,112064
1201916.493654,42370.100,180865,8139,112038
1201916.502954,42379.400,180826,8174,112039
1201916.512254,42388.700,180882,8165,112075
1201916.521554,42398.000,180859,8163,112035
1201916.532254,42408.700,180828,8127,112016
1201916.542954,42419.400,180848,8151,112022
1201916.553654,42430.100,180822,8159,112047
1201916.564354,42440.800,180873,8160,112034
1201916.575054,42451.500,180882,8177,112034
1201916.585754,42462.200,180860,8161,112073
1201916.596454,42472.900,180822,8149,112026
1201916.607153,42483.600,180829,8128,112029
1201916.617853,42494.300,180835,8149,112042
1201916.628553,42505.000,180856,8149,112042
1201916.638887,42515.333,180833,8152,112047
1201916.64922,42525.667,180836,8162,112057
1201916.659553,42536.000,180824,8162,112065
1201916.669886,42546.333,180836,8183,112030
1201916.68022,42556.667,180840,8139,112038
1201916.690553,42567.000,180811,8150,112020
1201916.700886,42577.333,180834,8143,112001
1201916.71122,42587.667,180851,8153,112047
1201916.721553,42598.000,180857,8143,112052
1201916.73128,42607.727,180839,8181,112018
1201916.741007,42617.455,180814,8137,112003
1201916.750735,42627.182,180843,8153,112040
1201916.760462,42636.909,180818,8148,112045
1201916.770189,42646.636,180837,8161,112039
1201916.779916,42656.364,180844,8118,112042
1201916.789643,42666.091,180842,8159,112041
1201916.799371,42675.818,180811,8148,112026
1201916.809098,42685.545,180801,8153,112023
1201916.818825,42695.273,180805,8157,112048
1201916.828552,42705.000,180853,8167,112050
1201916.839152,42715.600,180829,8173,112042
1201916.849752,42726.200,180827,8175,112059
1201916.860352,42736.800,180878,8183,112055
1201916.870952,42747.400,180853,8173,112043
1201916.881552,42758.000,180873,8178,112070
1201916.892152,42768.600,180845,8193,112020
1201916.902752,42779.200,180841,8160,112024
1201916.913352,42789.800,180853,8142,112052
1201916.923952,42800.400,180828,8169,112050
1201916.934552,42811.000,180829,8197,112018
1201916.943952,42820.400,180821,8163,112019
1201916.953352,42829.800,180809,8146,112047
1201916.962752,42839.200,180850,8170,112031
1201916.972152,42848.600,180839,8181,112051
1201916.981552,42858.000,180814,8167,112071
1201916.990951,42867.400,180866,8188,112055
1201917.000351,42876.800,180860,8161,112060
1201917.009751,42886.200,180867,8177,112034
1201917.019151,42895.600,180847,8184,112066
1201917.028551,42905.000,180843,8179,112026
1201917.039151,42915.600,180829,8164,112051
1201917.049751,42926.200,180809,8151,112029
1201917.060351,42936.800,180827,8155,112087
1201917.070951,42947.400,180767,8104,112034
1201917.081551,42958.000,180801,8151,112055
1201917.092151,42968.600,180807,8163,112049
1201917.102751,42979.200,180802,8116,112038
1201917.113351,42989.800,180824,8146,112042
1201917.123951,43000.400,180812,8138,112056
1201917.134551,43011.000,180803,8126,112062
1201917.143951,43020.400,180843,8161,112092
1201917.153351,43029.800,180806,8148,112068
1201917.162751,43039.200,180819,8137,112087
1201917.172151,43048.600,180826,8115,112088
1201917.18155,43058.000,180831,8140,112090
1201917.19095,43067.400,180823,8113,112095
1201917.20035,43076.800,180826,8148,112099
1201917.20975,43086.200,180797,8163,112072
1201917.21915,43095.600,180800,8168,112103
1201917.22855,43105.000,180818,8171,112104
1201917.23915,43115.600,180775,8137,112081
1201917.24975,43126.200,180777,8142,112055
1201917.26035,43136.800,180761,8128,112084
1201917.27095,43147.400,180740,8144,112097
1201917.28155,43158.000,180770,8150,112076
1201917.29215,43168.600,180788,8148,112086
1201917.30275,43179.200,180756,8134,112055
1201917.31335,43189.800,180766,8142,112081
1201917.32395,43200.400,180754,8147,112079
1201917.33455,43211.000,180754,8175,112092
1201917.344277,43220.727,180768,8172,112092
1201917.354004,43230.455,180727,8170,112051
1201917.363731,43240.182,180730,8178,112058
1201917.373459,43249.909,180729,8155,112062
1201917.383186,43259.636,180700,8142,112035
1201917.392913,43269.364,180748,8143,112071
1201917.40264,43279.091,180728,8153,112068
1201917.412367,43288.818,180735,8150,112052
1201917.422095,43298.545,180730,8153,112076
1201917.431822,43308.273,180756,8189,112071
1201917.441549,43318.000,180748,8165,112079
1201917.451882,43328.333,180748,8159,112058
1201917.462216,43338.667,180736,8174,112037
1201917.472549,43349.000,180712,8150,112039
1201917.482882,43359.333,180770,8189,112079
1201917.493216,43369.667,180748,8155,112064
1201917.503549,43380.000,180751,8153,112056
1201917.513882,43390.333,180772,8196,112078
1201917.524215,43400.667,180740,8155,112043
1201917.534549,43411.000,180757,8176,112067
1201917.544276,43420.727,180750,8156,112091
1201917.554003,43430.455,180769,8189,112079
1201917.56373,43440.182,180777,8198,112098
1201917.573458,43449.909,180771,8166,112074
1201917.583185,43459.636,180731,8164,112090
1201917.592912,43469.364,180708,8144,112080
1201917.602639,43479.091,180711,8169,112032
1201917.612366,43488.818,180745,8181,112065
1201917.622094,43498.545,180723,8185,112062
1201917.631821,43508.273,180787,8183,112092
1201917.641548,43518.000,180732,8159,112050
1201917.651881,43528.333,180773,8184,112085
1201917.662215,43538.667,180754,8168,112059
1201917.672548,43549.000,180743,8176,112074
1201917.682881,43559.333,180783,8198,112095
1201917.693214,43569.667,180764,8193,112072
1201917.703548,43580.000,180729,8207,112084
1201917.713881,43590.333,180781,8211,112079
1201917.724214,43600.667,180713,8195,112052
1201917.734548,43611.000,180745,8173,112084
1201917.745048,43621.500,180688,8184,112071
1201917.755548,43632.000,180750,8184,112097
1201917.766047,43642.500,180709,8186,112056
1201917.776547,43653.000,180733,8160,112076
1201917.787047,43663.500,180686,8186,112072
1201917.797547,43674.000,180702,8159,112050
1201917.808047,43684.500,180687,8155,112072
1201917.818547,43695.000,180716,8161,112064
1201917.829047,43705.500,180715,8180,112058
1201917.839547,43716.000,180669,8157,112084
1201917.850047,43726.500,180663,8158,112044
1201917.860547,43737.000,180708,8143,112060
1201917.871047,43747.500,180709,8180,112047
1201917.881547,43758.000,180661,8156,112062
1201917.891274,43767.727,180660,8157,112044
1201917.901001,43777.455,180682,8146,112049
1201917.910729,43787.182,180699,8167,112048
1201917.920456,43796.909,180692,8150,112039
1201917.930183,43806.636,180717,8184,112042
1201917.93991,43816.364,180696,8163,112045
1201917.949637,43826.091,180704,8161,112060
1201917.959365,43835.818,180727,8152,112086
1201917.969092,43845.545,180697,8147,112046
1201917.978819,43855.273,180717,8166,112061
1201917.988546,43865.000,180720,8161,112056
1201917.998274,43874.727,180688,8145,112063
1201918.008001,43884.455,180683,8162,112053
1201918.017728,43894.182,180715,8173,112067
1201918.027455,43903.909,180735,8162,112064
1201918.037182,43913.636,180733,8179,112056
1201918.04691,43923.364,180730,8161,112052
1201918.056637,43933.091,180707,8163,112079
1201918.066364,43942.818,180744,8165,112058
1201918.076091,43952.545,180761,8176,112065
1201918.085819,43962.273,180728,8172,112042
1201918.095546,43972.000,180758,8164,112047
1201918.105879,43982.333,180746,8159,112063
1201918.116212,43992.667,180773,8140,112069
1201918.126546,44003.000,180735,8138,112064
1201918.136879,44013.333,180765,8180,112083
1201918.147212,44023.667,180758,8160,112057
1201918.157545,44034.000,180759,8165,112097
1201918.167879,44044.333,180748,8185,112079
1201918.178212,44054.667,180763,8145,112074
1201918.188545,44065.000,180761,8192,112063
1201918.199145,44075.600,180741,8157,112061
1201918.209745,44086.200,180753,8163,112048
1201918.220345,44096.800,180779,8178,112079
1201918.230945,44107.400,180802,8187,112062
1201918.241545,44118.000,180789,8167,112087
1201918.252145,44128.600,180747,8168,112062
1201918.262745,44139.200,180755,8154,112045
1201918.273345,44149.800,180807,8163,112097
1201918.283945,44160.400,180777,8169,112065
1201918.294545,44171.000,180783,8182,112076
1201918.303945,44180.400,180788,8170,112071
1201918.313345,44189.800,180767,8171,112082
1201918.322745,44199.200,180784,8169,112069
1201918.332145,44208.600,180789,8198,112069
1201918.341544,44218.000,180792,8154,112069
1201918.350944,44227.400,180793,8201,112055
1201918.360344,44236.800,180804,8157,112072
1201918.369744,44246.200,180824,8184,112098
1201918.379144,44255.600,180762,8159,112063
1201918.388544,44265.000,180812,8170,112093
1201918.399144,44275.600,180794,8193,112091
1201918.409744,44286.200,180813,8183,112073
1201918.420344,44296.800,180772,8153,112052
1201918.430944,44307.400,180833,8167,112095
1201918.441544,44318.000,180802,8184,112067
1201918.452144,44328.600,180818,8171,112062
1201918.462744,44339.200,180807,8162,112069
1201918.473344,44349.800,180795,8184,112082
1201918.483944,44360.400,180814,8172,112072
1201918.494544,44371.000,180830,8190,112070
1201918.504271,44380.727,180772,8155,112058
1201918.513998,44390.455,180792,8164,112050
1201918.523725,44400.182,180778,8151,112059
1201918.533453,44409.909,180765,8159,112032
1201918.54318,44419.636,180760,8162,112080
1201918.552907,44429.364,180786,8161,112074
1201918.562634,44439.091,180767,8147,112060
1201918.572361,44448.818,180795,8159,112050
1201918.582089,44458.545,180751,8126,112044
1201918.591816,44468.273,180780,8130,112062
1201918.601543,44478.000,180781,8159,112055
1201918.611876,44488.333,180794,8136,112069
1201918.62221,44498.667,180762,8111,112026
1201918.632543,44509.000,180746,8140,112073
1201918.642876,44519.333,180763,8163,112053
1201918.65321,44529.667,180779,8141,112091
1201918.663543,44540.000,180750,8108,112026
1201918.673876,44550.333,180778,8135,112039
1201918.684209,44560.667,180805,8149,112094
1201918.694543,44571.000,180808,8137,112068
1201918.70427,44580.727,180777,8144,112059
1201918.713997,44590.455,180784,8132,112074
1201918.723724,44600.182,180792,8145,112029
1201918.733452,44609.909,180810,8137,112063
1201918.743179,44619.636,180793,8119,112042
1201918.752906,44629.364,180801,8109,112070
1201918.762633,44639.091,180817,8165,112091
1201918.77236,44648.818,180796,8135,112062
1201918.782088,44658.545,180786,8123,112058
1201918.791815,44668.273,180772,8125,112079
1201918.801542,44678.000,180820,8181,112089
1201918.812242,44688.700,180784,8127,112060
1201918.822942,44699.400,180785,8121,112058
1201918.833642,44710.100,180804,8141,112035
1201918.844342,44720.800,180819,8141,112088
1201918.855042,44731.500,180788,8132,112070
1201918.865742,44742.200,180770,8145,112039
1201918.876442,44752.900,180819,8140,112076
1201918.887142,44763.600,180806,8148,112091
1201918.897842,44774.300,180788,8130,112063
1201918.908542,44785.000,180802,8133,112051
1201918.917841,44794.300,180783,8129,112045
1201918.927141,44803.600,180823,8132,112074
1201918.936441,44812.900,180779,8136,112037
1201918.945741,44822.200,180764,8131,112050
1201918.955041,44831.500,180772,8129,112080
1201918.964341,44840.800,180834,8164,112082
1201918.973641,44850.100,180814,8135,112064
1201918.982941,44859.400,180807,8123,112038
1201918.992241,44868.700,180763,8114,112038
1201919.001541,44878.000,180815,8131,112073
1201919.012241,44888.700,180806,8130,112065
1201919.022941,44899.400,180777,8162,112049
1201919.033641,44910.100,180811,8122,112064
1201919.044341,44920.800,180788,8145,112076
1201919.055041,44931.500,180781,8117,112059
1201919.065741,44942.200,180790,8134,112030
1201919.076441,44952.900,180794,8129,112054
1201919.087141,44963.600,180802,8140,112065
1201919.097841,44974.300,180790,8153,112063
1201919.10854,44985.000,180817,8148,112070
1201919.118874,44995.333,180781,8147,112075
1201919.129207,45005.667,180817,8143,112094
1201919.13954,45016.000,180793,8124,112057
1201919.149874,45026.333,180826,8142,112065
1201919.160207,45036.667,180784,8155,112054
1201919.17054,45047.000,180841,8127,112076
1201919.180873,45057.333,180798,8161,112078
1201919.191207,45067.667,180799,8151,112082
1201919.20154,45078.000,180739,8103,112065
1201919.211267,45087.727,180749,8140,112083
1201919.220994,45097.455,180753,8108,112054
1201919.230722,45107.182,180780,8144,112058
1201919.240449,45116.909,180758,8124,112065
1201919.250176,45126.636,180767,8130,112068
1201919.259903,45136.364,180722,8127,112024
1201919.269631,45146.091,180731,8126,112069
1201919.279358,45155.818,180717,8137,112061
1201919.289085,45165.545,180745,8123,112053
1201919.298812,45175.273,180760,8141,112082
1201919.308539,45185.000,180725,8114,112062
1201919.318267,45194.727,180739,8094,112053
1201919.327994,45204.455,180766,8110,112091
1201919.337721,45214.182,180703,8094,112016
1201919.347448,45223.909,180720,8101,112060
1201919.357176,45233.636,180705,8085,112060
1201919.366903,45243.364,180695,8121,112061
1201919.37663,45253.091,180739,8108,112053
1201919.386357,45262.818,180711,8099,112056
1201919.396084,45272.545,180679,8110,112039
1201919.405812,45282.273,180705,8088,112033
1201919.415539,45292.000,180733,8103,112064
1201919.425872,45302.333,180718,8087,112063
1201919.436205,45312.667,180689,8119,112037
1201919.446539,45323.000,180722,8111,112079
1201919.456872,45333.333,180721,8105,112038
1201919.467205,45343.667,180653,8055,112053
1201919.477539,45354.000,180708,8102,112027
1201919.487872,45364.333,180714,8080,112049
1201919.498205,45374.667,180736,8108,112059
1201919.508538,45385.000,180702,8102,112042
1201919.519138,45395.600,180714,8095,112055
1201919.529738,45406.200,180704,8072,112054
1201919.540338,45416.800,180696,8078,112058
1201919.550938,45427.400,180690,8077,112037
1201919.561538,45438.000,180715,8083,112054
1201919.572138,45448.600,180677,8071,112049
1201919.582738,45459.200,180689,8071,112039
1201919.593338,45469.800,180697,8099,112039
1201919.603938,45480.400,180706,8075,112040
1201919.614538,45491.000,180708,8083,112038
1201919.623938,45500.400,180687,8076,112085
1201919.633338,45509.800,180693,8079,112054
1201919.642738,45519.200,180706,8082,112060
1201919.652138,45528.600,180733,8054,112051
1201919.661538,45538.000,180694,8111,112060
1201919.670938,45547.400,180673,8068,112033
1201919.680337,45556.800,180723,8088,112052
1201919.689737,45566.200,180695,8068,112056
1201919.699137,45575.600,180722,8102,112069
1201919.708537,45585.000,180718,8106,112059
1201919.719137,45595.600,180712,8086,112066
1201919.729737,45606.200,180689,8061,112029
1201919.740337,45616.800,180720,8109,112067
1201919.750937,45627.400,180720,8107,112060
1201919.761537,45638.000,180715,8086,112059
1201919.772137,45648.600,180705,8078,112034
1201919.782737,45659.200,180735,8101,112043
1201919.793337,45669.800,180722,8101,112071
1201919.803937,45680.400,180727,8094,112070
1201919.814537,45691.000,180707,8102,112033
1201919.824264,45700.727,180740,8109,112084
1201919.833991,45710.455,180739,8107,112070
1201919.843718,45720.182,180745,8092,112061
1201919.853446,45729.909,180702,8091,112058
1201919.863173,45739.636,180715,8090,112092
1201919.8729,45749.364,180704,8084,112033
1201919.882627,45759.091,180692,8075,112062
1201919.892355,45768.818,180743,8095,112024
1201919.902082,45778.545,180730,8090,112066
1201919.911809,45788.273,180764,8105,112081
1201919.921536,45798.000,180700,8092,112041
1201919.93187,45808.333,180746,8104,112052
1201919.942203,45818.667,180723,8100,112054
1201919.952536,45829.000,180721,8101,112056
1201919.962869,45839.333,180744,8075,112059
1201919.973203,45849.667,180741,8088,112044
1201919.983536,45860.000,180709,8087,112042
1201919.993869,45870.333,180757,8099,112060
1201920.004202,45880.667,180734,8086,112006
1201920.014536,45891.000,180717,8080,112043
1201920.024263,45900.727,180689,8074,112019
1201920.03399,45910.455,180703,8069,112002
1201920.043717,45920.182,180702,8044,112019
1201920.053445,45929.909,180730,8056,112030
1201920.063172,45939.636,180732,8048,112015
1201920.072899,45949.364,180725,8061,112037
1201920.082626,45959.091,180705,8036,112019
1201920.092354,45968.818,180727,8043,112034
1201920.102081,45978.545,180737,8018,112023
1201920.111808,45988.273,180773,8067,112030
1201920.121535,45998.000,180767,8071,112034
1201920.132135,46008.600,180710,8023,112018
1201920.142735,46019.200,180749,8023,112010
1201920.153335,46029.800,180725,8054,112022
1201920.163935,46040.400,180735,8019,112031
1201920.174535,46051.000,180773,8042,112031
1201920.185135,46061.600,180776,8019,112031
1201920.195735,46072.200,180789,8057,112060
1201920.206335,46082.800,180812,8042,112061
1201920.216935,46093.400,180795,8034,112047
1201920.227535,46104.000,180808,8039,112009
1201920.237979,46114.444,180832,8035,112052
1201920.248423,46124.889,180815,8006,112048
1201920.258868,46135.333,180813,8007,112035
1201920.269312,46145.778,180790,8047,112040
1201920.279757,46156.222,180800,8016,112035
1201920.290201,46166.667,180801,8023,112026
1201920.300645,46177.111,180805,8006,112051
1201920.31109,46187.556,180849,8026,112035
1201920.321534,46198.000,180852,8039,112070
1201920.331261,46207.727,180877,8028,112031
1201920.340989,46217.455,180858,8005,112033
1201920.350716,46227.182,180894,8027,112061
1201920.360443,46236.909,180906,8022,112052
1201920.37017,46246.636,180951,8018,112070
1201920.379897,46256.364,180919,8020,112058
1201920.389625,46266.091,180957,8027,112080
1201920.399352,46275.818,180980,8060,112130
1201920.409079,46285.545,180970,8006,112100
1201920.418806,46295.273,180994,8029,112083
1201920.428534,46305.000,180998,8010,112093
1201920.438867,46315.333,181025,8018,112083
1201920.4492,46325.667,181030,8030,112083
1201920.459533,46336.000,181005,7999,112092
1201920.469867,46346.333,181050,8021,112104
1201920.4802,46356.667,181086,8032,112147
1201920.490533,46367.000,181088,8030,112123
1201920.500867,46377.333,181059,8028,112104
1201920.5112,46387.667,181090,8016,112113
1201920.521533,46398.000,181076,8017,112097
1201920.531169,46407.636,181093,8009,112119
1201920.540806,46417.273,181070,7998,112055
1201920.550442,46426.909,181102,8004,112122
1201920.560078,46436.545,181106,8031,112122
1201920.569715,46446.182,181128,8011,112132
1201920.579351,46455.818,181100,8003,112143
1201920.588987,46465.455,181155,8021,112138
1201920.598624,46475.091,181171,8010,112136
1201920.60826,46484.727,181143,8002,112140
1201920.617896,46494.364,181179,8053,112170
1201920.627533,46504.000,181176,8021,112129
1201920.638233,46514.700,181151,8028,112115
1201920.648932,46525.400,181191,8021,112131
1201920.659632,46536.100,181174,8016,112119
1201920.670332,46546.800,181185,7987,112136
1201920.681032,46557.500,181196,8007,112156
1201920.691732,46568.200,181227,8001,112145
1201920.702432,46578.900,181208,8040,112111
1201920.713132,46589.600,181250,8012,112155
1201920.723832,46600.300,181237,8015,112155
1201920.734532,46611.000,181212,8006,112137
1201920.743932,46620.400,181269,8039,112167
1201920.753332,46629.800,181216,7990,112139
1201920.762732,46639.200,181258,8002,112149
1201920.772132,46648.600,181279,8012,112173
1201920.781532,46658.000,181240,7979,112137
1201920.790932,46667.400,181242,7958,112145
1201920.800332,46676.800,181233,7981,112136
1201920.809732,46686.200,181257,7968,112121
1201920.819132,46695.600,181234,7974,112115
1201920.828532,46705.000,181252,7995,112147
1201920.839131,46715.600,181286,7970,112143
1201920.849731,46726.200,181277,7949,112129
1201920.860331,46736.800,181270,7972,112118
1201920.870931,46747.400,181295,7963,112155
1201920.881531,46758.000,181311,7967,112150
1201920.892131,46768.600,181346,7977,112183
1201920.902731,46779.200,181358,7988,112158
1201920.913331,46789.800,181353,7960,112165
1201920.923931,46800.400,181344,7950,112149
1201920.934531,46811.000,181358,7981,112149
1201920.943831,46820.300,181370,,112166
1201920.943931,46820.400,,7944,
1201920.953131,46829.600,181378,,112156
1201920.953331,46829.800,,7963,
1201920.962431,46838.900,181383,,112151
1201920.962731,46839.200,,7955,
1201920.971731,46848.200,181392,,112184
1201920.972131,46848.600,,7969,
1201920.981031,46857.500,181360,,112129
1201920.981531,46858.000,,7926,
1201920.990331,46866.800,181379,,112156
1201920.990931,46867.400,,7922,
1201920.999631,46876.100,181416,,112160
1201921.000331,46876.800,,7940,
1201921.008931,46885.400,181397,,112132
1201921.009731,46886.200,,7921,
1201921.018231,46894.700,181391,,112155
1201921.019131,46895.600,,7937,
1201921.02753,46904.000,181466,,112169
1201921.02853,46905.000,,7940,
1201921.03823,46914.700,181451,,112174
1201921.03913,46915.600,,7939,
1201921.04893,46925.400,181451,,112136
1201921.04973,46926.200,,7930,
1201921.05963,46936.100,181429,,112123
1201921.06033,46936.800,,7904,
1201921.07033,46946.800,181483,,112186
1201921.07093,46947.400,,7952,
1201921.08103,46957.500,181477,,112177
1201921.08153,46958.000,,7915,
1201921.09173,46968.200,181481,,112191
1201921.09213,46968.600,,7914,
1201921.10243,46978.900,181512,,112182
1201921.10273,46979.200,,7953,
1201921.11313,46989.600,181498,,112151
1201921.11333,46989.800,,7916,
1201921.12383,47000.300,181484,,112180
1201921.12393,47000.400,,7893,
1201921.13453,47011.000,181510,7915,112164
1201921.144863,47021.333,181543,7900,112196
1201921.155196,47031.667,181541,7933,112199
1201921.16553,47042.000,181551,7912,112173
1201921.175863,47052.333,181538,7906,112208
1201921.186196,47062.667,181518,7929,112179
1201921.19653,47073.000,181580,7913,112214
1201921.206863,47083.333,181530,7928,112145
1201921.217196,47093.667,181547,7903,112183
1201921.227529,47104.000,181564,7876,112168
1201921.237257,47113.727,181531,7908,112173
1201921.246984,47123.455,181572,7885,112197
1201921.256711,47133.182,181564,7906,112176
1201921.266438,47142.909,181541,7879,112190
1201921.276166,47152.636,181578,7921,112163
