LslMarkerSourceTimestamp,EmotiBitTimestamp,PI,PG,PR
1032478.772411,89579.0,172407.0,6753.0,108717.0
1032478.772411,89579.0,172411.0,6753.0,108759.0
1032478.772411,89579.0,172411.0,6753.0,108740.0
1032478.772411,89579.0,172411.0,6733.0,108717.0
1032478.772411,89579.0,172411.0,6733.0,108716.0
1032478.772411,89579.0,172411.0,6733.0,108759.0
1032478.772411,89579.0,172411.0,6733.0,108740.0
1032478.772411,89579.0,172411.0,6731.0,108717.0
1032478.772411,89579.0,172411.0,6731.0,108716.0
1032478.772411,89579.0,172411.0,6731.0,108759.0
1032478.772411,89579.0,172411.0,6731.0,108740.0
1032478.772411,89579.0,172411.0,6752.0,108717.0
1032478.772411,89579.0,172411.0,6752.0,108759.0
1032478.772411,89579.0,172411.0,6752.0,108740.0
1032478.772411,89579.0,172392.0,6753.0,108717.0
1032478.772411,89579.0,172392.0,6753.0,108716.0
1032478.772411,89579.0,172392.0,6753.0,108759.0
1032478.772411,89579.0,172392.0,6753.0,108740.0
1032478.772411,89579.0,172392.0,6733.0,108717.0
1032478.772411,89579.0,172392.0,6733.0,108716.0
1032478.772411,89579.0,172392.0,6733.0,108759.0
1032478.772411,89579.0,172392.0,6733.0,108740.0
1032478.772411,89579.0,172392.0,6731.0,108717.0
1032478.772411,89579.0,172392.0,6731.0,108716.0
1032478.772411,89579.0,172392.0,6731.0,108759.0
1032478.772411,89579.0,172392.0,6731.0,108740.0
1032478.772411,89579.0,172392.0,6752.0,108717.0
1032478.772411,89579.0,172392.0,6752.0,108716.0
1032478.772411,89579.0,172392.0,6752.0,108759.0
1032478.772411,89579.0,172392.0,6752.0,108740.0
1032478.772411,89579.0,172411.0,6753.0,108716.0
1032478.772411,89579.0,172411.0,6753.0,108717.0
1032478.772411,89579.0,172411.0,6752.0,108716.0
1032478.772411,89579.0,172357.0,6752.0,108759.0
1032478.772411,89579.0,172407.0,6753.0,108716.0
1032478.772411,89579.0,172357.0,6752.0,108740.0
1032478.772411,89579.0,172407.0,6753.0,108740.0
1032478.772411,89579.0,172407.0,6733.0,108717.0
1032478.772411,89579.0,172407.0,6733.0,108716.0
1032478.772411,89579.0,172407.0,6733.0,108759.0
1032478.772411,89579.0,172407.0,6733.0,108740.0
1032478.772411,89579.0,172407.0,6731.0,108717.0
1032478.772411,89579.0,172407.0,6731.0,108716.0
1032478.772411,89579.0,172407.0,6731.0,108759.0
1032478.772411,89579.0,172407.0,6731.0,108740.0
1032478.772411,89579.0,172407.0,6752.0,108717.0
1032478.772411,89579.0,172407.0,6752.0,108716.0
1032478.772411,89579.0,172407.0,6752.0,108759.0
1032478.772411,89579.0,172407.0,6752.0,108740.0
1032478.772411,89579.0,172407.0,6753.0,108759.0
1032478.772411,89579.0,172357.0,6753.0,108716.0
1032478.772411,89579.0,172357.0,6752.0,108716.0
1032478.772411,89579.0,172357.0,6752.0,108717.0
1032478.772411,89579.0,172357.0,6731.0,108740.0
1032478.772411,89579.0,172357.0,6731.0,108759.0
1032478.772411,89579.0,172357.0,6731.0,108717.0
1032478.772411,89579.0,172357.0,6733.0,108740.0
1032478.772411,89579.0,172357.0,6731.0,108716.0
1032478.772411,89579.0,172357.0,6733.0,108716.0
1032478.772411,89579.0,172357.0,6733.0,108717.0
1032478.772411,89579.0,172357.0,6753.0,108740.0
1032478.772411,89579.0,172357.0,6753.0,108717.0
1032478.772411,89579.0,172357.0,6753.0,108759.0
1032478.772411,89579.0,172357.0,6733.0,108759.0
1032478.782745,89589.333,172339.0,6723.0,108718.0
1032478.793079,89599.667,172350.0,6752.0,108746.0
1032478.803413,89610.0,172327.0,6736.0,108686.0
1032478.813748,89620.333,172302.0,6716.0,108703.0
1032478.824082,89630.667,172274.0,6707.0,108676.0
1032478.834416,89641.0,172269.0,6690.0,108675.0
1032478.84475,89651.333,172273.0,6688.0,108687.0
1032478.855084,89661.667,172243.0,6688.0,108684.0
1032478.865418,89672.0,172244.0,6676.0,108684.0
1032478.875146,89681.727,172261.0,6678.0,108666.0
1032478.884874,89691.455,172211.0,6647.0,108654.0
1032478.894602,89701.182,172251.0,6670.0,108681.0
1032478.90433,89710.909,172257.0,6664.0,108718.0
1032478.914058,89720.636,172244.0,6690.0,108676.0
1032478.923786,89730.364,172244.0,6664.0,108687.0
1032478.933514,89740.091,172239.0,6666.0,108676.0
1032478.943242,89749.818,172233.0,6690.0,108712.0
1032478.95297,89759.545,172181.0,6665.0,108661.0
1032478.962698,89769.273,172239.0,6646.0,108716.0
1032478.972426,89779.0,172238.0,6662.0,108689.0
1032478.983127,89789.7,172245.0,6718.0,108681.0
1032478.993828,89800.4,172244.0,6683.0,108705.0
1032479.004528,89811.1,172306.0,6711.0,108689.0
1032479.015229,89821.8,172272.0,6663.0,108730.0
1032479.02593,89832.5,172292.0,6695.0,108719.0
1032479.036631,89843.2,172287.0,6707.0,108755.0
1032479.047332,89853.9,172257.0,6699.0,108732.0
1032479.058032,89864.6,172221.0,6682.0,108695.0
1032479.068733,89875.3,172250.0,6689.0,108731.0
1032479.079434,89886.0,172253.0,6699.0,108743.0
1032479.088735,89895.3,172221.0,6684.0,108729.0
1032479.098035,89904.6,172231.0,6664.0,108728.0
1032479.107336,89913.9,172258.0,6710.0,108737.0
1032479.116637,89923.2,172263.0,6740.0,108741.0
1032479.125938,89932.5,172289.0,6727.0,108724.0
1032479.135238,89941.8,172236.0,6708.0,108737.0
1032479.144539,89951.1,172240.0,6711.0,108711.0
1032479.15384,89960.4,172233.0,6706.0,108701.0
1032479.16314,89969.7,172211.0,6703.0,108713.0
1032479.172441,89979.0,172225.0,6722.0,108738.0
1032479.183142,89989.7,172254.0,6714.0,108730.0
1032479.193843,90000.4,172281.0,6703.0,108723.0
1032479.204543,90011.1,172296.0,6714.0,108743.0
1032479.215244,90021.8,172282.0,6724.0,108741.0
1032479.225945,90032.5,172305.0,6727.0,108748.0
1032479.236646,90043.2,172293.0,6718.0,108744.0
1032479.247347,90053.9,172282.0,6734.0,108751.0
1032479.258047,90064.6,172278.0,6719.0,108721.0
1032479.268748,90075.3,172347.0,6733.0,108747.0
1032479.279449,90086.0,172363.0,6747.0,108769.0
1032479.289086,90095.636,172416.0,6782.0,108762.0
1032479.298723,90105.273,172395.0,6727.0,108725.0
1032479.30836,90114.909,172357.0,6748.0,108734.0
1032479.317997,90124.545,172298.0,6768.0,108727.0
1032479.327634,90134.182,172195.0,6728.0,108655.0
1032479.337272,90143.818,172037.0,6735.0,108644.0
1032479.346909,90153.455,171892.0,6707.0,108578.0
1032479.356546,90163.091,171707.0,6715.0,108543.0
1032479.366183,90172.727,171485.0,6655.0,108443.0
1032479.37582,90182.364,171322.0,6624.0,108397.0
1032479.385457,90192.0,171037.0,6594.0,108322.0
1032479.395902,90202.444,170700.0,6553.0,108210.0
1032479.406347,90212.889,170338.0,6509.0,108118.0
1032479.416793,90223.333,170007.0,6511.0,107997.0
1032479.427238,90233.778,169662.0,6442.0,107859.0
1032479.437683,90244.222,169309.0,6392.0,107749.0
1032479.448128,90254.667,168997.0,6405.0,107636.0
1032479.458574,90265.111,168631.0,6367.0,107506.0
1032479.469019,90275.556,168319.0,6318.0,107383.0
1032479.479464,90286.0,168037.0,6321.0,107273.0
1032479.489192,90295.727,167842.0,6325.0,107199.0
1032479.49892,90305.455,167593.0,6282.0,107076.0
1032479.508648,90315.182,167429.0,6283.0,107023.0
1032479.518376,90324.909,167229.0,6260.0,106925.0
1032479.528104,90334.636,166998.0,6255.0,106781.0
1032479.537832,90344.364,166700.0,6224.0,106652.0
1032479.54756,90354.091,166547.0,6232.0,106585.0
1032479.557288,90363.818,166314.0,6193.0,106507.0
1032479.567016,90373.545,165979.0,6171.0,106381.0
1032479.576744,90383.273,165647.0,6154.0,106244.0
1032479.586472,90393.0,165333.0,6132.0,106141.0
1032479.596806,90403.333,165084.0,6103.0,105996.0
1032479.60714,90413.667,164948.0,6094.0,105964.0
1032479.617474,90424.0,164828.0,6110.0,105908.0
1032479.627808,90434.333,164729.0,6053.0,105844.0
1032479.638142,90444.667,164695.0,6045.0,105831.0
1032479.648477,90455.0,164640.0,6038.0,105774.0
1032479.658811,90465.333,164587.0,6034.0,105769.0
1032479.669145,90475.667,164442.0,5979.0,105662.0
1032479.679479,90486.0,164306.0,5997.0,105582.0
1032479.689116,90495.636,164128.0,,
1032479.689207,90495.727,,5965.0,105476.0
1032479.698753,90505.273,163978.0,,
1032479.698935,90505.455,,5966.0,105363.0
1032479.70839,90514.909,163859.0,,
1032479.708663,90515.182,,5940.0,105288.0
1032479.718027,90524.545,163676.0,,
1032479.718391,90524.909,,5922.0,105162.0
1032479.727664,90534.182,163412.0,,
1032479.728119,90534.636,,5878.0,105009.0
1032479.737301,90543.818,163096.0,,
1032479.737847,90544.364,,5852.0,104721.0
1032479.746938,90553.455,162717.0,,
1032479.747575,90554.091,,5848.0,104466.0
1032479.756576,90563.091,162265.0,,
1032479.757303,90563.818,,5792.0,104142.0
1032479.766213,90572.727,161790.0,,
1032479.767031,90573.545,,5785.0,103804.0
1032479.77585,90582.364,161385.0,,
1032479.776759,90583.273,,5721.0,103488.0
1032479.785487,90592.0,160928.0,,
1032479.786487,90593.0,,5715.0,103156.0
1032479.795488,90602.0,160398.0,,
1032479.796404,90602.917,,,102737.0
1032479.796488,90603.0,,5662.0,
1032479.805488,90612.0,159871.0,,
1032479.806322,90612.833,,,102341.0
1032479.806488,90613.0,,5643.0,
1032479.815489,90622.0,159447.0,,
1032479.816239,90622.75,,,102032.0
1032479.816489,90623.0,,5613.0,
1032479.82549,90632.0,158990.0,,
1032479.826157,90632.667,,,101658.0
1032479.82649,90633.0,,5559.0,
1032479.835491,90642.0,158630.0,,
1032479.836074,90642.583,,,101330.0
1032479.836491,90643.0,,5544.0,
1032479.845491,90652.0,158148.0,,
1032479.845991,90652.5,,,100918.0
1032479.846491,90653.0,,5507.0,
1032479.855492,90662.0,157686.0,,
1032479.855909,90662.417,,,100535.0
1032479.856492,90663.0,,5487.0,
1032479.865493,90672.0,157117.0,,
1032479.865826,90672.333,,,100066.0
1032479.866493,90673.0,,5436.0,
1032479.875494,90682.0,156621.0,,
1032479.875744,90682.25,,,99723.0
1032479.876494,90683.0,,5434.0,
1032479.885494,90692.0,156286.0,,
1032479.885661,90692.167,,,99423.0
1032479.886494,90693.0,,5440.0,
1032479.895495,90702.0,156387.0,,
1032479.895578,90702.083,,,99503.0
1032479.896495,90703.0,,5431.0,
1032479.905496,90712.0,157176.0,,99902.0
1032479.906496,90713.0,,5399.0,
1032479.916197,90722.7,157313.0,,100132.0
1032479.917097,90723.6,,5394.0,
1032479.926897,90733.4,157400.0,,100223.0
1032479.927697,90734.2,,5384.0,
1032479.937598,90744.1,157405.0,,100210.0
1032479.938298,90744.8,,5359.0,
1032479.948299,90754.8,157473.0,,100227.0
1032479.948899,90755.4,,5379.0,
1032479.959,90765.5,157435.0,,100216.0
1032479.9595,90766.0,,5391.0,
1032479.969701,90776.2,157467.0,,100141.0
1032479.970101,90776.6,,5380.0,
1032479.980401,90786.9,157441.0,,100086.0
1032479.980701,90787.2,,5368.0,
1032479.991102,90797.6,157525.0,,100033.0
1032479.991302,90797.8,,5363.0,
1032480.001803,90808.3,157559.0,,99942.0
1032480.001903,90808.4,,5407.0,
1032480.012504,90819.0,157515.0,5407.0,99922.0
1032480.022838,90829.333,157451.0,5374.0,99867.0
1032480.033172,90839.667,157424.0,5396.0,99884.0
1032480.043506,90850.0,157416.0,5385.0,99806.0
1032480.05384,90860.333,157485.0,5400.0,99720.0
1032480.064174,90870.667,157531.0,5413.0,99714.0
1032480.074508,90881.0,157487.0,5399.0,99624.0
1032480.084843,90891.333,157489.0,5409.0,99586.0
1032480.095177,90901.667,157480.0,5442.0,99604.0
1032480.105511,90912.0,157464.0,5449.0,99617.0
1032480.115239,90921.727,157479.0,5468.0,99618.0
1032480.124967,90931.455,157467.0,5446.0,99640.0
1032480.134695,90941.182,157475.0,5496.0,99680.0
1032480.144423,90950.909,157441.0,5500.0,99628.0
1032480.154151,90960.636,157487.0,5547.0,99685.0
1032480.163879,90970.364,157557.0,5549.0,99698.0
1032480.173607,90980.091,157576.0,5542.0,99706.0
1032480.183335,90989.818,157664.0,5538.0,99777.0
1032480.193063,90999.545,157764.0,5577.0,99891.0
1032480.202791,91009.273,158001.0,5618.0,100043.0
1032480.212519,91019.0,158270.0,5621.0,100184.0
1032480.222853,91029.333,158583.0,5635.0,100392.0
1032480.233187,91039.667,158932.0,5661.0,100635.0
1032480.243521,91050.0,159382.0,5700.0,100907.0
1032480.253855,91060.333,159862.0,5750.0,101261.0
1032480.264189,91070.667,160277.0,5756.0,101625.0
1032480.274523,91081.0,160743.0,5835.0,101995.0
1032480.284858,91091.333,161219.0,5865.0,102466.0
1032480.295192,91101.667,161911.0,5913.0,103105.0
1032480.305526,91112.0,162828.0,5972.0,103913.0
1032480.315254,91121.727,164097.0,6082.0,104898.0
1032480.324982,91131.455,165443.0,6120.0,105962.0
1032480.33471,91141.182,166385.0,6181.0,106696.0
1032480.344438,91150.909,166923.0,6230.0,107202.0
1032480.354166,91160.636,167445.0,6246.0,107656.0
1032480.363894,91170.364,167955.0,6329.0,108151.0
1032480.373622,91180.091,168419.0,6354.0,108520.0
1032480.38335,91189.818,169032.0,6354.0,108954.0
1032480.393078,91199.545,169765.0,6424.0,109489.0
1032480.402806,91209.273,170714.0,6502.0,110198.0
1032480.412534,91219.0,171497.0,6528.0,110731.0
1032480.422262,91228.727,172131.0,6567.0,111145.0
1032480.43199,91238.455,172717.0,6575.0,111444.0
1032480.441718,91248.182,173296.0,6598.0,111762.0
1032480.451446,91257.909,173803.0,6653.0,112028.0
1032480.461174,91267.636,174078.0,6664.0,112126.0
1032480.470902,91277.364,174141.0,6694.0,112177.0
1032480.48063,91287.091,174112.0,6671.0,112133.0
1032480.490358,91296.818,174110.0,6673.0,112153.0
1032480.500086,91306.545,174124.0,6727.0,112120.0
1032480.509814,91316.273,174195.0,6680.0,112175.0
1032480.519542,91326.0,174181.0,6680.0,112169.0
1032480.529876,91336.333,174205.0,6679.0,112206.0
1032480.54021,91346.667,174344.0,6702.0,112234.0
1032480.550544,91357.0,174338.0,6693.0,112240.0
1032480.560878,91367.333,174179.0,6713.0,112215.0
1032480.571212,91377.667,173801.0,6692.0,112002.0
1032480.581546,91388.0,173145.0,6651.0,111737.0
1032480.59188,91398.333,172475.0,6626.0,111378.0
1032480.602215,91408.667,171739.0,6599.0,111027.0
1032480.612549,91419.0,171140.0,6585.0,110731.0
1032480.623149,91429.6,170600.0,6539.0,110406.0
1032480.63375,91440.2,170173.0,6526.0,110150.0
1032480.644351,91450.8,169960.0,6529.0,110054.0
1032480.654952,91461.4,169849.0,6507.0,109963.0
1032480.665553,91472.0,169720.0,6501.0,109919.0
1032480.676153,91482.6,169643.0,6491.0,109885.0
1032480.686754,91493.2,169687.0,6504.0,109977.0
1032480.697355,91503.8,169752.0,6523.0,110037.0
1032480.707956,91514.4,169786.0,6503.0,110108.0
1032480.718557,91525.0,169742.0,6514.0,110137.0
1032480.728285,91534.727,169679.0,6534.0,110126.0
1032480.738013,91544.455,169570.0,6478.0,110074.0
1032480.747741,91554.182,169675.0,6519.0,110244.0
1032480.757469,91563.909,169924.0,6550.0,110505.0
1032480.767197,91573.636,170273.0,6577.0,110785.0
1032480.776925,91583.364,170765.0,6608.0,111209.0
1032480.786653,91593.091,171439.0,6656.0,111740.0
1032480.796381,91602.818,172181.0,6719.0,112371.0
1032480.806109,91612.545,172628.0,6756.0,112752.0
1032480.815837,91622.273,172880.0,6789.0,113017.0
1032480.825565,91632.0,173050.0,6849.0,113215.0
1032480.83601,91642.444,173095.0,6890.0,113337.0
1032480.846455,91652.889,173044.0,6858.0,113364.0
1032480.8569,91663.333,172940.0,6883.0,113328.0
1032480.867346,91673.778,172786.0,6869.0,113256.0
1032480.877791,91684.222,172598.0,6863.0,113213.0
1032480.888236,91694.667,172381.0,6834.0,113123.0
1032480.898681,91705.111,172133.0,6871.0,113029.0
1032480.909126,91715.556,171825.0,6844.0,112902.0
1032480.919572,91726.0,171524.0,6853.0,112803.0
1032480.929209,91735.636,171325.0,6856.0,112826.0
1032480.938846,91745.273,171276.0,6855.0,112808.0
1032480.948483,91754.909,171259.0,6864.0,112871.0
1032480.95812,91764.545,171367.0,6860.0,112948.0
1032480.967757,91774.182,171423.0,6878.0,112928.0
1032480.977394,91783.818,171326.0,6829.0,112858.0
1032480.987031,91793.455,171268.0,6862.0,112875.0
1032480.996668,91803.091,171178.0,6876.0,112874.0
1032481.006305,91812.727,171250.0,6889.0,112940.0
1032481.015942,91822.364,171525.0,6872.0,113115.0
1032481.02558,91832.0,171957.0,6935.0,113397.0
1032481.035914,91842.333,172411.0,6957.0,113644.0
1032481.046248,91852.667,173078.0,7012.0,113962.0
1032481.056582,91863.0,173889.0,7057.0,114317.0
1032481.066916,91873.333,174805.0,7093.0,114305.0
1032481.07725,91883.667,175754.0,7111.0,114445.0
1032481.087584,91894.0,176730.0,7148.0,114786.0
1032481.097918,91904.333,177670.0,7228.0,115108.0
1032481.108252,91914.667,178543.0,7262.0,115345.0
1032481.118587,91925.0,179416.0,7310.0,115575.0
1032481.128315,91934.727,179924.0,,
1032481.128405,91934.818,,7328.0,115644.0
1032481.138043,91944.455,180057.0,,
1032481.138224,91944.636,,7374.0,115681.0
1032481.147771,91954.182,180459.0,,
1032481.148043,91954.455,,7402.0,115828.0
1032481.157499,91963.909,180935.0,,
1032481.157862,91964.273,,7427.0,115973.0
1032481.167227,91973.636,181265.0,,
1032481.167681,91974.091,,7423.0,116076.0
1032481.176955,91983.364,181422.0,,
1032481.1775,91983.909,,7443.0,116159.0
1032481.186683,91993.091,181412.0,,
1032481.187319,91993.727,,7456.0,116225.0
1032481.196411,92002.818,181299.0,,
1032481.197138,92003.545,,7467.0,116182.0
1032481.206139,92012.545,181066.0,,
1032481.206957,92013.364,,7438.0,116096.0
1032481.215867,92022.273,180783.0,,
1032481.216776,92023.182,,7401.0,115985.0
1032481.225595,92032.0,180572.0,,
1032481.226595,92033.0,,7385.0,115873.0
1032481.236295,92042.7,180448.0,,
1032481.237195,92043.6,,7380.0,115818.0
1032481.246996,92053.4,180359.0,,
1032481.247796,92054.2,,7373.0,115758.0
1032481.257697,92064.1,180298.0,,
1032481.258397,92064.8,,7385.0,115786.0
1032481.268398,92074.8,180206.0,,
1032481.268998,92075.4,,7338.0,115716.0
1032481.279099,92085.5,180199.0,,
1032481.279599,92086.0,,7360.0,115739.0
1032481.289799,92096.2,180176.0,,
1032481.290199,92096.6,,7334.0,115721.0
1032481.3005,92106.9,180143.0,,
1032481.3008,92107.2,,7335.0,115753.0
1032481.311201,92117.6,180174.0,,
1032481.311401,92117.8,,7332.0,115786.0
1032481.321902,92128.3,180144.0,,
1032481.322002,92128.4,,7347.0,115759.0
1032481.332603,92139.0,180085.0,7382.0,115723.0
1032481.341903,92148.3,179945.0,7328.0,115660.0
1032481.351204,92157.6,179773.0,7370.0,115604.0
1032481.360505,92166.9,179619.0,7349.0,115527.0
1032481.369805,92176.2,179494.0,7348.0,115471.0
1032481.379106,92185.5,179337.0,7315.0,115415.0
1032481.388407,92194.8,179305.0,7359.0,115421.0
1032481.397707,92204.1,179233.0,7339.0,115377.0
1032481.407008,92213.4,179159.0,7342.0,115345.0
1032481.416309,92222.7,179120.0,7363.0,115352.0
1032481.425609,92232.0,179014.0,7330.0,115314.0
1032481.43631,92242.7,178983.0,7340.0,115289.0
1032481.447011,92253.4,178931.0,7306.0,115282.0
1032481.457712,92264.1,178860.0,7317.0,115263.0
1032481.468413,92274.8,178857.0,7352.0,115259.0
1032481.479113,92285.5,178825.0,7343.0,115256.0
1032481.489814,92296.2,178793.0,7337.0,115224.0
1032481.500515,92306.9,178778.0,7318.0,115264.0
1032481.511216,92317.6,178755.0,7353.0,115231.0
1032481.521917,92328.3,178691.0,7361.0,115188.0
1032481.532617,92339.0,178614.0,7345.0,115176.0
1032481.542952,92349.333,178542.0,7340.0,115126.0
1032481.553286,92359.667,178542.0,7342.0,115154.0
1032481.56362,92370.0,178539.0,7346.0,115120.0
1032481.573954,92380.333,178544.0,7335.0,115134.0
1032481.584288,92390.667,178585.0,7331.0,115159.0
1032481.594622,92401.0,178624.0,7373.0,115190.0
1032481.604956,92411.333,178577.0,7337.0,115127.0
1032481.61529,92421.667,178657.0,7342.0,115176.0
1032481.625624,92432.0,178638.0,7335.0,115159.0
1032481.635352,92441.727,178642.0,7359.0,115185.0
1032481.64508,92451.455,178639.0,7328.0,115179.0
1032481.654808,92461.182,178656.0,7342.0,115189.0
1032481.664536,92470.909,178616.0,7334.0,115168.0
1032481.674264,92480.636,178548.0,7335.0,115146.0
1032481.683992,92490.364,178537.0,7335.0,115127.0
1032481.69372,92500.091,178489.0,7355.0,115112.0
1032481.703448,92509.818,178437.0,7346.0,115100.0
1032481.713176,92519.545,178379.0,7344.0,115059.0
1032481.722904,92529.273,178404.0,7350.0,115069.0
1032481.732632,92539.0,178327.0,7334.0,115040.0
1032481.74227,92548.636,178330.0,,115072.0
1032481.74236,92548.727,,7357.0,
1032481.751907,92558.273,178316.0,,115029.0
1032481.752088,92558.455,,7353.0,
1032481.761544,92567.909,178307.0,,115050.0
1032481.761816,92568.182,,7356.0,
1032481.771181,92577.545,178292.0,,115039.0
1032481.771544,92577.909,,7330.0,
1032481.780818,92587.182,178262.0,,115046.0
1032481.781272,92587.636,,7312.0,
1032481.790455,92596.818,178301.0,,115049.0
1032481.791,92597.364,,7326.0,
1032481.800092,92606.455,178237.0,,115027.0
1032481.800728,92607.091,,7298.0,
1032481.809729,92616.091,178239.0,,115049.0
1032481.810456,92616.818,,7297.0,
1032481.819366,92625.727,178179.0,,115051.0
1032481.820184,92626.545,,7284.0,
1032481.829003,92635.364,178201.0,,115049.0
1032481.829912,92636.273,,7298.0,
1032481.83864,92645.0,178110.0,,114997.0
1032481.83964,92646.0,,7263.0,
1032481.849086,92655.444,178071.0,,114977.0
1032481.849975,92656.333,,7274.0,
1032481.859531,92665.889,177997.0,,114907.0
1032481.860309,92666.667,,7266.0,
1032481.869976,92676.333,177979.0,,114927.0
1032481.870643,92677.0,,7273.0,
1032481.880421,92686.778,177985.0,,114975.0
1032481.880977,92687.333,,7282.0,
1032481.890867,92697.222,177964.0,,114953.0
1032481.891311,92697.667,,7258.0,
1032481.901312,92707.667,177976.0,,114951.0
1032481.901645,92708.0,,7274.0,
1032481.911757,92718.111,177901.0,,114911.0
1032481.911979,92718.333,,7265.0,
1032481.922202,92728.556,177923.0,,114916.0
1032481.922313,92728.667,,7255.0,
1032481.932647,92739.0,177894.0,7252.0,114919.0
1032481.942284,92748.636,177856.0,7258.0,114906.0
1032481.951922,92758.273,177871.0,7239.0,114926.0
1032481.961559,92767.909,177856.0,7252.0,114924.0
1032481.971196,92777.545,177843.0,7264.0,114907.0
1032481.980833,92787.182,177785.0,7250.0,114864.0
1032481.99047,92796.818,177765.0,7263.0,114885.0
1032482.000107,92806.455,177679.0,7282.0,114847.0
1032482.009744,92816.091,177689.0,7245.0,114848.0
1032482.019381,92825.727,177653.0,7295.0,114823.0
1032482.029018,92835.364,177662.0,7303.0,114856.0
1032482.038655,92845.0,177621.0,7271.0,114806.0
1032482.049101,92855.444,177637.0,7278.0,114846.0
1032482.059546,92865.889,177648.0,7285.0,114826.0
1032482.069991,92876.333,177640.0,7267.0,114836.0
1032482.080436,92886.778,177653.0,7284.0,114882.0
1032482.090881,92897.222,177696.0,7283.0,114866.0
1032482.101327,92907.667,177690.0,7287.0,114899.0
1032482.111772,92918.111,177705.0,7304.0,114876.0
1032482.122217,92928.556,177666.0,7286.0,114844.0
1032482.132662,92939.0,177716.0,7285.0,114903.0
1032482.143263,92949.6,177661.0,7302.0,114862.0
1032482.153864,92960.2,177629.0,7267.0,114877.0
1032482.164465,92970.8,177695.0,7324.0,114867.0
1032482.175066,92981.4,177686.0,7334.0,114857.0
1032482.185666,92992.0,177690.0,7308.0,114862.0
1032482.196267,93002.6,177693.0,7292.0,114845.0
1032482.206868,93013.2,177680.0,7316.0,114903.0
1032482.217469,93023.8,177686.0,7304.0,114885.0
1032482.228069,93034.4,177692.0,7324.0,114882.0
1032482.23867,93045.0,177699.0,7320.0,114886.0
1032482.248071,93054.4,177699.0,7339.0,114878.0
1032482.257472,93063.8,177651.0,7325.0,114860.0
1032482.266872,93073.2,177661.0,7321.0,114866.0
1032482.276273,93082.6,177635.0,7344.0,114888.0
1032482.285674,93092.0,177649.0,7315.0,114850.0
1032482.295075,93101.4,177669.0,7314.0,114877.0
1032482.304475,93110.8,177647.0,7343.0,114867.0
1032482.313876,93120.2,177623.0,7326.0,114854.0
1032482.323277,93129.6,177619.0,7321.0,114868.0
1032482.332677,93139.0,177670.0,7304.0,114891.0
1032482.343278,93149.6,177626.0,7333.0,114866.0
1032482.353879,93160.2,177584.0,7307.0,114858.0
1032482.36448,93170.8,177568.0,7308.0,114850.0
1032482.37508,93181.4,177554.0,7321.0,114846.0
1032482.385681,93192.0,177505.0,7292.0,114816.0
1032482.396282,93202.6,177446.0,7274.0,114808.0
1032482.406883,93213.2,177435.0,7265.0,114782.0
1032482.417484,93223.8,177406.0,7311.0,114787.0
1032482.428084,93234.4,177381.0,7274.0,114766.0
1032482.438685,93245.0,177346.0,7274.0,114752.0
1032482.448413,93254.727,177354.0,7302.0,114773.0
1032482.458141,93264.455,177320.0,7256.0,114773.0
1032482.467869,93274.182,177330.0,7282.0,114768.0
1032482.477597,93283.909,177361.0,7279.0,114803.0
1032482.487325,93293.636,177355.0,7281.0,114797.0
1032482.497053,93303.364,177309.0,7267.0,114762.0
1032482.506781,93313.091,177309.0,7280.0,114753.0
1032482.516509,93322.818,177288.0,7274.0,114747.0
1032482.526237,93332.545,177251.0,7251.0,114728.0
1032482.535965,93342.273,177267.0,7254.0,114740.0
1032482.545693,93352.0,177281.0,7293.0,114760.0
1032482.556027,93362.333,177276.0,7268.0,114763.0
1032482.566361,93372.667,177257.0,7263.0,114733.0
1032482.576696,93383.0,177261.0,7307.0,114782.0
1032482.58703,93393.333,177228.0,7263.0,114742.0
1032482.597364,93403.667,177249.0,7279.0,114729.0
1032482.607698,93414.0,177243.0,7257.0,114727.0
1032482.618032,93424.333,177255.0,7304.0,114731.0
1032482.628366,93434.667,177209.0,7268.0,114716.0
1032482.6387,93445.0,177224.0,7285.0,114720.0
1032482.648428,93454.727,177195.0,7282.0,114758.0
1032482.658156,93464.455,177220.0,7315.0,114736.0
1032482.667884,93474.182,177199.0,7263.0,114709.0
1032482.677612,93483.909,177213.0,7292.0,114716.0
1032482.68734,93493.636,177198.0,7317.0,114743.0
1032482.697068,93503.364,177177.0,7311.0,114710.0
1032482.706796,93513.091,177165.0,7291.0,114742.0
1032482.716524,93522.818,177178.0,7300.0,114716.0
1032482.726252,93532.545,177200.0,7332.0,114720.0
1032482.73598,93542.273,177148.0,7306.0,114692.0
1032482.745708,93552.0,177199.0,7328.0,114740.0
1032482.756409,93562.7,177197.0,7313.0,114726.0
1032482.76711,93573.4,177172.0,7308.0,114684.0
1032482.777811,93584.1,177208.0,7322.0,114752.0
1032482.788511,93594.8,177238.0,7346.0,114763.0
1032482.799212,93605.5,177252.0,7333.0,114747.0
1032482.809913,93616.2,177208.0,7316.0,114714.0
1032482.820614,93626.9,177237.0,7352.0,114735.0
1032482.831315,93637.6,177188.0,7339.0,114685.0
1032482.842015,93648.3,177192.0,7347.0,114718.0
1032482.852716,93659.0,177166.0,7331.0,114737.0
1032482.862353,93668.636,177203.0,7364.0,114736.0
1032482.87199,93678.273,177178.0,7357.0,114684.0
1032482.881627,93687.909,177236.0,7365.0,114738.0
1032482.891265,93697.545,177256.0,7382.0,114762.0
1032482.900902,93707.182,177290.0,7385.0,114739.0
1032482.910539,93716.818,177327.0,7370.0,114803.0
1032482.920176,93726.455,177376.0,7373.0,114791.0
1032482.929813,93736.091,177391.0,7391.0,114816.0
1032482.93945,93745.727,177353.0,7382.0,114777.0
1032482.949087,93755.364,177335.0,7358.0,114753.0
1032482.958724,93765.0,177317.0,7363.0,114772.0
1032482.968452,93774.727,177333.0,7363.0,114789.0
1032482.97818,93784.455,177250.0,7328.0,114745.0
1032482.987908,93794.182,177270.0,7366.0,114759.0
1032482.997636,93803.909,177208.0,7341.0,114736.0
1032483.007364,93813.636,177149.0,7335.0,114702.0
1032483.017092,93823.364,177132.0,7335.0,114686.0
1032483.02682,93833.091,177125.0,7342.0,114706.0
1032483.036548,93842.818,177057.0,7306.0,114692.0
1032483.046276,93852.545,177015.0,7352.0,114667.0
1032483.056004,93862.273,177057.0,7348.0,114706.0
1032483.065732,93872.0,177042.0,7347.0,114683.0
1032483.076177,93882.444,177011.0,7320.0,114682.0
1032483.086623,93892.889,177021.0,7334.0,114664.0
1032483.097068,93903.333,177074.0,7364.0,114714.0
1032483.107513,93913.778,177045.0,7316.0,114684.0
1032483.117958,93924.222,177108.0,7364.0,114682.0
1032483.128403,93934.667,177091.0,7345.0,114717.0
1032483.138849,93945.111,177108.0,7358.0,114724.0
1032483.149294,93955.556,177099.0,7328.0,114703.0
1032483.159739,93966.0,177121.0,7374.0,114736.0
1032483.17034,93976.6,177135.0,7364.0,114719.0
1032483.180941,93987.2,177144.0,7371.0,114704.0
1032483.191542,93997.8,177179.0,7384.0,114760.0
1032483.202142,94008.4,177206.0,7397.0,114747.0
1032483.212743,94019.0,177196.0,7373.0,114748.0
1032483.223344,94029.6,177219.0,7366.0,114737.0
1032483.233945,94040.2,177227.0,7360.0,114786.0
1032483.244546,94050.8,177203.0,7364.0,114754.0
1032483.255146,94061.4,177215.0,7379.0,114770.0
1032483.265747,94072.0,177193.0,7370.0,114746.0
1032483.275048,94081.3,177214.0,7397.0,114798.0
1032483.284348,94090.6,177187.0,7383.0,114767.0
1032483.293649,94099.9,177208.0,7385.0,114774.0
1032483.30295,94109.2,177215.0,7358.0,114789.0
1032483.312251,94118.5,177175.0,7381.0,114766.0
1032483.321551,94127.8,177181.0,7385.0,114767.0
1032483.330852,94137.1,177190.0,7386.0,114793.0
1032483.340153,94146.4,177176.0,7391.0,114787.0
1032483.349453,94155.7,177162.0,7369.0,114761.0
1032483.358754,94165.0,177190.0,7377.0,114787.0
1032483.369455,94175.7,177154.0,7405.0,114769.0
1032483.380156,94186.4,177122.0,7419.0,114768.0
1032483.390856,94197.1,177116.0,7370.0,114728.0
1032483.401557,94207.8,177166.0,7422.0,114749.0
1032483.412258,94218.5,177145.0,7409.0,114751.0
1032483.422959,94229.2,177115.0,7385.0,114731.0
1032483.43366,94239.9,177120.0,7389.0,114751.0
1032483.44436,94250.6,177129.0,7438.0,114742.0
1032483.455061,94261.3,177130.0,7423.0,114734.0
1032483.465762,94272.0,177081.0,7392.0,114754.0
1032483.47549,94281.727,177118.0,7430.0,114770.0
1032483.485218,94291.455,177160.0,7454.0,114757.0
1032483.494946,94301.182,177142.0,7417.0,114750.0
1032483.504674,94310.909,177127.0,7394.0,114752.0
1032483.514402,94320.636,177124.0,7442.0,114739.0
1032483.52413,94330.364,177071.0,7413.0,114712.0
1032483.533858,94340.091,177087.0,7399.0,114721.0
1032483.543586,94349.818,177068.0,7426.0,114728.0
1032483.553314,94359.545,177057.0,7412.0,114720.0
1032483.563042,94369.273,176982.0,7395.0,114668.0
1032483.57277,94379.0,176998.0,7381.0,114698.0
1032483.583104,94389.333,176990.0,7368.0,114695.0
1032483.593438,94399.667,176943.0,7374.0,114684.0
1032483.603772,94410.0,176919.0,7356.0,114674.0
1032483.614106,94420.333,176921.0,7350.0,114678.0
1032483.624441,94430.667,176924.0,7362.0,114662.0
1032483.634775,94441.0,176895.0,7344.0,114657.0
1032483.645109,94451.333,176912.0,7384.0,114689.0
1032483.655443,94461.667,176918.0,7364.0,114681.0
1032483.665777,94472.0,176902.0,7365.0,114664.0
1032483.675505,94481.727,176854.0,7377.0,114633.0
1032483.685233,94491.455,176876.0,7378.0,114672.0
1032483.694961,94501.182,176852.0,7356.0,114628.0
1032483.704689,94510.909,176841.0,7372.0,114644.0
1032483.714417,94520.636,176855.0,7374.0,114631.0
1032483.724145,94530.364,176889.0,7397.0,114659.0
1032483.733873,94540.091,176862.0,7406.0,114618.0
1032483.743601,94549.818,176859.0,7386.0,114632.0
1032483.753329,94559.545,176875.0,7397.0,114628.0
1032483.763057,94569.273,176856.0,7385.0,114616.0
1032483.772785,94579.0,176862.0,7383.0,114622.0
1032483.783386,94589.6,176864.0,7389.0,114646.0
1032483.793987,94600.2,176902.0,7393.0,114656.0
1032483.804587,94610.8,176857.0,7397.0,114648.0
1032483.815188,94621.4,176837.0,7367.0,114624.0
1032483.825789,94632.0,176850.0,7393.0,114642.0
1032483.83639,94642.6,176861.0,7392.0,114642.0
1032483.846991,94653.2,176821.0,7403.0,114651.0
1032483.857591,94663.8,176846.0,7397.0,114652.0
1032483.868192,94674.4,176814.0,7414.0,114596.0
1032483.878793,94685.0,176778.0,7394.0,114577.0
1032483.888194,94694.4,176776.0,7399.0,114602.0
1032483.897594,94703.8,176750.0,7391.0,114584.0
1032483.906995,94713.2,176788.0,7402.0,114605.0
1032483.916396,94722.6,176765.0,7408.0,114586.0
1032483.925796,94732.0,176785.0,7419.0,114600.0
1032483.935197,94741.4,176772.0,7389.0,114607.0
1032483.944598,94750.8,176809.0,7410.0,114616.0
1032483.953999,94760.2,176813.0,7400.0,114583.0
1032483.963399,94769.6,176842.0,7434.0,114632.0
1032483.9728,94779.0,176827.0,7409.0,114596.0
1032483.983401,94789.6,176852.0,7414.0,114620.0
1032483.994002,94800.2,176919.0,7442.0,114604.0
1032484.004602,94810.8,176840.0,7421.0,114628.0
1032484.015203,94821.4,176859.0,7434.0,114638.0
1032484.025804,94832.0,176869.0,7445.0,114626.0
1032484.036405,94842.6,176849.0,7429.0,114603.0
1032484.047006,94853.2,176843.0,7428.0,114611.0
1032484.057606,94863.8,176894.0,7429.0,114632.0
1032484.068207,94874.4,176875.0,7465.0,114628.0
1032484.078808,94885.0,176866.0,7458.0,114636.0
1032484.089142,94895.333,176851.0,7458.0,114610.0
1032484.099476,94905.667,176874.0,7444.0,114642.0
1032484.10981,94916.0,176811.0,7405.0,114622.0
1032484.120144,94926.333,176839.0,7419.0,114590.0
1032484.130478,94936.667,176834.0,7440.0,114602.0
1032484.140813,94947.0,176771.0,7398.0,114565.0
1032484.151147,94957.333,176759.0,7419.0,114567.0
1032484.161481,94967.667,176736.0,7406.0,114583.0
1032484.171815,94978.0,176715.0,7414.0,114568.0
1032484.181543,94987.727,176676.0,7378.0,114554.0
1032484.191271,94997.455,176709.0,7413.0,114534.0
1032484.200999,95007.182,176699.0,7402.0,114562.0
1032484.210727,95016.909,176686.0,7425.0,114555.0
1032484.220455,95026.636,176662.0,7376.0,114548.0
1032484.230183,95036.364,176700.0,7416.0,114579.0
1032484.239911,95046.091,176677.0,7410.0,114547.0
1032484.249639,95055.818,176673.0,7397.0,114541.0
1032484.259367,95065.545,176696.0,7416.0,114562.0
1032484.269095,95075.273,176688.0,7423.0,114581.0
1032484.278823,95085.0,176682.0,7404.0,114548.0
1032484.288551,95094.727,176689.0,7421.0,114550.0
1032484.298279,95104.455,176669.0,7406.0,114561.0
1032484.308007,95114.182,176672.0,7405.0,114538.0
1032484.317735,95123.909,176707.0,7413.0,114567.0
1032484.327463,95133.636,176698.0,7423.0,114542.0
1032484.337191,95143.364,176737.0,7438.0,114565.0
1032484.346919,95153.091,176742.0,7449.0,114589.0
1032484.356647,95162.818,176698.0,7424.0,114581.0
1032484.366375,95172.545,176676.0,7406.0,114554.0
1032484.376103,95182.273,176725.0,7434.0,114585.0
1032484.385831,95192.0,176732.0,7421.0,114557.0
1032484.396165,95202.333,176729.0,7424.0,114563.0
1032484.406499,95212.667,176734.0,7458.0,114579.0
1032484.416833,95223.0,176716.0,7425.0,114557.0
1032484.427167,95233.333,176740.0,7457.0,114597.0
1032484.437501,95243.667,176713.0,7439.0,114564.0
1032484.447835,95254.0,176766.0,7471.0,114574.0
1032484.45817,95264.333,176722.0,7421.0,114559.0
1032484.468504,95274.667,176699.0,7426.0,114562.0
1032484.478838,95285.0,176738.0,7448.0,114574.0
1032484.489539,95295.7,176750.0,7420.0,114597.0
1032484.500239,95306.4,176742.0,7415.0,114548.0
1032484.51094,95317.1,176725.0,7422.0,114562.0
1032484.521641,95327.8,176758.0,7453.0,114573.0
1032484.532342,95338.5,176747.0,7466.0,114554.0
1032484.543043,95349.2,176777.0,7454.0,114558.0
1032484.553743,95359.9,176718.0,7457.0,114555.0
1032484.564444,95370.6,176748.0,7451.0,114572.0
1032484.575145,95381.3,176748.0,7476.0,114579.0
1032484.585846,95392.0,176746.0,7459.0,114552.0
1032484.595483,95401.636,176732.0,7483.0,114589.0
1032484.60512,95411.273,176739.0,7459.0,114575.0
1032484.614757,95420.909,176769.0,7467.0,114580.0
1032484.624394,95430.545,176742.0,7446.0,114572.0
1032484.634031,95440.182,176772.0,7476.0,114588.0
1032484.643668,95449.818,176732.0,7474.0,114565.0
1032484.653305,95459.455,176687.0,7450.0,114571.0
1032484.662942,95469.091,176616.0,7404.0,114486.0
1032484.67258,95478.727,176619.0,7411.0,114533.0
1032484.682217,95488.364,176630.0,7411.0,114539.0
1032484.691854,95498.0,176620.0,7416.0,114518.0
1032484.702299,95508.444,176624.0,7433.0,114538.0
1032484.712744,95518.889,176636.0,7434.0,114532.0
1032484.723189,95529.333,176606.0,7420.0,114549.0
1032484.733635,95539.778,176597.0,7393.0,114501.0
1032484.74408,95550.222,176581.0,7414.0,114504.0
1032484.754525,95560.667,176552.0,7412.0,114499.0
1032484.76497,95571.111,176563.0,7411.0,114527.0
1032484.775416,95581.556,176584.0,7397.0,114510.0
1032484.785861,95592.0,176615.0,7391.0,114511.0
1032484.795498,95601.636,176595.0,7396.0,114539.0
1032484.805135,95611.273,176556.0,7363.0,114482.0
1032484.814772,95620.909,176644.0,7400.0,114531.0
1032484.824409,95630.545,176620.0,7389.0,114541.0
1032484.834046,95640.182,176693.0,7438.0,114548.0
1032484.843683,95649.818,176697.0,7420.0,114571.0
1032484.85332,95659.455,176711.0,7406.0,114558.0
1032484.862957,95669.091,176742.0,7405.0,114600.0
1032484.872595,95678.727,176701.0,7390.0,114569.0
1032484.882232,95688.364,176729.0,7394.0,114578.0
1032484.891869,95698.0,176763.0,7412.0,114601.0
1032484.902314,95708.444,176769.0,7420.0,114602.0
1032484.912759,95718.889,176726.0,7406.0,114556.0
1032484.923204,95729.333,176757.0,7431.0,114580.0
1032484.93365,95739.778,176758.0,7444.0,114594.0
1032484.944095,95750.222,176708.0,7403.0,114553.0
1032484.95454,95760.667,176749.0,7410.0,114600.0
1032484.964985,95771.111,176741.0,7405.0,114547.0
1032484.975431,95781.556,176740.0,7416.0,114575.0
1032484.985876,95792.0,176733.0,7411.0,114579.0
1032484.995513,95801.636,176723.0,7416.0,114582.0
1032485.00515,95811.273,176742.0,7455.0,114590.0
1032485.014787,95820.909,176784.0,7417.0,114595.0
1032485.024424,95830.545,176788.0,7436.0,114640.0
1032485.034061,95840.182,176818.0,7444.0,114606.0
1032485.043698,95849.818,176816.0,7439.0,114625.0
1032485.053335,95859.455,176833.0,7416.0,114621.0
1032485.062972,95869.091,176809.0,7420.0,114649.0
1032485.072609,95878.727,176879.0,7435.0,114639.0
1032485.082247,95888.364,176840.0,7444.0,114591.0
1032485.091884,95898.0,176884.0,7434.0,114628.0
1032485.102584,95908.7,176886.0,7440.0,114610.0
1032485.113285,95919.4,176861.0,7453.0,114626.0
1032485.123986,95930.1,176873.0,7437.0,114611.0
1032485.134687,95940.8,176922.0,7440.0,114648.0
1032485.145388,95951.5,176937.0,7437.0,114674.0
1032485.156088,95962.2,176941.0,7419.0,114641.0
1032485.166789,95972.9,176967.0,7446.0,114666.0
1032485.17749,95983.6,176918.0,7410.0,114643.0
1032485.188191,95994.3,176907.0,7414.0,114642.0
1032485.198892,96005.0,176877.0,7414.0,114660.0
1032485.208192,96014.3,176837.0,7421.0,114629.0
1032485.217493,96023.6,176787.0,7378.0,114585.0
1032485.226794,96032.9,176803.0,7371.0,114617.0
1032485.236094,96042.2,176794.0,7400.0,114617.0
1032485.245395,96051.5,176806.0,7391.0,114585.0
1032485.254696,96060.8,176744.0,7331.0,114576.0
1032485.263997,96070.1,176737.0,7345.0,114581.0
1032485.273297,96079.4,176712.0,7341.0,114559.0
1032485.282598,96088.7,176680.0,7331.0,114534.0
1032485.291899,96098.0,176690.0,7346.0,114527.0
1032485.302599,96108.7,176656.0,7339.0,114538.0
1032485.3133,96119.4,176647.0,7347.0,114537.0
1032485.324001,96130.1,176680.0,7360.0,114531.0
1032485.334702,96140.8,176706.0,7371.0,114586.0
1032485.345403,96151.5,176652.0,7339.0,114540.0
1032485.356103,96162.2,176667.0,7347.0,114588.0
1032485.366804,96172.9,176659.0,7353.0,114541.0
1032485.377505,96183.6,176679.0,7360.0,114555.0
1032485.388206,96194.3,176696.0,7356.0,114552.0
1032485.398907,96205.0,176672.0,7341.0,114531.0
1032485.408307,96214.4,176691.0,7368.0,114573.0
1032485.417708,96223.8,176616.0,7348.0,114520.0
1032485.427109,96233.2,176659.0,7342.0,114548.0
1032485.436509,96242.6,176632.0,7355.0,114512.0
1032485.44591,96252.0,176618.0,7336.0,114496.0
1032485.455311,96261.4,176637.0,7335.0,114517.0
1032485.464712,96270.8,176652.0,7345.0,114531.0
1032485.474112,96280.2,176657.0,7375.0,114533.0
1032485.483513,96289.6,176643.0,7369.0,114511.0
1032485.492914,96299.0,176615.0,7341.0,114503.0
1032485.503514,96309.6,176641.0,7357.0,114546.0
1032485.514115,96320.2,176667.0,7330.0,114558.0
1032485.524716,96330.8,176627.0,7339.0,114510.0
1032485.535317,96341.4,176632.0,7376.0,114548.0
1032485.545918,96352.0,176614.0,7365.0,114530.0
1032485.556518,96362.6,176615.0,7359.0,114511.0
1032485.567119,96373.2,176552.0,7350.0,114508.0
1032485.57772,96383.8,176622.0,7377.0,114536.0
1032485.588321,96394.4,176598.0,7355.0,114530.0
1032485.598922,96405.0,176572.0,7377.0,114489.0
1032485.60865,96414.727,176599.0,7364.0,114525.0
1032485.618378,96424.455,176613.0,7371.0,114497.0
1032485.628106,96434.182,176570.0,7360.0,114515.0
1032485.637834,96443.909,176586.0,7364.0,114484.0
1032485.647562,96453.636,176579.0,7394.0,114534.0
1032485.65729,96463.364,176579.0,7362.0,114491.0
1032485.667018,96473.091,176591.0,7362.0,114511.0
1032485.676746,96482.818,176600.0,7384.0,114508.0
1032485.686474,96492.545,176611.0,7386.0,114534.0
1032485.696202,96502.273,176562.0,7368.0,114503.0
1032485.70593,96512.0,176605.0,7364.0,114536.0
1032485.716264,96522.333,176568.0,7373.0,114524.0
1032485.726598,96532.667,176522.0,7390.0,114521.0
1032485.736932,96543.0,176509.0,7355.0,114509.0
1032485.747266,96553.333,176481.0,7363.0,114460.0
1032485.7576,96563.667,176461.0,7331.0,114460.0
1032485.767934,96574.0,176438.0,7294.0,114441.0
1032485.778268,96584.333,176456.0,7302.0,114464.0
1032485.788602,96594.667,176434.0,7337.0,114440.0
1032485.798937,96605.0,176390.0,7301.0,114436.0
1032485.808665,96614.727,176336.0,7282.0,114419.0
1032485.818393,96624.455,176335.0,7330.0,114433.0
1032485.828121,96634.182,176283.0,7260.0,114425.0
1032485.837849,96643.909,176312.0,7294.0,114414.0
1032485.847577,96653.636,176305.0,7309.0,114423.0
1032485.857305,96663.364,176284.0,7297.0,114425.0
1032485.867033,96673.091,176283.0,7250.0,114379.0
1032485.876761,96682.818,176304.0,7304.0,114403.0
1032485.886489,96692.545,176334.0,7309.0,114439.0
1032485.896217,96702.273,176313.0,7287.0,114402.0
1032485.905945,96712.0,176334.0,7287.0,114422.0
1032485.916279,96722.333,176334.0,7295.0,114417.0
1032485.926613,96732.667,176324.0,7316.0,114426.0
1032485.936947,96743.0,176321.0,7294.0,114411.0
1032485.947281,96753.333,176309.0,7326.0,114381.0
1032485.957615,96763.667,176284.0,7309.0,114395.0
1032485.967949,96774.0,176289.0,7279.0,114391.0
1032485.978283,96784.333,176283.0,7281.0,114392.0
1032485.988617,96794.667,176307.0,7315.0,114408.0
1032485.998951,96805.0,176303.0,7331.0,114427.0
1032486.008679,96814.727,176247.0,7291.0,114385.0
1032486.018407,96824.455,176291.0,7341.0,114432.0
1032486.028135,96834.182,176350.0,7322.0,114417.0
1032486.037863,96843.909,176352.0,7304.0,114431.0
1032486.047591,96853.636,176381.0,7287.0,114471.0
1032486.057319,96863.364,176396.0,7326.0,114459.0
1032486.067047,96873.091,176372.0,7296.0,114440.0
1032486.076775,96882.818,176387.0,7310.0,114453.0
1032486.086503,96892.545,176349.0,7309.0,114449.0
1032486.096231,96902.273,176403.0,7329.0,114437.0
1032486.105959,96912.0,176362.0,7313.0,114418.0
1032486.11656,96922.6,176381.0,7334.0,114442.0
1032486.127161,96933.2,176368.0,7316.0,114441.0
1032486.137762,96943.8,176380.0,7307.0,114435.0
1032486.148363,96954.4,176413.0,7355.0,114466.0
1032486.158963,96965.0,176390.0,7350.0,114462.0
1032486.169564,96975.6,176424.0,7328.0,114477.0
1032486.180165,96986.2,176444.0,7315.0,114476.0
1032486.190766,96996.8,176468.0,7339.0,114461.0
1032486.201367,97007.4,176430.0,7326.0,114458.0
1032486.211967,97018.0,176458.0,7345.0,114474.0
1032486.222413,97028.444,176424.0,7332.0,114478.0
1032486.232858,97038.889,176463.0,7369.0,114476.0
1032486.243303,97049.333,176431.0,7344.0,114461.0
1032486.253748,97059.778,176451.0,7349.0,114475.0
1032486.264194,97070.222,176447.0,7386.0,114509.0
1032486.274639,97080.667,176372.0,7337.0,114421.0
1032486.285084,97091.111,176393.0,7317.0,114455.0
1032486.295529,97101.556,176395.0,7325.0,114447.0
1032486.305974,97112.0,176382.0,7327.0,114466.0
1032486.315612,97121.636,176340.0,7316.0,114426.0
1032486.325249,97131.273,176334.0,7291.0,114420.0
1032486.334886,97140.909,176330.0,7290.0,114443.0
1032486.344523,97150.545,176297.0,7266.0,114418.0
1032486.35416,97160.182,176296.0,7271.0,114428.0
1032486.363797,97169.818,176336.0,7288.0,114452.0
1032486.373434,97179.455,176329.0,7269.0,114428.0
1032486.383071,97189.091,176296.0,7252.0,114392.0
1032486.392708,97198.727,176292.0,7257.0,114397.0
1032486.402345,97208.364,176341.0,7310.0,114446.0
1032486.411982,97218.0,176310.0,7263.0,114427.0
1032486.422428,97228.444,176303.0,7255.0,114426.0
1032486.432873,97238.889,176328.0,7271.0,114462.0
1032486.443318,97249.333,176318.0,7270.0,114429.0
1032486.453763,97259.778,176331.0,7276.0,114448.0
1032486.464209,97270.222,176329.0,7273.0,114460.0
1032486.474654,97280.667,176312.0,7281.0,114412.0
1032486.485099,97291.111,176312.0,7277.0,114434.0
1032486.495544,97301.556,176345.0,7289.0,114458.0
1032486.505989,97312.0,176339.0,7305.0,114437.0
1032486.515626,97321.636,176327.0,7280.0,114446.0
1032486.525264,97331.273,176324.0,7283.0,114434.0
1032486.534901,97340.909,176380.0,7294.0,114467.0
1032486.544538,97350.545,176397.0,7295.0,114481.0
1032486.554175,97360.182,176342.0,7282.0,114445.0
1032486.563812,97369.818,176368.0,7305.0,114478.0
1032486.573449,97379.455,176345.0,7300.0,114447.0
1032486.583086,97389.091,176352.0,7289.0,114437.0
1032486.592723,97398.727,176297.0,7274.0,114426.0
1032486.60236,97408.364,176356.0,7315.0,114480.0
1032486.611997,97418.0,176342.0,7290.0,114458.0
1032486.622698,97428.7,176326.0,7309.0,114438.0
1032486.633399,97439.4,176369.0,7302.0,114470.0
1032486.6441,97450.1,176353.0,7296.0,114440.0
1032486.654801,97460.8,176370.0,7328.0,114471.0
1032486.665501,97471.5,176366.0,7303.0,114479.0
1032486.676202,97482.2,176389.0,7332.0,114489.0
1032486.686903,97492.9,176331.0,7297.0,114442.0
1032486.697604,97503.6,176372.0,7302.0,114458.0
1032486.708305,97514.3,176381.0,7316.0,114473.0
1032486.719005,97525.0,176393.0,7323.0,114488.0
1032486.728306,97534.3,176318.0,7312.0,114430.0
1032486.737607,97543.6,176372.0,7299.0,114464.0
1032486.746907,97552.9,176343.0,7327.0,114449.0
1032486.756208,97562.2,176346.0,7329.0,114462.0
1032486.765509,97571.5,176370.0,7330.0,114469.0
1032486.77481,97580.8,176409.0,7367.0,114471.0
1032486.78411,97590.1,176379.0,7324.0,114463.0
1032486.793411,97599.4,176337.0,7287.0,114449.0
1032486.802712,97608.7,176360.0,7331.0,114479.0
1032486.812012,97618.0,176342.0,7337.0,114456.0
1032486.822713,97628.7,176324.0,7306.0,114448.0
1032486.833414,97639.4,176289.0,7298.0,114420.0
1032486.844115,97650.1,176251.0,7290.0,114414.0
1032486.854815,97660.8,176228.0,7279.0,114397.0
1032486.865516,97671.5,176204.0,7267.0,114404.0
1032486.876217,97682.2,176169.0,7274.0,114378.0
1032486.886918,97692.9,176172.0,7278.0,114357.0
1032486.897619,97703.6,176159.0,7248.0,114377.0
1032486.908319,97714.3,176154.0,7255.0,114382.0
1032486.91902,97725.0,176145.0,7258.0,114390.0
1032486.928657,97734.636,176146.0,7241.0,114373.0
1032486.938294,97744.273,176135.0,7252.0,114381.0
1032486.947932,97753.909,176141.0,7265.0,114381.0
1032486.957569,97763.545,176144.0,7250.0,114362.0
1032486.967206,97773.182,176162.0,7257.0,114385.0
1032486.976843,97782.818,176165.0,7281.0,114416.0
1032486.98648,97792.455,176155.0,7265.0,114381.0
1032486.996117,97802.091,176179.0,7286.0,114363.0
1032487.005754,97811.727,176164.0,7265.0,114381.0
1032487.015391,97821.364,176182.0,7299.0,114390.0
1032487.025028,97831.0,176167.0,7283.0,114397.0
1032487.035473,97841.444,176144.0,7274.0,114393.0
1032487.045919,97851.889,176155.0,7276.0,114411.0
1032487.056364,97862.333,176188.0,7272.0,114403.0
1032487.066809,97872.778,176185.0,7291.0,114384.0
1032487.077254,97883.222,176257.0,7308.0,114449.0
1032487.0877,97893.667,176263.0,7302.0,114438.0
1032487.098145,97904.111,176210.0,7308.0,114411.0
1032487.10859,97914.556,176252.0,7277.0,114430.0
1032487.119035,97925.0,176228.0,7280.0,114426.0
1032487.128763,97934.727,176272.0,7320.0,114435.0
1032487.138491,97944.455,176234.0,7288.0,114421.0
1032487.148219,97954.182,176277.0,7317.0,114439.0
1032487.157947,97963.909,176283.0,7296.0,114444.0
1032487.167675,97973.636,176267.0,7284.0,114424.0
1032487.177403,97983.364,176329.0,7319.0,114444.0
1032487.187131,97993.091,176306.0,7306.0,114454.0
1032487.196859,98002.818,176274.0,7322.0,114439.0
1032487.206587,98012.545,176283.0,7287.0,114440.0
1032487.216315,98022.273,176299.0,7310.0,114425.0
1032487.226043,98032.0,176280.0,7317.0,114426.0
1032487.236377,98042.333,176313.0,7302.0,114441.0
1032487.246711,98052.667,176285.0,7298.0,114444.0
1032487.257046,98063.0,176321.0,7328.0,114456.0
1032487.26738,98073.333,176307.0,7297.0,114448.0
1032487.277714,98083.667,176306.0,7327.0,114439.0
1032487.288048,98094.0,176317.0,7337.0,114476.0
1032487.298382,98104.333,176367.0,7312.0,114476.0
1032487.308716,98114.667,176334.0,7296.0,114471.0
1032487.31905,98125.0,176354.0,7335.0,114462.0
1032487.328778,98134.727,176364.0,7379.0,114443.0
1032487.338506,98144.455,176368.0,7334.0,114449.0
1032487.348234,98154.182,176355.0,7341.0,114478.0
1032487.357962,98163.909,176324.0,7304.0,114457.0
1032487.36769,98173.636,176283.0,7284.0,114478.0
1032487.377418,98183.364,176268.0,7266.0,114439.0
1032487.387146,98193.091,176277.0,7305.0,114451.0
1032487.396874,98202.818,176225.0,7266.0,114423.0
1032487.406602,98212.545,176228.0,7285.0,114423.0
1032487.41633,98222.273,176168.0,7235.0,114400.0
1032487.426058,98232.0,176180.0,7233.0,114420.0
1032487.436659,98242.6,176160.0,7251.0,114391.0
1032487.44726,98253.2,176138.0,7264.0,114404.0
1032487.457861,98263.8,176149.0,7298.0,114380.0
1032487.468461,98274.4,176102.0,7238.0,114339.0
1032487.479062,98285.0,176102.0,7238.0,114373.0
1032487.489663,98295.6,176120.0,7244.0,114393.0
1032487.500264,98306.2,176131.0,7225.0,114402.0
1032487.510865,98316.8,176110.0,7248.0,114391.0
1032487.521465,98327.4,176156.0,7252.0,114393.0
1032487.532066,98338.0,176137.0,7236.0,114401.0
1032487.541467,98347.4,176160.0,7281.0,114385.0
1032487.550868,98356.8,176137.0,7252.0,114382.0
1032487.560268,98366.2,176134.0,7258.0,114395.0
1032487.569669,98375.6,176109.0,7258.0,114405.0
1032487.57907,98385.0,176135.0,7249.0,114391.0
1032487.58847,98394.4,176147.0,7256.0,114386.0
1032487.597871,98403.8,176146.0,7276.0,114372.0
1032487.607272,98413.2,176170.0,7258.0,114388.0
1032487.616672,98422.6,176144.0,7250.0,114393.0
1032487.626073,98432.0,176163.0,7261.0,114396.0
1032487.636674,98442.6,176168.0,7293.0,114402.0
1032487.647275,98453.2,176185.0,7283.0,114414.0
1032487.657876,98463.8,176182.0,7271.0,114387.0
1032487.668476,98474.4,176147.0,7273.0,114378.0
1032487.679077,98485.0,176158.0,7272.0,114397.0
1032487.689678,98495.6,176154.0,7281.0,114382.0
1032487.700279,98506.2,176224.0,7264.0,114431.0
1032487.71088,98516.8,176214.0,7295.0,114424.0
1032487.72148,98527.4,176176.0,7308.0,114383.0
1032487.732081,98538.0,176194.0,7296.0,114441.0
1032487.742415,98548.333,176210.0,,114457.0
1032487.742526,98548.444,,7299.0,
1032487.752749,98558.667,176169.0,,114406.0
1032487.752972,98558.889,,7269.0,
1032487.763083,98569.0,176214.0,,114440.0
1032487.763417,98569.333,,7308.0,
1032487.773418,98579.333,176208.0,,114430.0
1032487.773862,98579.778,,7299.0,
1032487.783752,98589.667,176190.0,,114396.0
1032487.784307,98590.222,,7310.0,
1032487.794086,98600.0,176192.0,,114412.0
1032487.794752,98600.667,,7313.0,
1032487.80442,98610.333,176213.0,,114445.0
1032487.805198,98611.111,,7301.0,
1032487.814754,98620.667,176230.0,,114425.0
1032487.815643,98621.556,,7317.0,
1032487.825088,98631.0,176264.0,,114441.0
1032487.826088,98632.0,,7302.0,
1032487.834816,98640.727,176241.0,,114414.0
1032487.835725,98641.636,,7314.0,
1032487.844544,98650.455,176268.0,,114423.0
1032487.845362,98651.273,,7298.0,
1032487.854272,98660.182,176277.0,,114460.0
1032487.854999,98660.909,,7324.0,
1032487.864,98669.909,176236.0,,114481.0
1032487.864636,98670.545,,7323.0,
1032487.873728,98679.636,176276.0,,114451.0
1032487.874274,98680.182,,7337.0,
1032487.883456,98689.364,176264.0,,114442.0
1032487.883911,98689.818,,7306.0,
1032487.893184,98699.091,176251.0,,114446.0
1032487.893548,98699.455,,7307.0,
1032487.902912,98708.818,176183.0,,114405.0
1032487.903185,98709.091,,7277.0,
1032487.91264,98718.545,176199.0,,114419.0
1032487.912822,98718.727,,7296.0,
1032487.922368,98728.273,176161.0,,114409.0
1032487.922459,98728.364,,7296.0,
1032487.932096,98738.0,176146.0,7273.0,114421.0
1032487.941824,98747.727,,7280.0,
1032487.94243,98748.333,176112.0,,114414.0
1032487.951552,98757.455,,7283.0,
1032487.952764,98758.667,176164.0,,114394.0
1032487.96128,98767.182,,7275.0,
1032487.963098,98769.0,176137.0,,114435.0
1032487.971008,98776.909,,7254.0,
1032487.973432,98779.333,176098.0,,114403.0
1032487.980736,98786.636,,7255.0,
1032487.983767,98789.667,176086.0,,114396.0
1032487.990464,98796.364,,7248.0,
1032487.994101,98800.0,176077.0,,114391.0
1032488.000192,98806.091,,7242.0,
1032488.004435,98810.333,176110.0,,114396.0
1032488.00992,98815.818,,7248.0,
1032488.014769,98820.667,176112.0,,114420.0
1032488.019648,98825.545,,7263.0,
1032488.025103,98831.0,176169.0,,114426.0
1032488.029376,98835.273,,7236.0,
1032488.034831,98840.727,176130.0,,114415.0
1032488.039104,98845.0,,7230.0,
1032488.044559,98850.455,176149.0,,114401.0
1032488.049438,98855.333,,7237.0,
1032488.054287,98860.182,176134.0,,114431.0
1032488.059772,98865.667,,7260.0,
1032488.064015,98869.909,176172.0,,114429.0
1032488.070106,98876.0,,7245.0,
1032488.073743,98879.636,176156.0,,114422.0
1032488.08044,98886.333,,7263.0,
1032488.083471,98889.364,176182.0,,114479.0
1032488.090775,98896.667,,7247.0,
1032488.093199,98899.091,176188.0,,114442.0
1032488.101109,98907.0,,7233.0,
1032488.102927,98908.818,176161.0,,114401.0
1032488.111443,98917.333,,7239.0,
1032488.112655,98918.545,176168.0,,114409.0
1032488.121777,98927.667,,7262.0,
1032488.122383,98928.273,176182.0,,114438.0
1032488.132111,98938.0,176120.0,7216.0,114425.0
1032488.142812,98948.7,176111.0,7275.0,114416.0
1032488.153513,98959.4,176171.0,7259.0,114449.0
1032488.164213,98970.1,176199.0,7240.0,114435.0
1032488.174914,98980.8,176204.0,7278.0,114457.0
1032488.185615,98991.5,176215.0,7262.0,114453.0
1032488.196316,99002.2,176256.0,7260.0,114469.0
1032488.207017,99012.9,176197.0,7228.0,114431.0
1032488.217717,99023.6,176210.0,7261.0,114445.0
1032488.228418,99034.3,176203.0,7255.0,114464.0
1032488.239119,99045.0,176223.0,7264.0,114461.0
1032488.24842,99054.3,176181.0,7238.0,114437.0
1032488.25772,99063.6,176219.0,7246.0,114473.0
1032488.267021,99072.9,176206.0,7257.0,114481.0
1032488.276322,99082.2,176190.0,7275.0,114426.0
1032488.285622,99091.5,176216.0,7287.0,114451.0
1032488.294923,99100.8,176225.0,7289.0,114438.0
1032488.304224,99110.1,176224.0,7265.0,114455.0
1032488.313525,99119.4,176240.0,7255.0,114462.0
1032488.322825,99128.7,176290.0,7249.0,114513.0
1032488.332126,99138.0,176237.0,7260.0,114472.0
1032488.342827,99148.7,176251.0,7282.0,114480.0
1032488.353528,99159.4,176234.0,7271.0,114469.0
1032488.364228,99170.1,176241.0,7279.0,114472.0
1032488.374929,99180.8,176221.0,7290.0,114444.0
1032488.38563,99191.5,176221.0,7292.0,114456.0
1032488.396331,99202.2,176223.0,7298.0,114464.0
1032488.407032,99212.9,176186.0,7266.0,114425.0
1032488.417732,99223.6,176184.0,7282.0,114456.0
1032488.428433,99234.3,176182.0,7293.0,114448.0
1032488.439134,99245.0,176203.0,7299.0,114471.0
1032488.448771,99254.636,176144.0,7260.0,114436.0
1032488.458408,99264.273,176171.0,7265.0,114458.0
1032488.468045,99273.909,176167.0,7283.0,114439.0
1032488.477682,99283.545,176118.0,7263.0,114447.0
1032488.487319,99293.182,176102.0,7256.0,114415.0
1032488.496956,99302.818,176084.0,7269.0,114419.0
1032488.506594,99312.455,176049.0,7244.0,114391.0
1032488.516231,99322.091,176009.0,7296.0,114362.0
1032488.525868,99331.727,176039.0,7243.0,114401.0
1032488.535505,99341.364,175984.0,7226.0,114357.0
1032488.545142,99351.0,175958.0,7219.0,114357.0
1032488.555587,99361.444,175935.0,7211.0,114331.0
1032488.566032,99371.889,175907.0,7228.0,114381.0
1032488.576478,99382.333,175952.0,7229.0,114357.0
1032488.586923,99392.778,175930.0,7220.0,114354.0
1032488.597368,99403.222,175950.0,7213.0,114375.0
1032488.607813,99413.667,175956.0,7233.0,114354.0
1032488.618258,99424.111,175902.0,7221.0,114347.0
1032488.628704,99434.556,175931.0,7239.0,114357.0
1032488.639149,99445.0,175928.0,7250.0,114379.0
1032488.648877,99454.727,175901.0,7227.0,114337.0
1032488.658605,99464.455,175944.0,7219.0,114354.0
1032488.668333,99474.182,175950.0,7240.0,114355.0
1032488.678061,99483.909,175897.0,7237.0,114343.0
1032488.687789,99493.636,175910.0,7234.0,114343.0
1032488.697517,99503.364,175920.0,7277.0,114362.0
1032488.707245,99513.091,175888.0,7238.0,114343.0
1032488.716973,99522.818,175933.0,7246.0,114334.0
1032488.726701,99532.545,175933.0,7236.0,114345.0
1032488.736429,99542.273,175945.0,7269.0,114371.0
1032488.746157,99552.0,175920.0,7234.0,114331.0
1032488.756491,99562.333,175936.0,7257.0,114359.0
1032488.766825,99572.667,175915.0,7249.0,114359.0
1032488.777159,99583.0,175890.0,7240.0,114359.0
1032488.787493,99593.333,175915.0,7221.0,114334.0
1032488.797827,99603.667,175907.0,7259.0,114364.0
1032488.808162,99614.0,175922.0,7270.0,114351.0
1032488.818496,99624.333,175887.0,7257.0,114321.0
1032488.82883,99634.667,175908.0,7280.0,114369.0
1032488.839164,99645.0,175926.0,7266.0,114344.0
1032488.848892,99654.727,175916.0,7285.0,114330.0
1032488.85862,99664.455,175924.0,7268.0,114333.0
1032488.868348,99674.182,175942.0,7305.0,114364.0
1032488.878076,99683.909,175924.0,7272.0,114364.0
1032488.887804,99693.636,175905.0,7281.0,114359.0
1032488.897532,99703.364,175921.0,7300.0,114383.0
1032488.90726,99713.091,175962.0,7284.0,114345.0
1032488.916988,99722.818,175937.0,7284.0,114348.0
1032488.926716,99732.545,175907.0,7293.0,114372.0
1032488.936444,99742.273,175950.0,7304.0,114358.0
1032488.946172,99752.0,175903.0,7302.0,114335.0
1032488.956773,99762.6,175921.0,7302.0,114359.0
1032488.967373,99773.2,175899.0,7278.0,114362.0
1032488.977974,99783.8,175917.0,7329.0,114373.0
1032488.988575,99794.4,175945.0,7299.0,114363.0
1032488.999176,99805.0,175933.0,7303.0,114353.0
1032489.009777,99815.6,175933.0,7326.0,114331.0
1032489.020377,99826.2,175895.0,7314.0,114332.0
1032489.030978,99836.8,175832.0,7272.0,114318.0
1032489.041579,99847.4,175837.0,7292.0,114325.0
1032489.05218,99858.0,175849.0,7299.0,114321.0
1032489.061481,99867.3,175786.0,7256.0,114282.0
1032489.070781,99876.6,175801.0,7276.0,114286.0
1032489.080082,99885.9,175771.0,7263.0,114296.0
1032489.089383,99895.2,175740.0,7281.0,114283.0
1032489.098683,99904.5,175729.0,7263.0,114291.0
1032489.107984,99913.8,175758.0,7282.0,114306.0
1032489.117285,99923.1,175737.0,7254.0,114293.0
1032489.126585,99932.4,175718.0,7268.0,114257.0
1032489.135886,99941.7,175705.0,7250.0,114263.0
1032489.145187,99951.0,175750.0,7265.0,114294.0
1032489.155888,99961.7,175713.0,7247.0,114298.0
1032489.166588,99972.4,175708.0,7284.0,114255.0
1032489.177289,99983.1,175719.0,7269.0,114268.0
1032489.18799,99993.8,175715.0,7272.0,114253.0
1032489.198691,100004.5,175700.0,7265.0,114266.0
1032489.209392,100015.2,175716.0,7278.0,114265.0
1032489.220092,100025.9,175761.0,7294.0,114308.0
1032489.230793,100036.6,175729.0,7282.0,114264.0
1032489.241494,100047.3,175753.0,7288.0,114288.0
1032489.252195,100058.0,175752.0,7294.0,114307.0
1032489.262529,100068.333,175775.0,7301.0,114315.0
1032489.272863,100078.667,175739.0,7289.0,114273.0
1032489.283197,100089.0,175745.0,7307.0,114294.0
1032489.293531,100099.333,175775.0,7304.0,114301.0
1032489.303865,100109.667,175759.0,7310.0,114280.0
1032489.314199,100120.0,175779.0,7317.0,114330.0
1032489.324534,100130.333,175782.0,7335.0,114338.0
1032489.334868,100140.667,175810.0,7331.0,114280.0
1032489.345202,100151.0,175764.0,7278.0,114287.0
1032489.35493,100160.727,175791.0,7302.0,114318.0
1032489.364658,100170.455,175777.0,7333.0,114303.0
1032489.374386,100180.182,175796.0,7315.0,114311.0
1032489.384114,100189.909,175826.0,7325.0,114302.0
1032489.393842,100199.636,175831.0,7315.0,114295.0
1032489.40357,100209.364,175813.0,7318.0,114331.0
1032489.413298,100219.091,175836.0,7330.0,114334.0
1032489.423026,100228.818,175832.0,7302.0,114322.0
1032489.432754,100238.545,175836.0,7320.0,114313.0
1032489.442482,100248.273,175851.0,7336.0,114355.0
1032489.45221,100258.0,175859.0,7339.0,114336.0
1032489.462544,100268.333,175838.0,7350.0,114370.0
1032489.472878,100278.667,175803.0,7332.0,114300.0
1032489.483212,100289.0,175870.0,7325.0,114363.0
1032489.493546,100299.333,175846.0,7361.0,114329.0
1032489.50388,100309.667,175851.0,7354.0,114336.0
1032489.514214,100320.0,175863.0,7357.0,114339.0
1032489.524548,100330.333,175876.0,7387.0,114385.0
1032489.534883,100340.667,175894.0,7372.0,114350.0
1032489.545217,100351.0,175888.0,7363.0,114349.0
1032489.554945,100360.727,175864.0,7335.0,114352.0
1032489.564673,100370.455,175881.0,7372.0,114361.0
1032489.574401,100380.182,175846.0,7347.0,114344.0
1032489.584129,100389.909,175806.0,7336.0,114348.0
1032489.593857,100399.636,175839.0,7368.0,114389.0
1032489.603585,100409.364,175775.0,7312.0,114335.0
1032489.613313,100419.091,175773.0,7327.0,114333.0
1032489.623041,100428.818,175756.0,7318.0,114312.0
1032489.632769,100438.545,175757.0,7330.0,114332.0
1032489.642497,100448.273,175711.0,7301.0,114274.0
1032489.652225,100458.0,175738.0,7293.0,114314.0
1032489.662925,100468.7,175706.0,7307.0,114300.0
1032489.673626,100479.4,175759.0,7316.0,114308.0
1032489.684327,100490.1,175746.0,7304.0,114344.0
1032489.695028,100500.8,175729.0,7329.0,114322.0
1032489.705729,100511.5,175724.0,7318.0,114337.0
1032489.716429,100522.2,175730.0,7309.0,114315.0
1032489.72713,100532.9,175723.0,7309.0,114324.0
1032489.737831,100543.6,175798.0,7358.0,114334.0
1032489.748532,100554.3,175745.0,7334.0,114324.0
1032489.759233,100565.0,175719.0,7332.0,114300.0
1032489.768533,100574.3,175775.0,7330.0,114330.0
1032489.777834,100583.6,175735.0,7347.0,114351.0
1032489.787135,100592.9,175761.0,7337.0,114327.0
1032489.796435,100602.2,175729.0,7341.0,114337.0
1032489.805736,100611.5,175725.0,7331.0,114337.0
1032489.815037,100620.8,175725.0,7349.0,114310.0
1032489.824338,100630.1,175757.0,7351.0,114334.0
1032489.833638,100639.4,175719.0,7348.0,114325.0
1032489.842939,100648.7,175711.0,7322.0,114301.0
1032489.85224,100658.0,175733.0,7318.0,114321.0
1032489.86294,100668.7,175757.0,7365.0,114335.0
1032489.873641,100679.4,175757.0,7384.0,114339.0
1032489.884342,100690.1,175717.0,7344.0,114324.0
1032489.895043,100700.8,175773.0,7357.0,114334.0
1032489.905744,100711.5,175735.0,7369.0,114332.0
1032489.916444,100722.2,175703.0,7359.0,114319.0
1032489.927145,100732.9,175730.0,7337.0,114328.0
1032489.937846,100743.6,175773.0,7387.0,114321.0
1032489.948547,100754.3,175776.0,7374.0,114343.0
1032489.959248,100765.0,175760.0,7361.0,114321.0
1032489.968885,100774.636,175756.0,7364.0,114312.0
1032489.978522,100784.273,175774.0,7390.0,114366.0
1032489.988159,100793.909,175755.0,7383.0,114340.0
1032489.997796,100803.545,175741.0,7365.0,114336.0
1032490.007433,100813.182,175796.0,7416.0,114324.0
1032490.01707,100822.818,175771.0,7415.0,114340.0
1032490.026707,100832.455,175791.0,7404.0,114367.0
1032490.036344,100842.091,175798.0,7385.0,114357.0
1032490.045981,100851.727,175841.0,7413.0,114399.0
1032490.055618,100861.364,175808.0,7413.0,114338.0
1032490.065256,100871.0,175806.0,7413.0,114377.0
1032490.075701,100881.444,175814.0,7411.0,114354.0
1032490.086146,100891.889,175828.0,7433.0,114373.0
1032490.096591,100902.333,175816.0,7403.0,114347.0
1032490.107036,100912.778,175806.0,7416.0,114382.0
1032490.117482,100923.222,175774.0,7419.0,114400.0
1032490.127927,100933.667,175746.0,7374.0,114316.0
1032490.138372,100944.111,175728.0,7411.0,114368.0
1032490.148817,100954.556,175700.0,7373.0,114333.0
1032490.159263,100965.0,175698.0,7376.0,114348.0
1032490.1689,100974.636,175656.0,7356.0,114302.0
1032490.178537,100984.273,175690.0,7375.0,114337.0
1032490.188174,100993.909,175644.0,7330.0,114310.0
1032490.197811,101003.545,175618.0,7371.0,114309.0
1032490.207448,101013.182,175636.0,7369.0,114349.0
1032490.217085,101022.818,175625.0,7372.0,114295.0
1032490.226722,101032.455,175589.0,7326.0,114312.0
1032490.236359,101042.091,175597.0,7359.0,114302.0
1032490.245996,101051.727,175608.0,7344.0,114308.0
1032490.255633,101061.364,175615.0,7360.0,114319.0
1032490.265271,101071.0,175567.0,7339.0,114259.0
1032490.275605,101081.333,175601.0,,114311.0
1032490.275716,101081.444,,7361.0,
1032490.285939,101091.667,175620.0,,114332.0
1032490.286161,101091.889,,7370.0,
1032490.296273,101102.0,175589.0,,114300.0
1032490.296606,101102.333,,7353.0,
1032490.306607,101112.333,175633.0,,114333.0
1032490.307051,101112.778,,7370.0,
1032490.316941,101122.667,175623.0,,114310.0
1032490.317497,101123.222,,7370.0,
1032490.327275,101133.0,175599.0,,114300.0
1032490.327942,101133.667,,7406.0,
1032490.337609,101143.333,175595.0,,114288.0
1032490.338387,101144.111,,7358.0,
1032490.347943,101153.667,175597.0,,114333.0
1032490.348832,101154.556,,7368.0,
1032490.358277,101164.0,175599.0,,114304.0
1032490.359278,101165.0,,7373.0,
1032490.368005,101173.727,175613.0,,114287.0
1032490.368915,101174.636,,7404.0,
1032490.377733,101183.455,175576.0,,114289.0
1032490.378552,101184.273,,7378.0,
1032490.387461,101193.182,175624.0,,114312.0
1032490.388189,101193.909,,7397.0,
1032490.397189,101202.909,175577.0,,114293.0
1032490.397826,101203.545,,7366.0,
1032490.406917,101212.636,175600.0,,114300.0
1032490.407463,101213.182,,7385.0,
1032490.416645,101222.364,175593.0,,114307.0
1032490.4171,101222.818,,7411.0,
1032490.426373,101232.091,175604.0,,114300.0
1032490.426737,101232.455,,7391.0,
1032490.436101,101241.818,175582.0,,114297.0
1032490.436374,101242.091,,7397.0,
1032490.445829,101251.545,175573.0,,114282.0
1032490.446011,101251.727,,7386.0,
1032490.455557,101261.273,175628.0,,114304.0
1032490.455648,101261.364,,7404.0,
1032490.465285,101271.0,175583.0,7399.0,114288.0
1032490.475986,101281.7,175593.0,7408.0,114289.0
1032490.486687,101292.4,175564.0,7387.0,114300.0
1032490.497388,101303.1,175548.0,7386.0,114277.0
1032490.508089,101313.8,175605.0,7390.0,114296.0
1032490.518789,101324.5,175586.0,7410.0,114293.0
1032490.52949,101335.2,175570.0,7428.0,114329.0
1032490.540191,101345.9,175559.0,7426.0,114278.0
1032490.550892,101356.6,175566.0,7399.0,114278.0
1032490.561593,101367.3,175590.0,7424.0,114287.0
1032490.572293,101378.0,175632.0,7452.0,114304.0
1032490.581594,101387.3,175580.0,7417.0,114274.0
1032490.590895,101396.6,175559.0,7420.0,114297.0
1032490.600196,101405.9,175565.0,7433.0,114292.0
1032490.609496,101415.2,175558.0,7412.0,114283.0
1032490.618797,101424.5,175572.0,7409.0,114262.0
1032490.628098,101433.8,175562.0,7428.0,114272.0
1032490.637398,101443.1,175583.0,7446.0,114297.0
1032490.646699,101452.4,175565.0,7423.0,114296.0
1032490.656,101461.7,175601.0,7456.0,114301.0
1032490.6653,101471.0,175597.0,7401.0,114306.0
1032490.676001,101481.7,175556.0,7424.0,114275.0
1032490.686702,101492.4,175531.0,7414.0,114295.0
1032490.697403,101503.1,175531.0,7430.0,114284.0
1032490.708104,101513.8,175482.0,7397.0,114250.0
1032490.718804,101524.5,175476.0,7399.0,114248.0
1032490.729505,101535.2,175465.0,7398.0,114251.0
1032490.740206,101545.9,175449.0,7377.0,114254.0
1032490.750907,101556.6,175478.0,7401.0,114254.0
1032490.761608,101567.3,175406.0,7384.0,114231.0
1032490.772308,101578.0,175431.0,7382.0,114251.0
1032490.782036,101587.727,175400.0,7365.0,114243.0
1032490.791764,101597.455,175393.0,7352.0,114240.0
1032490.801492,101607.182,175414.0,7384.0,114226.0
1032490.81122,101616.909,175426.0,7383.0,114235.0
1032490.820948,101626.636,175398.0,7379.0,114227.0
1032490.830676,101636.364,175425.0,7389.0,114247.0
1032490.840404,101646.091,175435.0,7383.0,114224.0
1032490.850132,101655.818,175449.0,7392.0,114240.0
1032490.85986,101665.545,175452.0,7407.0,114239.0
1032490.869588,101675.273,175434.0,7383.0,114232.0
1032490.879316,101685.0,175466.0,7415.0,114238.0
1032490.889651,101695.333,175439.0,7397.0,114245.0
1032490.899985,101705.667,175432.0,7415.0,114232.0
1032490.910319,101716.0,175470.0,7417.0,114229.0
1032490.920653,101726.333,175462.0,7395.0,114216.0
1032490.930987,101736.667,175481.0,7385.0,114260.0
1032490.941321,101747.0,175496.0,7395.0,114268.0
1032490.951655,101757.333,175495.0,7429.0,114262.0
1032490.961989,101767.667,175451.0,7409.0,114228.0
1032490.972323,101778.0,175471.0,7399.0,114240.0
1032490.98196,101787.636,175445.0,7409.0,114237.0
1032490.991598,101797.273,175498.0,7435.0,114245.0
1032491.001235,101806.909,175504.0,7433.0,114262.0
1032491.010872,101816.545,175475.0,7410.0,114262.0
1032491.020509,101826.182,175466.0,7446.0,114250.0
1032491.030146,101835.818,175461.0,7403.0,114223.0
1032491.039783,101845.455,175452.0,7401.0,114239.0
1032491.04942,101855.091,175468.0,7427.0,114248.0
1032491.059057,101864.727,175502.0,7419.0,114235.0
1032491.068694,101874.364,175470.0,7429.0,114230.0
1032491.078331,101884.0,175471.0,7422.0,114223.0
1032491.088777,101894.444,175491.0,7423.0,114252.0
1032491.099222,101904.889,175531.0,7405.0,114275.0
1032491.109667,101915.333,175520.0,7454.0,114291.0
1032491.120112,101925.778,175506.0,7417.0,114270.0
1032491.130557,101936.222,175499.0,7434.0,114264.0
1032491.141003,101946.667,175512.0,7420.0,114269.0
1032491.151448,101957.111,175532.0,7444.0,114270.0
1032491.161893,101967.556,175499.0,7458.0,114254.0
1032491.172338,101978.0,175521.0,7451.0,114280.0
1032491.182939,101988.6,175507.0,7461.0,114292.0
1032491.19354,101999.2,175531.0,7489.0,114265.0
1032491.204141,102009.8,175562.0,7434.0,114293.0
1032491.214742,102020.4,175541.0,7470.0,114283.0
1032491.225342,102031.0,175549.0,7456.0,114304.0
1032491.235943,102041.6,175540.0,7441.0,114257.0
1032491.246544,102052.2,175529.0,7467.0,114272.0
1032491.257145,102062.8,175526.0,7417.0,114266.0
1032491.267746,102073.4,175515.0,7434.0,114252.0
1032491.278346,102084.0,175505.0,7429.0,114226.0
1032491.288074,102093.727,175450.0,7401.0,114243.0
1032491.297802,102103.455,175466.0,7385.0,114263.0
1032491.30753,102113.182,175435.0,7406.0,114250.0
1032491.317258,102122.909,175394.0,7395.0,114255.0
1032491.326986,102132.636,175422.0,7409.0,114252.0
1032491.336714,102142.364,175380.0,7424.0,114193.0
1032491.346442,102152.091,175387.0,7388.0,114215.0
1032491.35617,102161.818,175355.0,7381.0,114210.0
1032491.365898,102171.545,175388.0,7360.0,114212.0
1032491.375626,102181.273,175389.0,7394.0,114237.0
1032491.385354,102191.0,175388.0,7383.0,114210.0
1032491.395688,102201.333,175358.0,7376.0,114224.0
1032491.406023,102211.667,175410.0,7408.0,114239.0
1032491.416357,102222.0,175426.0,7395.0,114231.0
1032491.426691,102232.333,175425.0,7396.0,114222.0
1032491.437025,102242.667,175432.0,7386.0,114239.0
1032491.447359,102253.0,175444.0,7420.0,114249.0
1032491.457693,102263.333,175415.0,7399.0,114210.0
1032491.468027,102273.667,175425.0,7428.0,114254.0
1032491.478361,102284.0,175416.0,7396.0,114246.0
1032491.488089,102293.727,175460.0,7397.0,114250.0
1032491.497817,102303.455,175449.0,7388.0,114230.0
1032491.507545,102313.182,175456.0,7400.0,114240.0
1032491.517273,102322.909,175421.0,7390.0,114271.0
1032491.527001,102332.636,175464.0,7429.0,114264.0
1032491.536729,102342.364,175439.0,7391.0,114240.0
1032491.546457,102352.091,175464.0,7407.0,114243.0
1032491.556185,102361.818,175443.0,7434.0,114239.0
1032491.565913,102371.545,175448.0,7404.0,114230.0
1032491.575641,102381.273,175487.0,7434.0,114255.0
1032491.585369,102391.0,175476.0,7414.0,114249.0
1032491.595703,102401.333,175453.0,7395.0,114238.0
1032491.606037,102411.667,175452.0,7396.0,114240.0
1032491.616372,102422.0,175457.0,7405.0,114210.0
1032491.626706,102432.333,175503.0,7416.0,114241.0
1032491.63704,102442.667,175504.0,7402.0,114243.0
1032491.647374,102453.0,175535.0,7414.0,114272.0
1032491.657708,102463.333,175481.0,7436.0,114234.0
1032491.668042,102473.667,175498.0,7428.0,114247.0
1032491.678376,102484.0,175497.0,7435.0,114253.0
1032491.688104,102493.727,175544.0,7455.0,114274.0
1032491.697832,102503.455,175557.0,7441.0,114236.0
1032491.70756,102513.182,175550.0,7440.0,114272.0
1032491.717288,102522.909,175542.0,7435.0,114252.0
1032491.727016,102532.636,175500.0,7426.0,114251.0
1032491.736744,102542.364,175527.0,7427.0,114236.0
1032491.746472,102552.091,175545.0,7472.0,114257.0
1032491.7562,102561.818,175542.0,7440.0,114288.0
1032491.765928,102571.545,175542.0,7438.0,114249.0
1032491.775656,102581.273,175570.0,7442.0,114258.0
1032491.785384,102591.0,175588.0,7456.0,114269.0
1032491.796085,102601.7,175589.0,7452.0,114283.0
1032491.806786,102612.4,175560.0,7427.0,114272.0
1032491.817487,102623.1,175549.0,7424.0,114259.0
1032491.828187,102633.8,175535.0,7431.0,114254.0
1032491.838888,102644.5,175537.0,7424.0,114266.0
1032491.849589,102655.2,175510.0,7418.0,114245.0
1032491.86029,102665.9,175536.0,7389.0,114276.0
1032491.870991,102676.6,175444.0,7367.0,114248.0
1032491.881691,102687.3,175484.0,7394.0,114228.0
1032491.892392,102698.0,175489.0,7412.0,114227.0
1032491.901693,102707.3,175486.0,7387.0,114216.0
1032491.910994,102716.6,175456.0,7349.0,114201.0
1032491.920294,102725.9,175460.0,7380.0,114233.0
1032491.929595,102735.2,175472.0,7384.0,114249.0
1032491.938896,102744.5,175445.0,7359.0,114202.0
1032491.948196,102753.8,175468.0,7382.0,114234.0
1032491.957497,102763.1,175458.0,7373.0,114221.0
1032491.966798,102772.4,175482.0,7386.0,114208.0
1032491.976098,102781.7,175454.0,7362.0,114213.0
1032491.985399,102791.0,175494.0,7400.0,114250.0
1032491.9961,102801.7,175468.0,7390.0,114230.0
1032492.006801,102812.4,175460.0,7379.0,114211.0
1032492.017502,102823.1,175511.0,7411.0,114237.0
1032492.028202,102833.8,175488.0,7415.0,114230.0
1032492.038903,102844.5,175496.0,7398.0,114242.0
1032492.049604,102855.2,175467.0,7375.0,114226.0
1032492.060305,102865.9,175529.0,7372.0,114252.0
1032492.071006,102876.6,175483.0,7409.0,114223.0
1032492.081706,102887.3,175513.0,7390.0,114237.0
1032492.092407,102898.0,175506.0,7388.0,114226.0
1032492.101708,102907.3,175519.0,7430.0,114259.0
1032492.111009,102916.6,175480.0,7384.0,114229.0
1032492.120309,102925.9,175532.0,7397.0,114228.0
1032492.12961,102935.2,175570.0,7398.0,114223.0
1032492.138911,102944.5,175523.0,7395.0,114248.0
1032492.148211,102953.8,175505.0,7383.0,114230.0
1032492.157512,102963.1,175506.0,7408.0,114230.0
1032492.166813,102972.4,175501.0,7401.0,114260.0
1032492.176113,102981.7,175476.0,7373.0,114234.0
1032492.185414,102991.0,175526.0,7405.0,114224.0
1032492.196115,103001.7,175530.0,7427.0,114233.0
1032492.206816,103012.4,175545.0,7427.0,114250.0
1032492.217517,103023.1,175537.0,7396.0,114236.0
1032492.228217,103033.8,175554.0,7430.0,114259.0
1032492.238918,103044.5,175546.0,7406.0,114246.0
1032492.249619,103055.2,175570.0,7415.0,114253.0
1032492.26032,103065.9,175598.0,7407.0,114281.0
1032492.271021,103076.6,175596.0,7450.0,114274.0
1032492.281721,103087.3,175548.0,7410.0,114236.0
1032492.292422,103098.0,175586.0,7429.0,114252.0
1032492.30215,103107.727,175585.0,7434.0,114286.0
1032492.311878,103117.455,175607.0,7442.0,114237.0
1032492.321606,103127.182,175616.0,7409.0,114256.0
1032492.331334,103136.909,175634.0,7440.0,114264.0
1032492.341062,103146.636,175644.0,7452.0,114289.0
1032492.35079,103156.364,175611.0,7426.0,114255.0
1032492.360518,103166.091,175639.0,7441.0,114281.0
1032492.370246,103175.818,175644.0,7422.0,114269.0
1032492.379974,103185.545,175645.0,7451.0,114257.0
1032492.389702,103195.273,175591.0,7421.0,114221.0
1032492.39943,103205.0,175627.0,7430.0,114254.0
1032492.409764,103215.333,175575.0,7394.0,114255.0
1032492.420098,103225.667,175543.0,7370.0,114232.0
1032492.430432,103236.0,175556.0,7385.0,114263.0
1032492.440767,103246.333,175587.0,7412.0,114238.0
1032492.451101,103256.667,175557.0,7365.0,114242.0
1032492.461435,103267.0,175535.0,7356.0,114217.0
1032492.471769,103277.333,175570.0,7363.0,114242.0
1032492.482103,103287.667,175539.0,7374.0,114231.0
1032492.492437,103298.0,175548.0,7363.0,114230.0
1032492.502074,103307.636,175536.0,7368.0,114229.0
1032492.511711,103317.273,175517.0,7355.0,114205.0
1032492.521348,103326.909,175518.0,7357.0,114222.0
1032492.530985,103336.545,175513.0,7328.0,114227.0
1032492.540623,103346.182,175538.0,7396.0,114253.0
1032492.55026,103355.818,175545.0,7382.0,114215.0
1032492.559897,103365.455,175565.0,7350.0,114234.0
1032492.569534,103375.091,175588.0,7361.0,114251.0
1032492.579171,103384.727,175615.0,7398.0,114257.0
1032492.588808,103394.364,175572.0,7378.0,114230.0
1032492.598445,103404.0,175599.0,7382.0,114255.0
1032492.60889,103414.444,175585.0,7376.0,114267.0
1032492.619335,103424.889,175620.0,7404.0,114283.0
1032492.629781,103435.333,175588.0,7379.0,114251.0
1032492.640226,103445.778,175640.0,7403.0,114278.0
1032492.650671,103456.222,175621.0,7388.0,114257.0
1032492.661116,103466.667,175617.0,7374.0,114240.0
1032492.671562,103477.111,175638.0,7367.0,114248.0
1032492.682007,103487.556,175654.0,7413.0,114292.0
1032492.692452,103498.0,175625.0,7387.0,114267.0
1032492.703053,103508.6,175618.0,7415.0,114247.0
1032492.713654,103519.2,175629.0,7399.0,114286.0
1032492.724254,103529.8,175625.0,7398.0,114261.0
1032492.734855,103540.4,175641.0,7409.0,114273.0
1032492.745456,103551.0,175655.0,7404.0,114299.0
1032492.756057,103561.6,175665.0,7403.0,114287.0
1032492.766658,103572.2,175640.0,7391.0,114266.0
1032492.777258,103582.8,175644.0,7402.0,114274.0
1032492.787859,103593.4,175639.0,7409.0,114283.0
1032492.79846,103604.0,175632.0,7402.0,114287.0
1032492.808188,103613.727,175645.0,7392.0,114254.0
1032492.817916,103623.455,175701.0,7387.0,114293.0
1032492.827644,103633.182,175703.0,7404.0,114296.0
1032492.837372,103642.909,175681.0,7418.0,114285.0
1032492.8471,103652.636,175679.0,7423.0,114313.0
1032492.856828,103662.364,175695.0,7445.0,114283.0
1032492.866556,103672.091,175702.0,7425.0,114299.0
1032492.876284,103681.818,175691.0,7422.0,114290.0
1032492.886012,103691.545,175754.0,7428.0,114315.0
1032492.89574,103701.273,175743.0,7457.0,114309.0
1032492.905468,103711.0,175737.0,7430.0,114302.0
1032492.915802,103721.333,175709.0,7427.0,114286.0
1032492.926136,103731.667,175710.0,7447.0,114323.0
1032492.93647,103742.0,175635.0,7412.0,114256.0
1032492.946804,103752.333,175671.0,7412.0,114284.0
1032492.957139,103762.667,175666.0,7417.0,114274.0
1032492.967473,103773.0,175646.0,7424.0,114276.0
1032492.977807,103783.333,175599.0,7375.0,114259.0
1032492.988141,103793.667,175622.0,7383.0,114267.0
1032492.998475,103804.0,175615.0,7365.0,114302.0
1032493.008203,103813.727,175605.0,7364.0,114266.0
1032493.017931,103823.455,175619.0,7364.0,114270.0
1032493.027659,103833.182,175610.0,7370.0,114268.0
1032493.037387,103842.909,175585.0,7380.0,114254.0
1032493.047115,103852.636,175612.0,7362.0,114255.0
1032493.056843,103862.364,175602.0,7388.0,114297.0
1032493.066571,103872.091,175639.0,7391.0,114295.0
1032493.076299,103881.818,175637.0,7357.0,114255.0
1032493.086027,103891.545,175611.0,7361.0,114261.0
1032493.095755,103901.273,175652.0,7409.0,114291.0
1032493.105483,103911.0,175633.0,7379.0,114279.0
1032493.115817,103921.333,175619.0,7374.0,114283.0
1032493.126151,103931.667,175616.0,7373.0,114271.0
1032493.136485,103942.0,175636.0,7362.0,114267.0
1032493.146819,103952.333,175652.0,7386.0,114289.0
1032493.157153,103962.667,175655.0,7377.0,114284.0
1032493.167488,103973.0,175659.0,7418.0,114308.0
1032493.177822,103983.333,175635.0,7384.0,114265.0
1032493.188156,103993.667,175661.0,7368.0,114296.0
1032493.19849,104004.0,175659.0,7413.0,114319.0
1032493.208218,104013.727,175694.0,7428.0,114294.0
1032493.217946,104023.455,175668.0,7388.0,114264.0
1032493.227674,104033.182,175672.0,7402.0,114297.0
1032493.237402,104042.909,175667.0,7408.0,114295.0
1032493.24713,104052.636,175659.0,7390.0,114274.0
1032493.256858,104062.364,175657.0,7396.0,114290.0
1032493.266586,104072.091,175702.0,7420.0,114293.0
1032493.276314,104081.818,175693.0,7402.0,114308.0
1032493.286042,104091.545,175682.0,7403.0,114275.0
1032493.29577,104101.273,175693.0,7410.0,114277.0
1032493.305498,104111.0,175723.0,7427.0,114321.0
1032493.316199,104121.7,175705.0,7428.0,114311.0
1032493.326899,104132.4,175703.0,7425.0,114290.0
1032493.3376,104143.1,175689.0,7405.0,114325.0
1032493.348301,104153.8,175694.0,7427.0,114282.0
1032493.359002,104164.5,175712.0,7433.0,114308.0
1032493.369703,104175.2,175719.0,7451.0,114334.0
1032493.380403,104185.9,175749.0,7445.0,114326.0
1032493.391104,104196.6,175715.0,7423.0,114300.0
1032493.401805,104207.3,175729.0,7447.0,114325.0
1032493.412506,104218.0,175738.0,7448.0,114315.0
1032493.421807,104227.3,175741.0,7470.0,114306.0
1032493.431107,104236.6,175762.0,7451.0,114329.0
1032493.440408,104245.9,175755.0,7460.0,114330.0
1032493.449709,104255.2,175724.0,7464.0,114325.0
1032493.459009,104264.5,175738.0,7436.0,114327.0
1032493.46831,104273.8,175761.0,7462.0,114337.0
1032493.477611,104283.1,175738.0,7437.0,114320.0
1032493.486911,104292.4,175728.0,7452.0,114314.0
1032493.496212,104301.7,175675.0,7418.0,114293.0
1032493.505513,104311.0,175724.0,7444.0,114336.0
1032493.516114,104321.6,175691.0,7405.0,114301.0
1032493.526714,104332.2,175667.0,7427.0,114294.0
1032493.537315,104342.8,175702.0,7432.0,114323.0
1032493.547916,104353.4,175672.0,7411.0,114287.0
1032493.558517,104364.0,175657.0,7408.0,114292.0
1032493.569118,104374.6,175625.0,7393.0,114274.0
1032493.579718,104385.2,175665.0,7381.0,114302.0
1032493.590319,104395.8,175657.0,7413.0,114285.0
1032493.60092,104406.4,175619.0,7393.0,114264.0
1032493.611521,104417.0,175623.0,7395.0,114273.0
1032493.620921,104426.4,175657.0,7430.0,114303.0
1032493.630322,104435.8,175633.0,7402.0,114274.0
1032493.639723,104445.2,175643.0,7399.0,114280.0
1032493.649124,104454.6,175664.0,7418.0,114311.0
1032493.658524,104464.0,175640.0,7403.0,114255.0
1032493.667925,104473.4,175652.0,7397.0,114269.0
1032493.677326,104482.8,175667.0,7413.0,114295.0
1032493.686726,104492.2,175684.0,7419.0,114318.0
1032493.696127,104501.6,175643.0,7389.0,114280.0
1032493.705528,104511.0,175689.0,7421.0,114300.0
1032493.716229,104521.7,175689.0,7443.0,114296.0
1032493.726929,104532.4,175668.0,7411.0,114298.0
1032493.73763,104543.1,175705.0,7442.0,114310.0
1032493.748331,104553.8,175706.0,7444.0,114318.0
1032493.759032,104564.5,175661.0,7410.0,114291.0
1032493.769733,104575.2,175693.0,7425.0,114280.0
1032493.780433,104585.9,175693.0,7411.0,114300.0
1032493.791134,104596.6,175703.0,7442.0,114319.0
1032493.801835,104607.3,175667.0,7426.0,114272.0
1032493.812536,104618.0,175692.0,7427.0,114307.0
1032493.82287,104628.333,175680.0,7437.0,114322.0
1032493.833204,104638.667,175695.0,7420.0,114295.0
1032493.843538,104649.0,175730.0,7447.0,114316.0
1032493.853872,104659.333,175714.0,7438.0,114301.0
1032493.864206,104669.667,175690.0,7469.0,114328.0
1032493.87454,104680.0,175699.0,7431.0,114291.0
1032493.884875,104690.333,175695.0,7427.0,114328.0
1032493.895209,104700.667,175735.0,7453.0,114307.0
1032493.905543,104711.0,175763.0,7469.0,114306.0
1032493.915271,104720.727,175727.0,7452.0,114314.0
1032493.924999,104730.455,175771.0,7472.0,114330.0
1032493.934727,104740.182,175747.0,7457.0,114311.0
1032493.944455,104749.909,175713.0,7446.0,114324.0
1032493.954183,104759.636,175750.0,7488.0,114317.0
1032493.963911,104769.364,175723.0,7436.0,114315.0
1032493.973639,104779.091,175746.0,7471.0,114323.0
1032493.983367,104788.818,175742.0,7462.0,114308.0
1032493.993095,104798.545,175786.0,7477.0,114337.0
1032494.002823,104808.273,175750.0,7473.0,114309.0
1032494.012551,104818.0,175778.0,7474.0,114328.0
1032494.022188,104827.636,175731.0,7449.0,114326.0
1032494.031825,104837.273,175779.0,7501.0,114320.0
1032494.041462,104846.909,175770.0,7454.0,114324.0
1032494.051099,104856.545,175721.0,7462.0,114321.0
1032494.060736,104866.182,175727.0,7476.0,114331.0
1032494.070373,104875.818,175691.0,7429.0,114286.0
1032494.08001,104885.455,175687.0,7430.0,114306.0
1032494.089647,104895.091,175693.0,7444.0,114311.0
1032494.099285,104904.727,175704.0,7449.0,114307.0
1032494.108922,104914.364,175670.0,7455.0,114323.0
1032494.118559,104924.0,175666.0,7425.0,114289.0
1032494.128893,104934.333,175692.0,7431.0,114296.0
1032494.139227,104944.667,175697.0,7414.0,114309.0
1032494.149561,104955.0,175635.0,7426.0,114302.0
1032494.159895,104965.333,175692.0,7438.0,114288.0
1032494.170229,104975.667,175655.0,7416.0,114288.0
1032494.180563,104986.0,175648.0,7418.0,114283.0
1032494.190897,104996.333,175622.0,7416.0,114275.0
1032494.201232,105006.667,175686.0,7421.0,114313.0
1032494.211566,105017.0,175668.0,7459.0,114298.0
1032494.222266,105027.7,175686.0,7443.0,114298.0
1032494.232967,105038.4,175673.0,7427.0,114292.0
1032494.243668,105049.1,175683.0,7437.0,114295.0
1032494.254369,105059.8,175679.0,7460.0,114308.0
1032494.26507,105070.5,175692.0,7454.0,114329.0
1032494.27577,105081.2,175660.0,7465.0,114303.0
1032494.286471,105091.9,175699.0,7448.0,114308.0
1032494.297172,105102.6,175691.0,7435.0,114281.0
1032494.307873,105113.3,175713.0,7461.0,114309.0
1032494.318574,105124.0,175719.0,7476.0,114330.0
1032494.328302,105133.727,175695.0,7450.0,114293.0
1032494.33803,105143.455,175715.0,7436.0,114315.0
1032494.347758,105153.182,175708.0,7466.0,114304.0
1032494.357486,105162.909,175685.0,7439.0,114306.0
1032494.367214,105172.636,175720.0,7479.0,114336.0
1032494.376942,105182.364,175682.0,7473.0,114280.0
1032494.38667,105192.091,175730.0,7464.0,114315.0
1032494.396398,105201.818,175718.0,7476.0,114318.0
1032494.406126,105211.545,175727.0,7459.0,114326.0
1032494.415854,105221.273,175727.0,7493.0,114313.0
1032494.425582,105231.0,175712.0,7471.0,114300.0
1032494.435916,105241.333,175684.0,7495.0,114285.0
1032494.44625,105251.667,175705.0,7492.0,114317.0
1032494.456584,105262.0,175697.0,7473.0,114289.0
1032494.466918,105272.333,175748.0,7483.0,114317.0
1032494.477252,105282.667,175770.0,7500.0,114344.0
1032494.487586,105293.0,175733.0,7475.0,114307.0
1032494.49792,105303.333,175737.0,7509.0,114328.0
1032494.508254,105313.667,175748.0,7495.0,114320.0
1032494.518589,105324.0,175766.0,7505.0,114304.0
1032494.528317,105333.727,175743.0,7509.0,114339.0
1032494.538045,105343.455,175799.0,7493.0,114326.0
1032494.547773,105353.182,175763.0,7507.0,114326.0
1032494.557501,105362.909,175751.0,7503.0,114323.0
1032494.567229,105372.636,175782.0,7541.0,114359.0
1032494.576957,105382.364,175788.0,7524.0,114323.0
1032494.586685,105392.091,175769.0,7509.0,114325.0
1032494.596413,105401.818,175769.0,7518.0,114332.0
1032494.606141,105411.545,175727.0,7505.0,114304.0
1032494.615869,105421.273,175758.0,7488.0,114309.0
1032494.625597,105431.0,175717.0,7496.0,114307.0
1032494.635931,105441.333,175680.0,7485.0,114310.0
1032494.646265,105451.667,175673.0,7471.0,114326.0
1032494.656599,105462.0,175650.0,7445.0,114285.0
1032494.666933,105472.333,175680.0,7458.0,114291.0
1032494.677267,105482.667,175648.0,7455.0,114267.0
1032494.687601,105493.0,175681.0,7473.0,114278.0
1032494.697935,105503.333,175676.0,7483.0,114297.0
1032494.708269,105513.667,175676.0,7437.0,114287.0
1032494.718604,105524.0,175650.0,7484.0,114276.0
1032494.728332,105533.727,175673.0,7489.0,114319.0
1032494.73806,105543.455,175634.0,7472.0,114260.0
1032494.747788,105553.182,175656.0,7493.0,114281.0
1032494.757516,105562.909,175646.0,7484.0,114274.0
1032494.767244,105572.636,175664.0,7486.0,114272.0
1032494.776972,105582.364,175700.0,7499.0,114331.0
1032494.7867,105592.091,175709.0,7503.0,114304.0
1032494.796428,105601.818,175668.0,7475.0,114295.0
1032494.806156,105611.545,175651.0,7471.0,114262.0
1032494.815884,105621.273,175662.0,7462.0,114257.0
1032494.825612,105631.0,175704.0,7492.0,114315.0
1032494.836212,105641.6,175684.0,7492.0,114308.0
1032494.846813,105652.2,175680.0,7486.0,114323.0
1032494.857414,105662.8,175705.0,7494.0,114277.0
1032494.868015,105673.4,175687.0,7484.0,114286.0
1032494.878616,105684.0,175707.0,7505.0,114305.0
1032494.889216,105694.6,175682.0,7499.0,114316.0
1032494.899817,105705.2,175714.0,7504.0,114318.0
1032494.910418,105715.8,175693.0,7492.0,114277.0
1032494.921019,105726.4,175699.0,7492.0,114300.0
1032494.931619,105737.0,175741.0,7530.0,114349.0
1032494.94102,105746.4,175712.0,7490.0,114284.0
1032494.950421,105755.8,175702.0,7503.0,114281.0
1032494.959822,105765.2,175722.0,7513.0,114307.0
1032494.969222,105774.6,175708.0,7515.0,114317.0
1032494.978623,105784.0,175716.0,7478.0,114293.0
1032494.988024,105793.4,175726.0,7509.0,114313.0
1032494.997424,105802.8,175726.0,7519.0,114311.0
1032495.006825,105812.2,175706.0,7508.0,114283.0
1032495.016226,105821.6,175697.0,7496.0,114294.0
1032495.025627,105831.0,175763.0,7501.0,114340.0
1032495.036227,105841.6,175751.0,7533.0,114312.0
1032495.046828,105852.2,175727.0,7500.0,114305.0
1032495.057429,105862.8,175737.0,7542.0,114312.0
1032495.06803,105873.4,175740.0,7549.0,114303.0
1032495.07863,105884.0,175739.0,7532.0,114315.0
1032495.089231,105894.6,175749.0,7522.0,114313.0
1032495.099832,105905.2,175769.0,7530.0,114339.0
1032495.110433,105915.8,175781.0,7538.0,114331.0
1032495.121034,105926.4,175780.0,7535.0,114315.0
1032495.131634,105937.0,175738.0,7531.0,114318.0
1032495.141035,105946.4,175769.0,7563.0,114303.0
1032495.150436,105955.8,175719.0,7508.0,114323.0
1032495.159837,105965.2,175740.0,7525.0,114310.0
1032495.169237,105974.6,175710.0,7544.0,114309.0
1032495.178638,105984.0,175703.0,7518.0,114324.0
1032495.188039,105993.4,175708.0,7500.0,114310.0
1032495.197439,106002.8,175684.0,7537.0,114323.0
1032495.20684,106012.2,175689.0,7513.0,114268.0
1032495.216241,106021.6,175651.0,7473.0,114268.0
1032495.225641,106031.0,175692.0,7478.0,114313.0
1032495.236242,106041.6,175673.0,7513.0,114286.0
1032495.246843,106052.2,175646.0,7497.0,114268.0
1032495.257444,106062.8,175662.0,7486.0,114288.0
1032495.268045,106073.4,175669.0,7513.0,114269.0
1032495.278645,106084.0,175639.0,7480.0,114280.0
1032495.289246,106094.6,175644.0,7494.0,114258.0
1032495.299847,106105.2,175665.0,7486.0,114304.0
1032495.310448,106115.8,175678.0,7513.0,114294.0
1032495.321049,106126.4,175643.0,7488.0,114260.0
1032495.331649,106137.0,175660.0,7507.0,114295.0
1032495.342095,106147.444,175666.0,7512.0,114306.0
1032495.35254,106157.889,175648.0,7497.0,114273.0
1032495.362985,106168.333,175684.0,7526.0,114320.0
1032495.37343,106178.778,175689.0,7507.0,114278.0
1032495.383876,106189.222,175668.0,7545.0,114277.0
1032495.394321,106199.667,175697.0,7501.0,114289.0
1032495.404766,106210.111,175696.0,7529.0,114312.0
1032495.415211,106220.556,175688.0,7515.0,114303.0
1032495.425656,106231.0,175702.0,7492.0,114285.0
1032495.435294,106240.636,175690.0,7512.0,114295.0
1032495.444931,106250.273,175713.0,7543.0,114307.0
1032495.454568,106259.909,175696.0,7525.0,114298.0
1032495.464205,106269.545,175646.0,7520.0,114281.0
1032495.473842,106279.182,175674.0,7541.0,114306.0
1032495.483479,106288.818,175713.0,7540.0,114269.0
1032495.493116,106298.455,175709.0,7524.0,114290.0
1032495.502753,106308.091,175699.0,7501.0,114291.0
1032495.51239,106317.727,175727.0,7545.0,114308.0
1032495.522027,106327.364,175689.0,7520.0,114259.0
1032495.531664,106337.0,175714.0,7536.0,114299.0
1032495.541392,106346.727,175735.0,7532.0,114279.0
1032495.55112,106356.455,175727.0,7542.0,114303.0
1032495.560848,106366.182,175766.0,7521.0,114318.0
1032495.570576,106375.909,175746.0,7542.0,114310.0
1032495.580304,106385.636,175732.0,7559.0,114325.0
1032495.590032,106395.364,175709.0,7509.0,114289.0
1032495.59976,106405.091,175714.0,7543.0,114326.0
1032495.609488,106414.818,175743.0,7546.0,114300.0
1032495.619216,106424.545,175767.0,7560.0,114287.0
1032495.628944,106434.273,175741.0,7552.0,114310.0
1032495.638672,106444.0,175771.0,7566.0,114307.0
1032495.649006,106454.333,175757.0,7564.0,114304.0
1032495.659341,106464.667,175736.0,7568.0,114326.0
1032495.669675,106475.0,175744.0,7563.0,114331.0
1032495.680009,106485.333,175788.0,7590.0,114319.0
1032495.690343,106495.667,175781.0,7563.0,114302.0
1032495.700677,106506.0,175738.0,7536.0,114304.0
1032495.711011,106516.333,175767.0,7548.0,114300.0
1032495.721345,106526.667,175716.0,7542.0,114303.0
1032495.731679,106537.0,175661.0,7505.0,114286.0
1032495.74238,106547.7,175662.0,7522.0,114283.0
1032495.753081,106558.4,175722.0,7547.0,114297.0
1032495.763782,106569.1,175668.0,7505.0,114260.0
1032495.774483,106579.8,175668.0,7505.0,114277.0
1032495.785183,106590.5,175664.0,7512.0,114275.0
1032495.795884,106601.2,175623.0,7526.0,114247.0
1032495.806585,106611.9,175618.0,7484.0,114254.0
1032495.817286,106622.6,175649.0,7536.0,114251.0
1032495.827987,106633.3,175641.0,7517.0,114283.0
1032495.838687,106644.0,175628.0,7495.0,114235.0
1032495.848415,106653.727,175657.0,7515.0,114246.0
1032495.858143,106663.455,175636.0,7531.0,114276.0
1032495.867871,106673.182,175608.0,7502.0,114251.0
1032495.877599,106682.909,175643.0,7518.0,114241.0
1032495.887327,106692.636,175678.0,7536.0,114289.0
1032495.897055,106702.364,175647.0,7508.0,114257.0
1032495.906783,106712.091,175667.0,7523.0,114261.0
1032495.916511,106721.818,175639.0,7512.0,114239.0
1032495.926239,106731.545,175682.0,7519.0,114312.0
1032495.935967,106741.273,175651.0,7512.0,114269.0
1032495.945695,106751.0,175675.0,7529.0,114286.0
1032495.956029,106761.333,175670.0,7529.0,114276.0
1032495.966364,106771.667,175673.0,7540.0,114260.0
1032495.976698,106782.0,175684.0,7524.0,114269.0
1032495.987032,106792.333,175667.0,7526.0,114272.0
1032495.997366,106802.667,175684.0,7559.0,114261.0
1032496.0077,106813.0,175662.0,7518.0,114266.0
1032496.018034,106823.333,175675.0,7537.0,114296.0
1032496.028368,106833.667,175667.0,7530.0,114273.0
1032496.038702,106844.0,175678.0,7526.0,114279.0
1032496.04843,106853.727,175644.0,7515.0,114256.0
1032496.058158,106863.455,175688.0,7532.0,114281.0
1032496.067886,106873.182,175689.0,7544.0,114271.0
1032496.077614,106882.909,175688.0,7544.0,114260.0
1032496.087342,106892.636,175709.0,7554.0,114293.0
1032496.09707,106902.364,175690.0,7549.0,114262.0
1032496.106798,106912.091,175693.0,7544.0,114276.0
1032496.116526,106921.818,175670.0,7532.0,114264.0
1032496.126254,106931.545,175746.0,7583.0,114306.0
1032496.135982,106941.273,175688.0,7544.0,114263.0
1032496.14571,106951.0,175702.0,7554.0,114281.0
1032496.156044,106961.333,175686.0,7545.0,114264.0
1032496.166378,106971.667,175723.0,7583.0,114303.0
1032496.176713,106982.0,175686.0,7555.0,114263.0
1032496.187047,106992.333,175700.0,7567.0,114276.0
1032496.197381,107002.667,175738.0,7577.0,114312.0
1032496.207715,107013.0,175718.0,7562.0,114268.0
1032496.218049,107023.333,175727.0,7567.0,114293.0
1032496.228383,107033.667,175741.0,7570.0,114290.0
1032496.238717,107044.0,175758.0,7583.0,114313.0
1032496.248445,107053.727,175706.0,7547.0,114287.0
1032496.258173,107063.455,175731.0,7545.0,114310.0
1032496.267901,107073.182,175702.0,7562.0,114243.0
1032496.277629,107082.909,175667.0,7564.0,114258.0
1032496.287357,107092.636,175692.0,7542.0,114280.0
1032496.297085,107102.364,175649.0,7558.0,114251.0
1032496.306813,107112.091,175618.0,7533.0,114263.0
1032496.316541,107121.818,175627.0,7530.0,114247.0
1032496.326269,107131.545,175614.0,7507.0,114248.0
1032496.335997,107141.273,175595.0,7548.0,114258.0
1032496.345725,107151.0,175577.0,7510.0,114228.0
1032496.356059,107161.333,175592.0,7521.0,114251.0
1032496.366393,107171.667,175594.0,7517.0,114254.0
1032496.376728,107182.0,175574.0,7508.0,114209.0
1032496.387062,107192.333,175592.0,7486.0,114249.0
1032496.397396,107202.667,175593.0,7511.0,114248.0
1032496.40773,107213.0,175570.0,7548.0,114233.0
1032496.418064,107223.333,175576.0,7509.0,114225.0
1032496.428398,107233.667,175567.0,7529.0,114253.0
1032496.438732,107244.0,175598.0,7526.0,114239.0
1032496.44846,107253.727,175634.0,7528.0,114233.0
1032496.458188,107263.455,175581.0,7511.0,114231.0
1032496.467916,107273.182,175607.0,7537.0,114255.0
1032496.477644,107282.909,175608.0,7535.0,114239.0
1032496.487372,107292.636,175623.0,7532.0,114230.0
1032496.4971,107302.364,175644.0,7549.0,114237.0
1032496.506828,107312.091,175614.0,7507.0,114242.0
1032496.516556,107321.818,175635.0,7529.0,114243.0
1032496.526284,107331.545,175615.0,7502.0,114235.0
1032496.536012,107341.273,175623.0,7548.0,114246.0
1032496.54574,107351.0,175580.0,7525.0,114217.0
1032496.556341,107361.6,175612.0,7530.0,114239.0
1032496.566942,107372.2,175597.0,7525.0,114253.0
1032496.577543,107382.8,175613.0,7517.0,114230.0
1032496.588143,107393.4,175650.0,7523.0,114268.0
1032496.598744,107404.0,175629.0,7545.0,114247.0
1032496.609345,107414.6,175630.0,7557.0,114269.0
1032496.619946,107425.2,175586.0,7532.0,114225.0
1032496.630547,107435.8,175601.0,7537.0,114246.0
1032496.641147,107446.4,175614.0,7548.0,114261.0
1032496.651748,107457.0,175661.0,7560.0,114249.0
1032496.661149,107466.4,175599.0,7543.0,114220.0
1032496.67055,107475.8,175659.0,7568.0,114262.0
1032496.67995,107485.2,175640.0,7549.0,114248.0
1032496.689351,107494.6,175623.0,7536.0,114240.0
1032496.698752,107504.0,175656.0,7577.0,114260.0
1032496.708152,107513.4,175675.0,7587.0,114269.0
1032496.717553,107522.8,175648.0,7568.0,114261.0
1032496.726954,107532.2,175619.0,7563.0,114221.0
1032496.736354,107541.6,175654.0,7567.0,114227.0
1032496.745755,107551.0,175619.0,7570.0,114251.0
1032496.756356,107561.6,175646.0,7552.0,114255.0
1032496.766957,107572.2,175639.0,7589.0,114249.0
1032496.777558,107582.8,175651.0,7567.0,114258.0
1032496.788158,107593.4,175663.0,7550.0,114245.0
1032496.798759,107604.0,175631.0,7560.0,114226.0
1032496.80936,107614.6,175625.0,7560.0,114261.0
1032496.819961,107625.2,175588.0,7567.0,114236.0
1032496.830561,107635.8,175580.0,7527.0,114234.0
1032496.841162,107646.4,175618.0,7568.0,114231.0
1032496.851763,107657.0,175582.0,7535.0,114246.0
1032496.862097,107667.333,175557.0,7536.0,114200.0
1032496.872431,107677.667,175558.0,7519.0,114192.0
1032496.882765,107688.0,175497.0,7512.0,114198.0
1032496.8931,107698.333,175501.0,7518.0,114215.0
1032496.903434,107708.667,175510.0,7508.0,114233.0
1032496.913768,107719.0,175491.0,7489.0,114194.0
1032496.924102,107729.333,175529.0,7524.0,114198.0
1032496.934436,107739.667,175495.0,7503.0,114172.0
1032496.94477,107750.0,175473.0,7516.0,114165.0
1032496.954498,107759.727,175522.0,7542.0,114222.0
1032496.964226,107769.455,175501.0,7524.0,114182.0
1032496.973954,107779.182,175500.0,7511.0,114201.0
1032496.983682,107788.909,175516.0,7527.0,114195.0
1032496.99341,107798.636,175501.0,7544.0,114191.0
1032497.003138,107808.364,175546.0,7524.0,114213.0
1032497.012866,107818.091,175531.0,7521.0,114217.0
1032497.022594,107827.818,175543.0,7532.0,114219.0
1032497.032322,107837.545,175539.0,7522.0,114183.0
1032497.04205,107847.273,175528.0,7528.0,114200.0
1032497.051778,107857.0,175528.0,7531.0,114210.0
1032497.061506,107866.727,175521.0,7528.0,114189.0
1032497.071234,107876.455,175508.0,7519.0,114198.0
1032497.080962,107886.182,175537.0,7557.0,114223.0
1032497.09069,107895.909,175533.0,7532.0,114203.0
1032497.100418,107905.636,175520.0,7521.0,114207.0
1032497.110146,107915.364,175566.0,7554.0,114238.0
1032497.119874,107925.091,175553.0,7555.0,114233.0
1032497.129602,107934.818,175530.0,7537.0,114200.0
1032497.13933,107944.545,175524.0,7525.0,114202.0
1032497.149058,107954.273,175563.0,7529.0,114242.0
1032497.158786,107964.0,175527.0,7560.0,114208.0
1032497.16912,107974.333,175543.0,7546.0,114209.0
1032497.179454,107984.667,175531.0,7565.0,114229.0
1032497.189788,107995.0,175538.0,7528.0,114184.0
1032497.200122,108005.333,175514.0,7529.0,114180.0
1032497.210457,108015.667,175531.0,7549.0,114211.0
1032497.220791,108026.0,175558.0,7546.0,114227.0
1032497.231125,108036.333,175535.0,7576.0,114214.0
1032497.241459,108046.667,175538.0,7528.0,114183.0
1032497.251793,108057.0,175561.0,7553.0,114219.0
1032497.262494,108067.7,175580.0,7552.0,114244.0
1032497.273195,108078.4,175536.0,7536.0,114219.0
1032497.283895,108089.1,175576.0,7574.0,114233.0
1032497.294596,108099.8,175549.0,7553.0,114209.0
1032497.305297,108110.5,175558.0,7590.0,114200.0
1032497.315998,108121.2,175567.0,7592.0,114252.0
1032497.326699,108131.9,175584.0,7606.0,114258.0
1032497.337399,108142.6,175549.0,7565.0,114231.0
1032497.3481,108153.3,175567.0,7571.0,114210.0
1032497.358801,108164.0,175561.0,7554.0,114223.0
1032497.368438,108173.636,175558.0,7557.0,114205.0
1032497.378075,108183.273,175486.0,7527.0,114183.0
1032497.387712,108192.909,175528.0,7547.0,114203.0
1032497.397349,108202.545,175514.0,7553.0,114216.0
1032497.406986,108212.182,175456.0,7516.0,114163.0
1032497.416624,108221.818,175462.0,7524.0,114182.0
1032497.426261,108231.455,175463.0,7526.0,114188.0
1032497.435898,108241.091,175447.0,7536.0,114142.0
1032497.445535,108250.727,175445.0,7514.0,114176.0
1032497.455172,108260.364,175401.0,7497.0,114146.0
1032497.464809,108270.0,175426.0,7531.0,114191.0
1032497.475254,108280.444,175416.0,7516.0,114173.0
1032497.485699,108290.889,175417.0,7532.0,114124.0
1032497.496145,108301.333,175421.0,7537.0,114173.0
1032497.50659,108311.778,175412.0,7522.0,114174.0
1032497.517035,108322.222,175390.0,7508.0,114150.0
1032497.52748,108332.667,175417.0,7501.0,114152.0
1032497.537926,108343.111,175396.0,7499.0,114141.0
1032497.548371,108353.556,175428.0,7526.0,114168.0
1032497.558816,108364.0,175436.0,7504.0,114144.0
1032497.568453,108373.636,175408.0,7515.0,114150.0
1032497.57809,108383.273,175405.0,7533.0,114156.0
1032497.587727,108392.909,175415.0,7522.0,114175.0
1032497.597364,108402.545,175455.0,7539.0,114177.0
1032497.607001,108412.182,175409.0,7510.0,114177.0
1032497.616638,108421.818,175412.0,7509.0,114167.0
1032497.626276,108431.455,175418.0,7524.0,114168.0
1032497.635913,108441.091,175399.0,7508.0,114158.0
1032497.64555,108450.727,175432.0,7520.0,114195.0
1032497.655187,108460.364,175391.0,7506.0,114159.0
1032497.664824,108470.0,175418.0,7533.0,114171.0
1032497.675269,108480.444,175416.0,7522.0,114166.0
1032497.685714,108490.889,175431.0,7550.0,114166.0
1032497.69616,108501.333,175438.0,7553.0,114185.0
1032497.706605,108511.778,175423.0,7532.0,114171.0
1032497.71705,108522.222,175408.0,7499.0,114162.0
1032497.727495,108532.667,175421.0,7519.0,114163.0
1032497.73794,108543.111,175437.0,7550.0,114186.0
1032497.748386,108553.556,175420.0,7531.0,114165.0
1032497.758831,108564.0,175441.0,7541.0,114166.0
1032497.768468,108573.636,175410.0,7514.0,114165.0
1032497.778105,108583.273,175439.0,7513.0,114199.0
1032497.787742,108592.909,175450.0,7514.0,114178.0
1032497.797379,108602.545,175457.0,7568.0,114149.0
1032497.807016,108612.182,175452.0,7528.0,114192.0
1032497.816653,108621.818,175398.0,7547.0,114136.0
1032497.826291,108631.455,175411.0,7530.0,114162.0
1032497.835928,108641.091,175428.0,7543.0,114162.0
1032497.845565,108650.727,175412.0,7562.0,114199.0
1032497.855202,108660.364,175469.0,7560.0,114198.0
1032497.864839,108670.0,175487.0,7577.0,114171.0
1032497.87554,108680.7,175465.0,7553.0,114211.0
1032497.88624,108691.4,175417.0,7545.0,114196.0
1032497.896941,108702.1,175476.0,7571.0,114197.0
1032497.907642,108712.8,175452.0,7557.0,114184.0
1032497.918343,108723.5,175427.0,7543.0,114175.0
1032497.929044,108734.2,175407.0,7552.0,114172.0
1032497.939744,108744.9,175381.0,7506.0,114145.0
1032497.950445,108755.6,175352.0,7519.0,114168.0
1032497.961146,108766.3,175352.0,7504.0,114141.0
1032497.971847,108777.0,175325.0,7509.0,114151.0
1032497.981248,108786.4,175319.0,7489.0,114134.0
1032497.990648,108795.8,175328.0,7517.0,114152.0
1032498.000049,108805.2,175315.0,7514.0,114126.0
1032498.00945,108814.6,175300.0,7482.0,114137.0
1032498.01885,108824.0,175290.0,7481.0,114085.0
1032498.028251,108833.4,175269.0,7484.0,114102.0
1032498.037652,108842.8,175294.0,7483.0,114111.0
1032498.047052,108852.2,175266.0,7490.0,114117.0
1032498.056453,108861.6,175325.0,7515.0,114134.0
1032498.065854,108871.0,175274.0,7482.0,114104.0
1032498.076455,108881.6,175313.0,7495.0,114129.0
1032498.087055,108892.2,175283.0,7471.0,114128.0
1032498.097656,108902.8,175299.0,7489.0,114106.0
1032498.108257,108913.4,175313.0,7505.0,114131.0
1032498.118858,108924.0,175319.0,7490.0,114127.0
1032498.129459,108934.6,175287.0,7511.0,114113.0
1032498.140059,108945.2,175328.0,7511.0,114147.0
1032498.15066,108955.8,175304.0,7476.0,114129.0
1032498.161261,108966.4,175326.0,7493.0,114130.0
1032498.171862,108977.0,175357.0,7526.0,114134.0
1032498.18159,108986.727,175343.0,7477.0,114156.0
1032498.191318,108996.455,175333.0,7507.0,114124.0
1032498.201046,109006.182,175338.0,7497.0,114145.0
1032498.210774,109015.909,175321.0,7499.0,114154.0
1032498.220502,109025.636,175341.0,7526.0,114123.0
1032498.23023,109035.364,175356.0,7518.0,114135.0
1032498.239958,109045.091,175335.0,7491.0,114128.0
1032498.249686,109054.818,175351.0,7492.0,114135.0
1032498.259414,109064.545,175376.0,7536.0,114141.0
1032498.269142,109074.273,175327.0,7522.0,114141.0
1032498.27887,109084.0,175329.0,7494.0,114127.0
1032498.289204,109094.333,175323.0,7523.0,114118.0
1032498.299538,109104.667,175353.0,7529.0,114162.0
1032498.309872,109115.0,175328.0,7487.0,114135.0
1032498.320206,109125.333,175354.0,7517.0,114138.0
1032498.33054,109135.667,175348.0,7514.0,114132.0
1032498.340874,109146.0,175345.0,7522.0,114124.0
1032498.351209,109156.333,175357.0,7496.0,114133.0
1032498.361543,109166.667,175397.0,7527.0,114161.0
1032498.371877,109177.0,175382.0,7515.0,114168.0
1032498.381605,109186.727,175398.0,7535.0,114128.0
1032498.391333,109196.455,175381.0,7530.0,114147.0
1032498.401061,109206.182,175396.0,7524.0,114177.0
1032498.410789,109215.909,175384.0,7526.0,114171.0
1032498.420517,109225.636,175376.0,7540.0,114154.0
1032498.430245,109235.364,175424.0,7538.0,114184.0
1032498.439973,109245.091,175391.0,7524.0,114135.0
1032498.449701,109254.818,175369.0,7509.0,114150.0
1032498.459429,109264.545,175368.0,7488.0,114136.0
1032498.469157,109274.273,175367.0,7512.0,114169.0
1032498.478885,109284.0,175314.0,7475.0,114118.0
1032498.489486,109294.6,175301.0,7479.0,114123.0
1032498.500086,109305.2,175305.0,7474.0,114107.0
1032498.510687,109315.8,175262.0,7442.0,114116.0
1032498.521288,109326.4,175246.0,7454.0,114088.0
1032498.531889,109337.0,175254.0,7461.0,114110.0
1032498.54249,109347.6,175232.0,7478.0,114113.0
1032498.55309,109358.2,175206.0,7442.0,114079.0
1032498.563691,109368.8,175218.0,7432.0,114108.0
1032498.574292,109379.4,175208.0,7452.0,114091.0
1032498.584893,109390.0,175225.0,7414.0,114115.0
1032498.594293,109399.4,175191.0,7432.0,114045.0
1032498.603694,109408.8,175237.0,7419.0,114112.0
1032498.613095,109418.2,175216.0,7445.0,114092.0
1032498.622496,109427.6,175192.0,7439.0,114074.0
1032498.631896,109437.0,175213.0,7445.0,114109.0
1032498.641297,109446.4,175226.0,7462.0,114095.0
1032498.650698,109455.8,175234.0,7450.0,114098.0
1032498.660098,109465.2,175242.0,7419.0,114110.0
1032498.669499,109474.6,175247.0,7448.0,114119.0
1032498.6789,109484.0,175232.0,7440.0,114103.0
1032498.689501,109494.6,175226.0,7461.0,114097.0
1032498.700101,109505.2,175232.0,7445.0,114079.0
1032498.710702,109515.8,175243.0,7436.0,114098.0
1032498.721303,109526.4,175210.0,7428.0,114100.0
1032498.731904,109537.0,175237.0,7454.0,114094.0
1032498.742504,109547.6,175248.0,7462.0,114131.0
1032498.753105,109558.2,175217.0,7471.0,114092.0
1032498.763706,109568.8,175230.0,7439.0,114092.0
1032498.774307,109579.4,175248.0,7451.0,114103.0
1032498.784908,109590.0,175244.0,7452.0,114121.0
1032498.795353,109600.444,175224.0,7411.0,114068.0
1032498.805798,109610.889,175234.0,7429.0,114108.0
1032498.816243,109621.333,175230.0,7453.0,114104.0
1032498.826689,109631.778,175233.0,7452.0,114108.0
1032498.837134,109642.222,175241.0,7434.0,114089.0
1032498.847579,109652.667,175255.0,7481.0,114125.0
1032498.858024,109663.111,175237.0,7447.0,114108.0
1032498.868469,109673.556,175258.0,7458.0,114092.0
1032498.878915,109684.0,175250.0,7440.0,114117.0
1032498.888552,109693.636,175261.0,7474.0,114134.0
1032498.898189,109703.273,175219.0,7450.0,114093.0
1032498.907826,109712.909,175276.0,7467.0,114115.0
1032498.917463,109722.545,175294.0,7460.0,114131.0
1032498.9271,109732.182,175227.0,7451.0,114108.0
1032498.936737,109741.818,175235.0,7445.0,114103.0
1032498.946374,109751.455,175250.0,7473.0,114111.0
1032498.956011,109761.091,175261.0,7483.0,114130.0
1032498.965648,109770.727,175306.0,7486.0,114151.0
1032498.975286,109780.364,175276.0,7477.0,114162.0
1032498.984923,109790.0,175290.0,7480.0,114129.0
1032498.994651,109799.727,175302.0,7466.0,114110.0
1032499.004379,109809.455,175256.0,7459.0,114117.0
1032499.014107,109819.182,175247.0,7489.0,114119.0
1032499.023835,109828.909,175215.0,7448.0,114115.0
1032499.033563,109838.636,175187.0,7441.0,114078.0
1032499.043291,109848.364,175157.0,7441.0,114136.0
1032499.053019,109858.091,175198.0,7457.0,114090.0
1032499.062747,109867.818,175131.0,7421.0,114056.0
1032499.072475,109877.545,175127.0,7408.0,114070.0
1032499.082203,109887.273,175140.0,7430.0,114067.0
1032499.091931,109897.0,175089.0,7409.0,114054.0
1032499.102265,109907.333,175087.0,7395.0,114058.0
1032499.112599,109917.667,175048.0,7381.0,114050.0
1032499.122933,109928.0,175069.0,7405.0,114067.0
1032499.133267,109938.333,175084.0,7377.0,114054.0
1032499.143601,109948.667,175093.0,7398.0,114055.0
1032499.153935,109959.0,175089.0,7396.0,114048.0
1032499.164269,109969.333,175068.0,7402.0,114031.0
1032499.174603,109979.667,175063.0,7395.0,114060.0
1032499.184938,109990.0,175075.0,7381.0,114060.0
1032499.194666,109999.727,175098.0,7442.0,114064.0
1032499.204394,110009.455,175067.0,7388.0,114041.0
1032499.214122,110019.182,175126.0,7416.0,114074.0
1032499.22385,110028.909,175119.0,7411.0,114077.0
1032499.233578,110038.636,175098.0,7398.0,114065.0
1032499.243306,110048.364,175100.0,7402.0,114088.0
1032499.253034,110058.091,175130.0,7432.0,114059.0
1032499.262762,110067.818,175114.0,7404.0,114079.0
1032499.27249,110077.545,175097.0,7402.0,114056.0
1032499.282218,110087.273,175128.0,7411.0,114044.0
1032499.291946,110097.0,175128.0,7423.0,114105.0
1032499.30228,110107.333,175116.0,7390.0,114075.0
1032499.312614,110117.667,175092.0,7422.0,114070.0
1032499.322948,110128.0,175122.0,7453.0,114091.0
1032499.333282,110138.333,175086.0,7411.0,114042.0
1032499.343616,110148.667,175117.0,7411.0,114063.0
1032499.35395,110159.0,175102.0,7422.0,114054.0
1032499.364284,110169.333,175095.0,7451.0,114097.0
1032499.374618,110179.667,175104.0,7419.0,114058.0
1032499.384953,110190.0,175130.0,7441.0,114076.0
1032499.395653,110200.7,175123.0,7423.0,114110.0
1032499.406354,110211.4,175132.0,7413.0,114092.0
1032499.417055,110222.1,175120.0,7419.0,114055.0
1032499.427756,110232.8,175096.0,7431.0,114071.0
1032499.438457,110243.5,175124.0,7442.0,114092.0
1032499.449157,110254.2,175118.0,7443.0,114069.0
1032499.459858,110264.9,175138.0,7431.0,114096.0
1032499.470559,110275.6,175160.0,7461.0,114105.0
1032499.48126,110286.3,175140.0,7430.0,114091.0
1032499.491961,110297.0,175119.0,7431.0,114081.0
1032499.501689,110306.727,175169.0,7435.0,114122.0
1032499.511417,110316.455,175114.0,7431.0,114081.0
1032499.521145,110326.182,175148.0,7437.0,114097.0
1032499.530873,110335.909,175159.0,7470.0,114090.0
1032499.540601,110345.636,175144.0,7438.0,114074.0
1032499.550329,110355.364,175167.0,7440.0,114081.0
1032499.560057,110365.091,175177.0,7455.0,114113.0
1032499.569785,110374.818,175184.0,7467.0,114139.0
1032499.579513,110384.545,175134.0,7469.0,114094.0
1032499.589241,110394.273,175137.0,7437.0,114100.0
1032499.598969,110404.0,175122.0,7431.0,114098.0
1032499.609303,110414.333,175107.0,7441.0,114103.0
1032499.619637,110424.667,175055.0,7399.0,114078.0
1032499.629971,110435.0,175095.0,7414.0,114085.0
1032499.640305,110445.333,175052.0,7403.0,114070.0
1032499.650639,110455.667,175015.0,7392.0,114047.0
1032499.660973,110466.0,174988.0,7381.0,114037.0
1032499.671307,110476.333,175011.0,7382.0,114055.0
1032499.681641,110486.667,174998.0,7377.0,114057.0
1032499.691975,110497.0,175004.0,7366.0,114058.0
1032499.701703,110506.727,174971.0,7357.0,114045.0
1032499.711431,110516.455,174990.0,7412.0,114059.0
1032499.721159,110526.182,174989.0,7384.0,114051.0
1032499.730887,110535.909,174993.0,7388.0,114060.0
1032499.740615,110545.636,174990.0,7407.0,114045.0
1032499.750343,110555.364,174950.0,7374.0,114043.0
1032499.760071,110565.091,174991.0,7396.0,114055.0
1032499.769799,110574.818,175025.0,7358.0,114045.0
1032499.779527,110584.545,175030.0,7405.0,114065.0
1032499.789255,110594.273,174982.0,7383.0,114048.0
1032499.798983,110604.0,175018.0,7399.0,114063.0
1032499.809318,110614.333,175001.0,7404.0,114071.0
1032499.819652,110624.667,175031.0,7400.0,114034.0
1032499.829986,110635.0,175039.0,7385.0,114078.0
1032499.84032,110645.333,175020.0,7381.0,114064.0
1032499.850654,110655.667,175023.0,7406.0,114072.0
1032499.860988,110666.0,175031.0,7378.0,114053.0
1032499.871322,110676.333,175018.0,7426.0,114092.0
1032499.881656,110686.667,175013.0,7400.0,114072.0
1032499.89199,110697.0,175017.0,7402.0,114060.0
1032499.901718,110706.727,175012.0,7378.0,114054.0
1032499.911446,110716.455,175062.0,7419.0,114076.0
1032499.921174,110726.182,175043.0,7386.0,114075.0
1032499.930902,110735.909,175044.0,7408.0,114072.0
1032499.94063,110745.636,175044.0,7414.0,114109.0
1032499.950358,110755.364,175020.0,7397.0,114065.0
1032499.960086,110765.091,175040.0,7392.0,114066.0
1032499.969814,110774.818,175056.0,7419.0,114090.0
1032499.979542,110784.545,175051.0,7432.0,114099.0
1032499.98927,110794.273,175039.0,7410.0,114058.0
1032499.998998,110804.0,175019.0,7398.0,114099.0
1032500.009599,110814.6,175052.0,7418.0,114088.0
1032500.0202,110825.2,175081.0,7439.0,114087.0
1032500.030801,110835.8,175064.0,7405.0,114084.0
1032500.041402,110846.4,175088.0,7459.0,114111.0
1032500.052002,110857.0,175088.0,7427.0,114095.0
1032500.062603,110867.6,175065.0,7420.0,114097.0
1032500.073204,110878.2,175060.0,7419.0,114106.0
1032500.083805,110888.8,175108.0,7456.0,114108.0
1032500.094406,110899.4,175085.0,7446.0,114106.0
1032500.105006,110910.0,175062.0,7426.0,114079.0
1032500.114407,110919.4,175104.0,7455.0,114083.0
1032500.123808,110928.8,175127.0,7471.0,114124.0
1032500.133208,110938.2,175079.0,7427.0,114109.0
1032500.142609,110947.6,175085.0,7432.0,114114.0
1032500.15201,110957.0,175102.0,7453.0,114118.0
1032500.161411,110966.4,175131.0,7451.0,114090.0
1032500.170811,110975.8,175114.0,7446.0,114107.0
1032500.180212,110985.2,175093.0,7447.0,114108.0
1032500.189613,110994.6,175104.0,7438.0,114125.0
1032500.199013,111004.0,175050.0,7410.0,114086.0
1032500.209614,111014.6,175053.0,7411.0,114086.0
1032500.220215,111025.2,175036.0,7407.0,114080.0
1032500.230816,111035.8,175004.0,7390.0,114075.0
1032500.241417,111046.4,175014.0,7411.0,114068.0
1032500.252017,111057.0,174986.0,7401.0,114066.0
1032500.262618,111067.6,175019.0,7421.0,114076.0
1032500.273219,111078.2,174933.0,7374.0,114062.0
1032500.28382,111088.8,174982.0,7412.0,114055.0
1032500.294421,111099.4,174972.0,7395.0,114054.0
1032500.305021,111110.0,174986.0,7377.0,114050.0
1032500.314749,111119.727,174962.0,7376.0,114052.0
1032500.324477,111129.455,174996.0,7397.0,114095.0
1032500.334205,111139.182,174989.0,7376.0,114069.0
1032500.343933,111148.909,174963.0,7413.0,114075.0
1032500.353661,111158.636,175022.0,7422.0,114091.0
1032500.363389,111168.364,175004.0,7399.0,114057.0
1032500.373117,111178.091,174999.0,7381.0,114085.0
1032500.382845,111187.818,175020.0,7408.0,114053.0
1032500.392573,111197.545,174974.0,7404.0,114102.0
1032500.402301,111207.273,174984.0,7387.0,114071.0
1032500.412029,111217.0,175020.0,7397.0,114066.0
1032500.422363,111227.333,175019.0,7409.0,114090.0
1032500.432698,111237.667,175054.0,7415.0,114104.0
1032500.443032,111248.0,175029.0,7409.0,114069.0
1032500.453366,111258.333,175040.0,7429.0,114099.0
1032500.4637,111268.667,175033.0,7426.0,114092.0
1032500.474034,111279.0,175011.0,7411.0,114073.0
1032500.484368,111289.333,175033.0,7411.0,114092.0
1032500.494702,111299.667,175040.0,7436.0,114123.0
1032500.505036,111310.0,175022.0,7414.0,114101.0
1032500.514764,111319.727,175014.0,7413.0,114067.0
1032500.524492,111329.455,175043.0,7401.0,114102.0
1032500.53422,111339.182,175056.0,7418.0,114083.0
1032500.543948,111348.909,175055.0,7420.0,114118.0
1032500.553676,111358.636,175060.0,7420.0,114098.0
1032500.563404,111368.364,175070.0,7442.0,114084.0
1032500.573132,111378.091,175055.0,7421.0,114101.0
1032500.58286,111387.818,175071.0,7437.0,114105.0
1032500.592588,111397.545,175088.0,7429.0,114125.0
1032500.602316,111407.273,175073.0,7465.0,114121.0
1032500.612044,111417.0,175075.0,7411.0,114083.0
1032500.622378,111427.333,175093.0,7440.0,114117.0
1032500.632712,111437.667,175088.0,7451.0,114119.0
1032500.643047,111448.0,175077.0,7421.0,114113.0
1032500.653381,111458.333,175131.0,7431.0,114132.0
1032500.663715,111468.667,175128.0,7466.0,114108.0
1032500.674049,111479.0,175081.0,7469.0,114101.0
1032500.684383,111489.333,175075.0,7438.0,114098.0
1032500.694717,111499.667,175126.0,7439.0,114117.0
1032500.705051,111510.0,175142.0,7465.0,114142.0
1032500.714779,111519.727,175182.0,7489.0,114144.0
1032500.724507,111529.455,175147.0,7468.0,114130.0
1032500.734235,111539.182,175190.0,7470.0,114162.0
1032500.743963,111548.909,175147.0,7463.0,114149.0
1032500.753691,111558.636,175130.0,7458.0,114128.0
1032500.763419,111568.364,175121.0,7485.0,114165.0
1032500.773147,111578.091,175087.0,7437.0,114126.0
1032500.782875,111587.818,175058.0,7434.0,114107.0
1032500.792603,111597.545,175039.0,7414.0,114088.0
1032500.802331,111607.273,175048.0,7433.0,114116.0
1032500.812059,111617.0,175055.0,7407.0,114121.0
1032500.82266,111627.6,175035.0,7398.0,114093.0
1032500.833261,111638.2,175015.0,7407.0,114086.0
1032500.843862,111648.8,174998.0,7394.0,114079.0
1032500.854462,111659.4,175007.0,7385.0,114087.0
1032500.865063,111670.0,175003.0,7422.0,114085.0
1032500.875664,111680.6,174982.0,7407.0,114089.0
1032500.886265,111691.2,175015.0,7402.0,114123.0
1032500.896866,111701.8,174987.0,7401.0,114113.0
1032500.907466,111712.4,175017.0,7416.0,114090.0
1032500.918067,111723.0,175009.0,7390.0,114104.0
1032500.928512,111733.444,175019.0,7390.0,114096.0
1032500.938958,111743.889,174995.0,7393.0,114086.0
1032500.949403,111754.333,174992.0,7406.0,114085.0
1032500.959848,111764.778,175031.0,7424.0,114101.0
1032500.970293,111775.222,175057.0,7434.0,114130.0
1032500.980739,111785.667,175041.0,7410.0,114126.0
1032500.991184,111796.111,175043.0,7430.0,114094.0
1032501.001629,111806.556,175058.0,7432.0,114135.0
1032501.012074,111817.0,175064.0,7438.0,114128.0
1032501.021711,111826.636,175084.0,7411.0,114148.0
1032501.031348,111836.273,175071.0,7419.0,114105.0
1032501.040985,111845.909,175072.0,7431.0,114120.0
1032501.050623,111855.545,175093.0,7432.0,114117.0
1032501.06026,111865.182,175043.0,7436.0,114108.0
1032501.069897,111874.818,175058.0,7435.0,114100.0
1032501.079534,111884.455,175063.0,7425.0,114124.0
1032501.089171,111894.091,175086.0,7417.0,114148.0
1032501.098808,111903.727,175094.0,7446.0,114147.0
1032501.108445,111913.364,175102.0,7456.0,114122.0
1032501.118082,111923.0,175092.0,7442.0,114132.0
1032501.128527,111933.444,175114.0,7439.0,114126.0
1032501.138973,111943.889,175078.0,7433.0,114158.0
1032501.149418,111954.333,175081.0,7459.0,114119.0
1032501.159863,111964.778,175106.0,7435.0,114143.0
1032501.170308,111975.222,175086.0,7431.0,114130.0
1032501.180753,111985.667,175126.0,7469.0,114158.0
1032501.191199,111996.111,175088.0,7462.0,114176.0
1032501.201644,112006.556,175087.0,7424.0,114120.0
1032501.212089,112017.0,175051.0,7455.0,114113.0
1032501.221726,112026.636,175068.0,7469.0,114149.0
1032501.231363,112036.273,175146.0,7480.0,114163.0
1032501.241,112045.909,175145.0,7464.0,114160.0
1032501.250637,112055.545,175164.0,7507.0,114149.0
1032501.260275,112065.182,175128.0,7460.0,114135.0
1032501.269912,112074.818,175132.0,7468.0,114120.0
1032501.279549,112084.455,175132.0,7479.0,114164.0
1032501.289186,112094.091,175179.0,7465.0,114183.0
1032501.298823,112103.727,175167.0,7495.0,114139.0
1032501.30846,112113.364,175165.0,7482.0,114171.0
1032501.318097,112123.0,175176.0,7483.0,114161.0
1032501.328798,112133.7,175124.0,7458.0,114184.0
1032501.339499,112144.4,175139.0,7490.0,114188.0
1032501.350199,112155.1,175141.0,7472.0,114175.0
1032501.3609,112165.8,175086.0,7425.0,114149.0
1032501.371601,112176.5,175062.0,7464.0,114119.0
1032501.382302,112187.2,175036.0,7451.0,114107.0
1032501.393003,112197.9,175030.0,7434.0,114118.0
1032501.403703,112208.6,175004.0,7417.0,114122.0
1032501.414404,112219.3,175022.0,7424.0,114118.0
1032501.425105,112230.0,175028.0,7423.0,114139.0
1032501.434506,112239.4,174996.0,7401.0,114107.0
1032501.443906,112248.8,174985.0,7427.0,114087.0
1032501.453307,112258.2,174992.0,7414.0,114102.0
1032501.462708,112267.6,174985.0,7422.0,114159.0
1032501.472109,112277.0,174966.0,7418.0,114105.0
1032501.481509,112286.4,175036.0,7444.0,114126.0
1032501.49091,112295.8,175007.0,7430.0,114120.0
1032501.500311,112305.2,175015.0,7434.0,114111.0
1032501.509711,112314.6,174992.0,7405.0,114100.0
1032501.519112,112324.0,175010.0,7411.0,114104.0
1032501.529713,112334.6,175034.0,7431.0,114113.0
1032501.540314,112345.2,175048.0,7443.0,114122.0
1032501.550914,112355.8,175064.0,7429.0,114142.0
1032501.561515,112366.4,175018.0,7434.0,114117.0
1032501.572116,112377.0,175062.0,7433.0,114131.0
1032501.582717,112387.6,175040.0,7438.0,114116.0
1032501.593318,112398.2,175054.0,7429.0,114121.0
1032501.603918,112408.8,175077.0,7455.0,114176.0
1032501.614519,112419.4,175045.0,7443.0,114140.0
1032501.62512,112430.0,175076.0,7442.0,114140.0
1032501.634421,112439.3,175072.0,,
1032501.634521,112439.4,,7436.0,114116.0
1032501.643721,112448.6,175085.0,,
1032501.643921,112448.8,,7452.0,114151.0
1032501.653022,112457.9,175045.0,,
1032501.653322,112458.2,,7436.0,114138.0
1032501.662323,112467.2,175068.0,,
1032501.662723,112467.6,,7446.0,114118.0
1032501.671624,112476.5,175060.0,,
1032501.672124,112477.0,,7438.0,114143.0
1032501.680924,112485.8,175050.0,,
1032501.681524,112486.4,,7461.0,114111.0
1032501.690225,112495.1,175073.0,,
1032501.690925,112495.8,,7455.0,114143.0
1032501.699526,112504.4,175066.0,,
1032501.700326,112505.2,,7450.0,114130.0
1032501.708826,112513.7,175099.0,,
1032501.709726,112514.6,,7476.0,114140.0
