time,ppg
62863.8772737631,171064.0
62863.88737356484,171052.0
62863.89747336658,171104.0
62863.907573168326,171091.0
62863.91767297007,171071.0
62863.927772771814,171114.0
62863.93787257355,171070.0
62863.947972375296,171078.0
62863.95807217704,171094.0
62863.968171978784,171030.0
62863.97827178052,171046.0
62863.988371582265,171058.0
62863.99847138401,171071.0
62864.008571185754,171041.0
62864.0186709875,171047.0
62864.028770789235,171056.0
62864.03887059098,171095.0
62864.04897039272,171078.0
62864.05907019447,171091.0
62864.06916999621,171065.0
62864.07926979795,171058.0
62864.08936959969,171066.0
62864.09946940144,171088.0
62864.10956920318,171071.0
62864.11966900492,171045.0
62864.12976880666,171074.0
62864.13986860841,171045.0
62864.14996841015,171056.0
62864.160068211895,171087.0
62864.17016801363,171092.0
62864.180267815376,171085.0
62864.19036761712,171049.0
62864.200467418865,171033.0
62864.21056722061,171045.0
62864.220667022346,171047.0
62864.23076682409,171085.0
62864.240866625834,171061.0
62864.25096642758,171037.0
62864.261066229315,171028.0
62864.27116603106,171055.0
62864.281265832804,171065.0
62864.29136563455,171032.0
62864.30146543629,171051.0
62864.31156523803,171043.0
62864.32166503977,171052.0
62864.33176484152,171055.0
62864.34186464326,171017.0
62864.351964445006,171027.0
62864.36206424674,171038.0
62864.37216404849,171046.0
62864.38226385023,171060.0
62864.392363651976,171039.0
62864.40246345371,171050.0
62864.41256325546,171022.0
62864.4226630572,171023.0
62864.432762858945,171054.0
62864.44286266069,171017.0
62864.45296246243,171007.0
62864.46306226417,170978.0
62864.473162065915,170940.0
62864.48326186766,170965.0
62864.4933616694,170969.0
62864.50346147114,170953.0
62864.513561272885,170945.0
62864.52366107463,170961.0
62864.53376087637,170952.0
62864.54386067811,170924.0
62864.553960479854,170927.0
62864.5640602816,170953.0
62864.57416008334,170942.0
62864.58425988509,170959.0
62864.594359686824,170951.0
62864.60445948857,170942.0
62864.61455929031,170923.0
62864.62465909206,170949.0
62864.6347588938,170946.0
62864.64485869554,170965.0
62864.65495849728,170969.0
62864.665058299026,170970.0
62864.67515810077,170978.0
62864.68525790251,170962.0
62864.69535770425,170994.0
62864.705457505996,170994.0
62864.71555730774,170971.0
62864.725657109484,170963.0
62864.73575691122,170940.0
62864.745856712965,170926.0
62864.75595651471,170934.0
62864.76605631645,170915.0
62864.7761561182,170966.0
62864.786255919935,170948.0
62864.79635572168,170943.0
62864.80645552342,170985.0
62864.81655532517,170941.0
62864.826655126904,170945.0
62864.83675492865,170985.0
62864.84685473039,170968.0
62864.85695453214,170947.0
62864.86705433388,170948.0
62864.87715413562,170938.0
62864.88725393736,170977.0
62864.89735373911,170961.0
62864.90745354085,170997.0
62864.917553342595,170947.0
62864.92765314433,170962.0
62864.937752946076,170983.0
62864.94785274782,170937.0
62864.957952549565,170954.0
62864.9680523513,170939.0
62864.978152153046,170978.0
62864.98825195479,170975.0
62864.998351756534,170955.0
62865.00845155828,170997.0
62865.018551360015,170972.0
62865.02865116176,170940.0
62865.038750963504,170998.0
62865.04885076525,170966.0
62865.05895056699,170973.0
62865.06905036873,170978.0
62865.07915017047,170973.0
62865.08924997222,170978.0
62865.09934977396,170964.0
62865.1094495757,171001.0
62865.11954937744,170968.0
62865.12964917919,170987.0
62865.13974898093,170973.0
62865.149848782676,170939.0
62865.15994858441,170958.0
62865.17004838616,170950.0
62865.1801481879,170967.0
62865.190247989645,170962.0
62865.20034779139,170946.0
62865.21044759313,170977.0
62865.22054739487,170981.0
62865.230647196615,170970.0
62865.24074699836,170980.0
62865.250846800096,170960.0
62865.26094660184,170994.0
62865.271046403584,170978.0
62865.28114620533,170949.0
62865.29124600707,170932.0
62865.30134580881,170909.0
62865.311445610554,170912.0
62865.3215454123,170879.0
62865.33164521404,170896.0
62865.34174501579,170865.0
62865.351844817524,170884.0
62865.36194461927,170869.0
62865.37204442101,170931.0
62865.382144222756,170892.0
62865.39224402449,170932.0
62865.40234382624,170915.0
62865.41244362798,170898.0
62865.422543429726,170891.0
62865.43264323147,170918.0
62865.44274303321,170957.0
62865.45284283495,170907.0
62865.462942636696,170946.0
62865.47304243844,170915.0
62865.483142240184,170928.0
62865.49324204192,170924.0
62865.503341843665,170904.0
62865.51344164541,170922.0
62865.52354144715,170932.0
62865.53364124889,170930.0
62865.543741050635,170888.0
62865.55384085238,170931.0
62865.56394065412,170899.0
62865.57404045587,170933.0
62865.584140257604,170909.0
62865.59424005935,170912.0
62865.60433986109,170876.0
62865.61443966284,170893.0
62865.62453946458,170900.0
62865.63463926632,170918.0
62865.64473906806,170905.0
62865.65483886981,170967.0
62865.66493867155,170940.0
62865.67503847329,170919.0
62865.68513827503,170948.0
62865.695238076776,170924.0
62865.70533787852,170925.0
62865.715437680265,170936.0
62865.725537482,170941.0
62865.735637283746,170954.0
62865.74573708549,170938.0
62865.755836887234,170949.0
62865.76593668898,170948.0
62865.776036490715,170916.0
62865.78613629246,170927.0
62865.796236094204,170962.0
62865.80633589595,170956.0
62865.816435697685,170968.0
62865.82653549943,170992.0
62865.83663530117,170979.0
62865.84673510292,171007.0
62865.85683490466,171016.0
62865.8669347064,171032.0
62865.87703450814,171018.0
62865.88713430989,171021.0
62865.89723411163,171031.0
62865.907333913376,171034.0
62865.91743371511,171047.0
62865.92753351686,171065.0
62865.9376333186,171016.0
62865.947733120345,171030.0
62865.95783292208,171035.0
62865.96793272383,171034.0
62865.97803252557,171052.0
62865.988132327315,171050.0
62865.99823212906,171018.0
62866.008331930796,171026.0
62866.01843173254,171058.0
62866.028531534284,171041.0
62866.03863133603,171012.0
62866.04873113777,171030.0
62866.05883093951,171048.0
62866.068930741254,171020.0
62866.079030543,171040.0
62866.08913034474,171025.0
62866.09923014648,171026.0
62866.10932994822,171034.0
62866.11942974997,171030.0
62866.12952955171,170992.0
62866.139629353456,170973.0
62866.14972915519,170970.0
62866.15982895694,170936.0
62866.16992875868,170945.0
62866.180028560426,170933.0
62866.19012836217,170933.0
62866.20022816391,170936.0
62866.21032796565,170955.0
62866.220427767395,170994.0
62866.23052756914,170982.0
62866.24062737088,170982.0
62866.25072717262,170992.0
62866.260826974365,171008.0
62866.27092677611,170978.0
62866.28102657785,171016.0
62866.29112637959,170995.0
62866.301226181335,170995.0
62866.31132598308,170986.0
62866.32142578482,171021.0
62866.33152558657,170984.0
62866.341625388304,171016.0
62866.35172519005,170994.0
62866.36182499179,171003.0
62866.37192479354,171011.0
62866.382024595274,170989.0
62866.39212439702,170980.0
62866.40222419876,170976.0
62866.41232400051,171022.0
62866.42242380225,170977.0
62866.43252360399,170983.0
62866.44262340573,170989.0
62866.452723207476,171019.0
62866.46282300922,170967.0
62866.472922810965,170973.0
62866.4830226127,171015.0
62866.493122414446,171004.0
62866.50322221619,171008.0
62866.513322017934,170970.0
62866.52342181967,170972.0
62866.533521621415,170967.0
62866.54362142316,170989.0
62866.553721224904,170982.0
62866.56382102665,171010.0
62866.573920828385,170973.0
62866.58402063013,171022.0
62866.59412043187,171049.0
62866.60422023362,170994.0
62866.61432003536,171003.0
62866.6244198371,171030.0
62866.63451963884,171012.0
62866.64461944059,171053.0
62866.65471924233,171033.0
62866.66481904407,171016.0
62866.67491884581,171035.0
62866.68501864756,171046.0
62866.6951184493,171019.0
62866.705218251045,171018.0
62866.71531805278,171019.0
62866.725417854526,170987.0
62866.73551765627,171001.0
62866.745617458015,171032.0
62866.75571725976,171054.0
62866.765817061496,171039.0
62866.77591686324,171006.0
62866.786016664984,171037.0
62866.79611646673,171029.0
62866.806216268466,171008.0
62866.81631607021,171060.0
62866.826415871954,171052.0
62866.8365156737,171023.0
62866.84661547544,171071.0
62866.85671527718,171023.0
62866.86681507892,171066.0
62866.87691488067,171012.0
62866.88701468241,171062.0
62866.897114484156,171031.0
62866.90721428589,171034.0
62866.91731408764,171040.0
62866.92741388938,171019.0
62866.937513691126,171000.0
62866.94761349286,171026.0
62866.95771329461,170993.0
62866.96781309635,170992.0
62866.977912898095,171003.0
62866.98801269984,170952.0
62866.99811250158,170915.0
62867.00821230332,170924.0
62867.018312105065,170991.0
62867.02841190681,170957.0
62867.03851170855,170987.0
62867.04861151029,171005.0
62867.058711312035,170980.0
62867.06881111378,170967.0
62867.07891091552,170993.0
62867.08901071726,171012.0
62867.099110519004,170963.0
62867.10921032075,171000.0
62867.11931012249,171002.0
62867.12940992424,170946.0
62867.139509725974,170977.0
62867.14960952772,171003.0
62867.15970932946,171023.0
62867.16980913121,171008.0
62867.17990893295,171030.0
62867.19000873469,171011.0
62867.20010853643,171014.0
62867.210208338176,170992.0
62867.22030813992,171038.0
62867.23040794166,170996.0
62867.2405077434,171015.0
62867.250607545146,170963.0
62867.26070734689,170975.0
62867.270807148634,171022.0
62867.28090695037,171016.0
62867.291006752115,171047.0
62867.30110655386,171010.0
62867.311206355604,171032.0
62867.32130615735,171023.0
62867.331405959085,171016.0
62867.34150576083,171018.0
62867.35160556257,171041.0
62867.36170536432,171079.0
62867.371805166054,171045.0
62867.3819049678,171084.0
62867.39200476954,171056.0
62867.40210457129,171083.0
62867.41220437303,171066.0
62867.42230417477,171086.0
62867.43240397651,171076.0
62867.44250377826,171092.0
62867.45260358,171090.0
62867.462703381745,171066.0
62867.47280318348,171108.0
62867.482902985226,171124.0
62867.49300278697,171118.0
62867.503102588715,171115.0
62867.51320239045,171144.0
62867.523302192196,171105.0
62867.53340199394,171100.0
62867.543501795684,171099.0
62867.55360159743,171111.0
62867.563701399165,171128.0
62867.57380120091,171138.0
62867.583901002654,171125.0
62867.5940008044,171137.0
62867.604100606135,171122.0
62867.61420040788,171153.0
62867.62430020962,171198.0
62867.63440001137,171125.0
62867.64449981311,171163.0
62867.65459961485,171182.0
62867.66469941659,171123.0
62867.67479921834,171203.0
62867.68489902008,171217.0
62867.694998821826,171189.0
62867.70509862356,171185.0
62867.71519842531,171209.0
62867.72529822705,171158.0
62867.735398028795,171171.0
62867.74549783053,171145.0
62867.75559763228,171133.0
62867.76569743402,171150.0
62867.775797235765,171140.0
62867.78589703751,171113.0
62867.795996839246,171064.0
62867.80609664099,171071.0
62867.816196442735,171114.0
62867.82629624448,171140.0
62867.83639604622,171099.0
62867.84649584796,171162.0
62867.856595649704,171158.0
62867.86669545145,171141.0
62867.87679525319,171141.0
62867.88689505493,171158.0
62867.896994856674,171173.0
62867.90709465842,171132.0
62867.91719446016,171187.0
62867.927294261906,171172.0
62867.93739406364,171152.0
62867.94749386539,171148.0
62867.95759366713,171201.0
62867.967693468876,171171.0
62867.97779327062,171181.0
62867.98789307236,171169.0
62867.9979928741,171168.0
62868.008092675846,171155.0
62868.01819247759,171195.0
62868.02829227933,171194.0
62868.03839208107,171153.0
62868.048491882815,171224.0
62868.05859168456,171201.0
62868.0686914863,171168.0
62868.07879128804,171167.0
62868.088891089785,171182.0
62868.09899089153,171194.0
62868.10909069327,171200.0
62868.11919049502,171205.0
62868.129290296754,171191.0
62868.1393900985,171216.0
62868.14948990024,171198.0
62868.15958970199,171216.0
62868.169689503724,171235.0
62868.17978930547,171222.0
62868.18988910721,171226.0
62868.19998890896,171143.0
62868.2100887107,171199.0
62868.22018851244,171227.0
62868.23028831418,171226.0
62868.240388115926,171250.0
62868.25048791767,171245.0
62868.260587719415,171221.0
62868.27068752115,171240.0
62868.280787322896,171231.0
62868.29088712464,171229.0
62868.300986926384,171259.0
62868.31108672812,171248.0
62868.321186529865,171256.0
62868.33128633161,171231.0
62868.341386133354,171270.0
62868.3514859351,171265.0
62868.361585736835,171272.0
62868.37168553858,171298.0
62868.38178534032,171290.0
62868.39188514207,171284.0
62868.40198494381,171282.0
62868.41208474555,171297.0
62868.42218454729,171291.0
62868.43228434904,171292.0
62868.44238415078,171293.0
62868.45248395252,171312.0
62868.46258375426,171265.0
62868.47268355601,171293.0
62868.48278335775,171251.0
62868.492883159495,171248.0
62868.50298296123,171248.0
62868.51308276298,171226.0
62868.52318256472,171254.0
62868.533282366465,171237.0
62868.54338216821,171201.0
62868.553481969946,171207.0
62868.56358177169,171212.0
62868.573681573434,171224.0
62868.58378137518,171205.0
62868.593881176916,171209.0
62868.60398097866,171194.0
62868.614080780404,171203.0
62868.62418058215,171212.0
62868.63428038389,171238.0
62868.64438018563,171219.0
62868.65447998737,171224.0
62868.66457978912,171245.0
62868.67467959086,171247.0
62868.684779392606,171248.0
62868.69487919434,171220.0
62868.70497899609,171263.0
62868.71507879783,171246.0
62868.725178599576,171256.0
62868.73527840131,171243.0
62868.74537820306,171233.0
62868.7554780048,171252.0
62868.765577806545,171245.0
62868.77567760829,171240.0
62868.78577741003,171251.0
62868.79587721177,171250.0
62868.805977013515,171243.0
62868.81607681526,171222.0
62868.826176617,171251.0
62868.83627641874,171243.0
62868.846376220485,171237.0
62868.85647602223,171223.0
62868.86657582397,171227.0
62868.87667562571,171242.0
62868.886775427454,171217.0
62868.8968752292,171225.0
62868.90697503094,171226.0
62868.91707483269,171229.0
62868.927174634424,171231.0
62868.93727443617,171262.0
62868.94737423791,171206.0
62868.95747403966,171230.0
62868.9675738414,171247.0
62868.97767364314,171222.0
62868.98777344488,171240.0
62868.997873246626,171271.0
62869.00797304837,171232.0
62869.01807285011,171230.0
62869.02817265185,171251.0
62869.038272453596,171243.0
62869.04837225534,171249.0
62869.058472057084,171244.0
62869.06857185882,171262.0
62869.078671660565,171253.0
62869.08877146231,171266.0
62869.098871264054,171258.0
62869.1089710658,171252.0
62869.119070867535,171247.0
62869.12917066928,171270.0
62869.13927047102,171221.0
62869.14937027277,171223.0
62869.159470074504,171276.0
62869.16956987625,171243.0
62869.17966967799,171249.0
62869.18976947974,171235.0
62869.19986928148,171212.0
62869.20996908322,171195.0
62869.22006888496,171213.0
62869.23016868671,171219.0
62869.24026848845,171173.0
62869.250368290195,171186.0
62869.26046809193,171188.0
62869.270567893676,171146.0
62869.28066769542,171176.0
62869.290767497165,171175.0
62869.3008672989,171198.0
62869.310967100646,171192.0
62869.32106690239,171205.0
62869.331166704134,171220.0
62869.34126650588,171195.0
62869.351366307616,171197.0
62869.36146610936,171243.0
62869.371565911104,171205.0
62869.38166571285,171228.0
62869.39176551459,171239.0
62869.40186531633,171211.0
62869.41196511807,171238.0
62869.42206491982,171243.0
62869.43216472156,171291.0
62869.4422645233,171227.0
62869.45236432504,171266.0
62869.46246412679,171244.0
62869.47256392853,171223.0
62869.482663730276,171213.0
62869.49276353201,171229.0
62869.50286333376,171238.0
62869.5129631355,171206.0
62869.523062937245,171248.0
62869.53316273899,171228.0
62869.54326254073,171213.0
62869.55336234247,171228.0
62869.563462144215,171254.0
62869.57356194596,171240.0
62869.583661747696,171245.0
62869.59376154944,171249.0
62869.603861351185,171221.0
62869.61396115293,171262.0
62869.62406095467,171264.0
62869.63416075641,171258.0
62869.644260558154,171243.0
62869.6543603599,171280.0
62869.66446016164,171232.0
62869.67455996339,171233.0
62869.684659765124,171246.0
62869.69475956687,171224.0
62869.70485936861,171239.0
62869.71495917036,171251.0
62869.72505897209,171256.0
62869.73515877384,171235.0
62869.74525857558,171229.0
62869.755358377326,171255.0
62869.76545817907,171290.0
62869.77555798081,171237.0
62869.78565778255,171271.0
62869.795757584296,171248.0
62869.80585738604,171198.0
62869.815957187784,171269.0
62869.82605698952,171254.0
62869.836156791265,171244.0
62869.84625659301,171227.0
62869.856356394754,171262.0
62869.86645619649,171200.0
62869.876555998235,171207.0
62869.88665579998,171175.0
62869.89675560172,171162.0
62869.90685540347,171164.0
62869.916955205204,171161.0
62869.92705500695,171136.0
62869.93715480869,171081.0
62869.94725461044,171124.0
62869.95735441218,171146.0
62869.96745421392,171163.0
62869.97755401566,171138.0
62869.98765381741,171154.0
62869.99775361915,171160.0
62870.00785342089,171145.0
62870.01795322263,171161.0
62870.028053024376,171165.0
62870.03815282612,171171.0
62870.048252627865,171161.0
62870.0583524296,171199.0
62870.068452231346,171180.0
62870.07855203309,171184.0
62870.088651834834,171162.0
62870.09875163658,171203.0
62870.108851438315,171182.0
62870.11895124006,171185.0
62870.129051041804,171175.0
62870.13915084355,171166.0
62870.149250645285,171177.0
62870.15935044703,171179.0
62870.16945024877,171161.0
62870.17955005052,171156.0
62870.18964985226,171186.0
62870.199749654,171153.0
62870.20984945574,171142.0
62870.21994925749,171142.0
62870.23004905923,171125.0
62870.240148860976,171139.0
62870.25024866271,171167.0
62870.26034846446,171161.0
62870.2704482662,171153.0
62870.280548067945,171138.0
62870.29064786968,171170.0
62870.30074767143,171212.0
62870.31084747317,171195.0
62870.320947274915,171160.0
62870.33104707666,171170.0
62870.341146878396,171126.0
62870.35124668014,171175.0
62870.361346481885,171179.0
62870.37144628363,171182.0
62870.38154608537,171164.0
62870.39164588711,171193.0
62870.401745688854,171182.0
62870.4118454906,171180.0
62870.42194529234,171194.0
62870.43204509408,171173.0
62870.442144895824,171200.0
62870.45224469757,171191.0
62870.46234449931,171197.0
62870.47244430106,171174.0
62870.48254410279,171184.0
62870.49264390454,171189.0
62870.50274370628,171218.0
62870.512843508026,171195.0
62870.52294330977,171197.0
62870.53304311151,171177.0
62870.54314291325,171139.0
62870.553242714996,171112.0
62870.56334251674,171098.0
62870.57344231848,171106.0
62870.58354212022,171098.0
62870.593641921965,171112.0
62870.60374172371,171056.0
62870.61384152545,171117.0
62870.62394132719,171100.0
62870.634041128935,171099.0
62870.64414093068,171100.0
62870.65424073242,171110.0
62870.66434053417,171089.0
62870.674440335904,171114.0
62870.68454013765,171110.0
62870.69463993939,171141.0
62870.70473974114,171110.0
62870.714839542874,171141.0
62870.72493934462,171111.0
62870.73503914636,171107.0
62870.74513894811,171136.0
62870.75523874985,171141.0
62870.76533855159,171125.0
62870.77543835333,171129.0
62870.785538155076,171136.0
62870.79563795682,171100.0
62870.805737758565,171097.0
62870.8158375603,171131.0
62870.825937362046,171114.0
62870.83603716379,171089.0
62870.846136965534,171127.0
62870.85623676727,171141.0
62870.866336569015,171130.0
62870.87643637076,171115.0
62870.886536172504,171139.0
62870.89663597425,171130.0
62870.906735775985,171114.0
62870.91683557773,171132.0
62870.92693537947,171122.0
62870.93703518122,171110.0
62870.94713498296,171099.0
62870.9572347847,171109.0
62870.96733458644,171087.0
62870.97743438819,171098.0
62870.98753418993,171104.0
62870.99763399167,171086.0
62871.00773379341,171080.0
62871.01783359516,171125.0
62871.0279333969,171115.0
62871.038033198645,171111.0
62871.04813300038,171146.0
62871.05823280213,171143.0
62871.06833260387,171125.0
62871.078432405615,171116.0
62871.08853220736,171156.0
62871.098632009096,171178.0
62871.10873181084,171141.0
62871.118831612584,171142.0
62871.12893141433,171137.0
62871.139031216066,171164.0
62871.14913101781,171138.0
62871.159230819554,171143.0
62871.1693306213,171117.0
62871.17943042304,171137.0
62871.18953022478,171115.0
62871.199630026524,171105.0
62871.20972982827,171056.0
62871.21982963001,171072.0
62871.229929431756,171032.0
62871.24002923349,171033.0
62871.25012903524,171062.0
62871.26022883698,171042.0
62871.270328638726,170990.0
62871.28042844046,171047.0
62871.29052824221,171067.0
62871.30062804395,171030.0
62871.310727845696,171028.0
62871.32082764744,171047.0
62871.33092744918,171039.0
62871.34102725092,171039.0
62871.351127052665,171066.0
62871.36122685441,171046.0
62871.37132665615,171070.0
62871.38142645789,171054.0
62871.391526259635,171047.0
62871.40162606138,171053.0
62871.41172586312,171037.0
62871.42182566486,171068.0
62871.431925466604,171038.0
62871.44202526835,171069.0
62871.45212507009,171096.0
62871.46222487184,171059.0
62871.472324673574,171057.0
62871.48242447532,171065.0
62871.49252427706,171085.0
62871.50262407881,171089.0
62871.51272388055,171036.0
62871.52282368229,171078.0
62871.53292348403,171058.0
62871.543023285776,171066.0
62871.55312308752,171082.0
62871.56322288926,171057.0
62871.573322691,171085.0
62871.583422492746,171068.0
62871.59352229449,171064.0
62871.603622096234,171053.0
62871.61372189797,171072.0
62871.623821699715,171031.0
62871.63392150146,171033.0
62871.644021303204,171070.0
62871.65412110494,171090.0
62871.664220906685,171055.0
62871.67432070843,171036.0
62871.68442051017,171026.0
62871.69452031192,171049.0
62871.704620113655,171064.0
62871.7147199154,171044.0
62871.72481971714,171025.0
62871.73491951889,171045.0
62871.74501932063,171077.0
62871.75511912237,171045.0
62871.76521892411,171058.0
62871.77531872586,171043.0
62871.7854185276,171044.0
62871.79551832934,171076.0
62871.80561813108,171084.0
62871.81571793283,171064.0
62871.82581773457,171031.0
62871.835917536315,171085.0
62871.84601733805,171063.0
62871.856117139796,171052.0
62871.86621694154,171023.0
62871.876316743284,171025.0
62871.88641654503,170999.0
62871.896516346766,171022.0
62871.90661614851,171028.0
62871.916715950254,170966.0
62871.926815752,170981.0
62871.936915553735,170986.0
62871.94701535548,170971.0
62871.95711515722,170952.0
62871.96721495897,170962.0
62871.97731476071,170967.0
62871.98741456245,170962.0
62871.99751436419,170945.0
62872.00761416594,170948.0
62872.01771396768,170964.0
62872.027813769426,170962.0
62872.03791357116,170971.0
62872.04801337291,170955.0
62872.05811317465,170964.0
62872.068212976395,170969.0
62872.07831277813,170962.0
62872.08841257988,170964.0
62872.09851238162,170979.0
62872.108612183365,171000.0
62872.11871198511,170964.0
62872.128811786846,171005.0
62872.13891158859,170983.0
62872.149011390335,170959.0
62872.15911119208,170999.0
62872.16921099382,170970.0
62872.17931079556,170969.0
62872.189410597304,170944.0
62872.19951039905,170959.0
62872.20961020079,170961.0
62872.21971000253,170966.0
62872.229809804274,170935.0
62872.23990960602,170936.0
62872.25000940776,170955.0
62872.26010920951,170961.0
62872.27020901124,170945.0
62872.28030881299,170957.0
62872.29040861473,170951.0
62872.300508416476,170977.0
62872.31060821822,170958.0
62872.32070801996,170947.0
62872.3308078217,170946.0
62872.340907623446,170925.0
62872.35100742519,170950.0
62872.36110722693,170920.0
62872.37120702867,170964.0
62872.381306830415,170962.0
62872.39140663216,170941.0
62872.401506433904,170915.0
62872.41160623564,170903.0
62872.421706037385,170950.0
62872.43180583913,170913.0
62872.44190564087,170922.0
62872.45200544262,170905.0
62872.462105244354,170938.0
62872.4722050461,170922.0
62872.48230484784,170919.0
62872.49240464959,170894.0
62872.502504451324,170926.0
62872.51260425307,170919.0
62872.52270405481,170901.0
62872.53280385656,170914.0
62872.5429036583,170915.0
62872.55300346004,170932.0
62872.56310326178,170887.0
62872.573203063526,170948.0
62872.58330286527,170887.0
62872.593402667015,170915.0
62872.60350246875,170882.0
62872.613602270496,170850.0
62872.62370207224,170856.0
62872.633801873984,170852.0
62872.64390167572,170864.0
62872.654001477465,170824.0
62872.66410127921,170847.0
62872.674201080954,170826.0
62872.6843008827,170798.0
62872.694400684435,170818.0
62872.70450048618,170823.0
62872.71460028792,170842.0
62872.72470008967,170840.0
62872.73479989141,170844.0
62872.74489969315,170815.0
62872.75499949489,170834.0
62872.76509929664,170827.0
62872.77519909838,170805.0
62872.78529890012,170840.0
62872.79539870186,170830.0
62872.80549850361,170844.0
62872.81559830535,170810.0
62872.825698107095,170831.0
62872.83579790883,170856.0
62872.84589771058,170857.0
62872.85599751232,170852.0
62872.866097314065,170878.0
62872.87619711581,170828.0
62872.886296917546,170850.0
62872.89639671929,170853.0
62872.906496521035,170800.0
62872.91659632278,170833.0
62872.926696124516,170840.0
62872.93679592626,170832.0
62872.946895728004,170830.0
62872.95699552975,170835.0
62872.96709533149,170846.0
62872.97719513323,170823.0
62872.987294934974,170857.0
62872.99739473672,170864.0
62873.00749453846,170856.0
62873.01759434021,170821.0
62873.02769414194,170860.0
62873.03779394369,170831.0
62873.04789374543,170851.0
62873.057993547176,170843.0
62873.06809334891,170874.0
62873.07819315066,170837.0
62873.0882929524,170865.0
62873.098392754146,170877.0
62873.10849255589,170850.0
62873.11859235763,170871.0
62873.12869215937,170871.0
62873.138791961115,170856.0
62873.14889176286,170843.0
62873.158991564604,170884.0
62873.16909136634,170857.0
62873.179191168085,170828.0
62873.18929096983,170859.0
62873.19939077157,170874.0
62873.20949057331,170873.0
62873.219590375054,170881.0
62873.2296901768,170888.0
62873.23978997854,170894.0
62873.24988978029,170898.0
62873.259989582024,170903.0
62873.27008938377,170903.0
62873.28018918551,170861.0
62873.29028898726,170895.0
62873.300388789,170884.0
62873.31048859074,170826.0
62873.32058839248,170874.0
62873.330688194226,170858.0
62873.34078799597,170850.0
62873.35088779771,170801.0
62873.36098759945,170817.0
62873.371087401196,170766.0
62873.38118720294,170784.0
62873.391287004684,170779.0
62873.40138680642,170796.0
62873.411486608165,170782.0
62873.42158640991,170794.0
62873.431686211654,170768.0
62873.4417860134,170765.0
62873.451885815135,170779.0
62873.46198561688,170780.0
62873.47208541862,170796.0
62873.48218522037,170773.0
62873.492285022105,170813.0
62873.50238482385,170810.0
62873.51248462559,170813.0
62873.52258442734,170839.0
62873.53268422908,170812.0
62873.54278403082,170817.0
62873.55288383256,170795.0
62873.56298363431,170802.0
62873.57308343605,170784.0
62873.583183237795,170818.0
62873.59328303953,170820.0
62873.60338284128,170786.0
62873.61348264302,170805.0
62873.623582444765,170812.0
62873.6336822465,170799.0
62873.643782048246,170822.0
62873.65388184999,170787.0
62873.663981651735,170775.0
62873.67408145348,170747.0
62873.684181255216,170713.0
62873.69428105696,170744.0
62873.704380858704,170745.0
62873.71448066045,170746.0
62873.72458046219,170761.0
62873.73468026393,170714.0
62873.744780065674,170743.0
62873.75487986742,170715.0
62873.76497966916,170753.0
62873.7750794709,170713.0
62873.78517927264,170739.0
62873.79527907439,170741.0
62873.80537887613,170717.0
62873.815478677876,170723.0
62873.82557847961,170724.0
62873.83567828136,170742.0
62873.8457780831,170712.0
62873.855877884846,170735.0
62873.86597768659,170743.0
62873.87607748833,170715.0
62873.88617729007,170721.0
62873.896277091815,170736.0
62873.90637689356,170705.0
62873.916476695296,170701.0
62873.92657649704,170714.0
62873.936676298785,170696.0
62873.94677610053,170701.0
62873.95687590227,170701.0
62873.96697570401,170702.0
62873.977075505754,170553.0
62873.9871753075,170536.0
62873.99727510924,170504.0
62874.00737491099,170501.0
62874.017474712724,170522.0
62874.02757451447,170482.0
62874.03767431621,170469.0
62874.04777411796,170461.0
62874.05787391969,170462.0
62874.06797372144,170423.0
62874.07807352318,170437.0
62874.088173324926,170408.0
62874.09827312667,170398.0
62874.10837292841,170389.0
62874.11847273015,170409.0
62874.128572531896,170398.0
62874.13867233364,170391.0
62874.148772135384,170408.0
62874.15887193712,170396.0
62874.168971738865,170413.0
62874.17907154061,170401.0
62874.189171342354,170428.0
62874.19927114409,170422.0
62874.209370945835,170422.0
62874.21947074758,170436.0
62874.22957054932,170426.0
62874.23967035107,170425.0
62874.249770152805,170451.0
62874.25986995455,170438.0
62874.26996975629,170399.0
62874.28006955804,170444.0
62874.29016935978,170434.0
62874.30026916152,170423.0
62874.31036896326,170441.0
62874.32046876501,170419.0
62874.33056856675,170397.0
62874.34066836849,170414.0
62874.35076817023,170441.0
62874.36086797198,170426.0
62874.37096777372,170384.0
62874.381067575465,170383.0
62874.3911673772,170428.0
62874.401267178946,170388.0
62874.41136698069,170447.0
62874.421466782434,170419.0
62874.43156658418,170401.0
62874.441666385916,170422.0
62874.45176618766,170433.0
62874.461865989404,170424.0
62874.47196579115,170440.0
62874.482065592885,170437.0
62874.49216539463,170418.0
62874.50226519637,170427.0
62874.51236499812,170422.0
62874.52246479986,170424.0
62874.5325646016,170397.0
62874.54266440334,170411.0
62874.55276420509,170365.0
62874.56286400683,170388.0
62874.572963808576,170383.0
62874.58306361031,170394.0
62874.59316341206,170384.0
62874.6032632138,170357.0
62874.613363015545,170401.0
62874.62346281728,170385.0
62874.63356261903,170370.0
62874.64366242077,170365.0
62874.653762222515,170402.0
62874.66386202426,170367.0
62874.673961825996,170348.0
62874.68406162774,170383.0
62874.694161429485,170360.0
62874.70426123123,170377.0
62874.71436103297,170345.0
62874.72446083471,170367.0
62874.734560636454,170334.0
62874.7446604382,170341.0
62874.75476023994,170330.0
62874.76486004168,170360.0
62874.774959843424,170300.0
62874.78505964517,170300.0
62874.79515944691,170289.0
62874.80525924866,170286.0
62874.81535905039,170323.0
62874.82545885214,170265.0
62874.83555865388,170256.0
62874.845658455626,170280.0
62874.85575825737,170242.0
62874.86585805911,170255.0
62874.87595786085,170255.0
62874.886057662596,170239.0
62874.89615746434,170241.0
62874.90625726608,170234.0
62874.91635706782,170256.0
62874.926456869565,170286.0
62874.93655667131,170256.0
62874.946656473054,170296.0
62874.95675627479,170285.0
62874.966856076535,170294.0
62874.97695587828,170257.0
62874.98705568002,170242.0
62874.99715548177,170264.0
62875.007255283504,170257.0
62875.01735508525,170275.0
62875.02745488699,170227.0
62875.03755468874,170250.0
62875.047654490474,170261.0
62875.05775429222,170226.0
62875.06785409396,170267.0
62875.07795389571,170240.0
62875.08805369745,170274.0
62875.09815349919,170255.0
62875.10825330093,170228.0
62875.118353102676,170227.0
62875.12845290442,170231.0
62875.138552706165,170215.0
62875.1486525079,170244.0
62875.158752309646,170229.0
62875.16885211139,170226.0
62875.178951913134,170193.0
62875.18905171487,170227.0
62875.199151516616,170238.0
62875.20925131836,170261.0
62875.219351120104,170248.0
62875.22945092185,170216.0
62875.239550723585,170232.0
62875.24965052533,170237.0
62875.25975032707,170224.0
62875.26985012882,170239.0
62875.27994993056,170240.0
62875.2900497323,170256.0
62875.30014953404,170224.0
62875.31024933579,170199.0
62875.32034913753,170219.0
62875.33044893927,170215.0
62875.34054874101,170236.0
62875.35064854276,170229.0
62875.3607483445,170246.0
62875.370848146245,170237.0
62875.38094794798,170240.0
62875.39104774973,170242.0
62875.40114755147,170293.0
62875.411247353215,170268.0
62875.42134715496,170247.0
62875.431446956696,170276.0
62875.44154675844,170289.0
62875.451646560185,170261.0
62875.46174636193,170240.0
62875.471846163666,170253.0
62875.48194596541,170255.0
62875.492045767154,170294.0
62875.5021455689,170265.0
62875.51224537064,170266.0
62875.52234517238,170326.0
62875.532444974124,170306.0
62875.54254477587,170248.0
62875.55264457761,170257.0
62875.56274437936,170228.0
62875.57284418109,170246.0
62875.58294398284,170210.0
62875.59304378458,170205.0
62875.603143586326,170263.0
62875.61324338806,170233.0
62875.62334318981,170219.0
62875.63344299155,170237.0
62875.643542793296,170226.0
62875.65364259504,170252.0
62875.66374239678,170229.0
62875.67384219852,170270.0
62875.683942000265,170241.0
62875.69404180201,170273.0
62875.70414160375,170261.0
62875.71424140549,170242.0
62875.724341207235,170254.0
62875.73444100898,170274.0
62875.74454081072,170268.0
62875.75464061246,170276.0
62875.764740414204,170284.0
62875.77484021595,170246.0
62875.78494001769,170219.0
62875.79503981944,170201.0
62875.805139621174,170247.0
62875.81523942292,170238.0
62875.82533922466,170197.0
62875.83543902641,170239.0
62875.84553882814,170195.0
62875.85563862989,170199.0
62875.86573843163,170201.0
62875.875838233376,170215.0
62875.88593803512,170233.0
62875.89603783686,170244.0
62875.9061376386,170252.0
62875.916237440346,170222.0
62875.92633724209,170261.0
62875.936437043834,170234.0
62875.94653684557,170256.0
62875.956636647315,170283.0
62875.96673644906,170261.0
62875.976836250804,170251.0
62875.98693605254,170263.0
62875.997035854285,170239.0
62876.00713565603,170256.0
62876.01723545777,170262.0
62876.02733525952,170283.0
62876.037435061255,170285.0
62876.047534863,170236.0
62876.05763466474,170254.0
62876.06773446649,170260.0
62876.07783426823,170292.0
62876.08793406997,170281.0
62876.09803387171,170290.0
62876.10813367346,170288.0
62876.1182334752,170243.0
62876.12833327694,170274.0
62876.13843307868,170265.0
62876.14853288043,170279.0
62876.15863268217,170275.0
62876.168732483915,170282.0
62876.17883228565,170248.0
62876.188932087396,170286.0
62876.19903188914,170269.0
62876.209131690885,170299.0
62876.21923149263,170279.0
62876.229331294366,170292.0
62876.23943109611,170265.0
62876.249530897854,170252.0
62876.2596306996,170265.0
62876.269730501335,170257.0
62876.27983030308,170264.0
62876.289930104824,170246.0
62876.30002990657,170257.0
62876.31012970831,170244.0
62876.32022951005,170226.0
62876.33032931179,170236.0
62876.34042911354,170262.0
62876.35052891528,170252.0
62876.360628717026,170238.0
62876.37072851876,170255.0
62876.38082832051,170221.0
62876.39092812225,170232.0
62876.401027923996,170253.0
62876.41112772573,170272.0
62876.42122752748,170276.0
62876.43132732922,170285.0
62876.441427130965,170273.0
62876.45152693271,170266.0
62876.461626734446,170269.0
62876.47172653619,170251.0
62876.481826337935,170288.0
62876.49192613968,170279.0
62876.50202594142,170330.0
62876.51212574316,170278.0
62876.522225544904,170279.0
62876.53232534665,170317.0
62876.54242514839,170334.0
62876.55252495013,170315.0
62876.562624751874,170317.0
62876.57272455362,170296.0
62876.58282435536,170332.0
62876.59292415711,170322.0
62876.60302395884,170328.0
62876.61312376059,170337.0
62876.62322356233,170328.0
62876.633323364076,170331.0
62876.64342316582,170337.0
62876.65352296756,170326.0
62876.6636227693,170318.0
62876.673722571046,170313.0
62876.68382237279,170336.0
62876.69392217453,170349.0
62876.70402197627,170374.0
62876.714121778015,170334.0
62876.72422157976,170338.0
62876.734321381504,170325.0
62876.74442118324,170382.0
62876.754520984985,170349.0
62876.76462078673,170356.0
62876.77472058847,170348.0
62876.78482039022,170350.0
62876.794920191955,170419.0
62876.8050199937,170369.0
62876.81511979544,170383.0
62876.82521959719,170389.0
62876.835319398924,170405.0
62876.84541920067,170368.0
62876.85551900241,170355.0
62876.86561880416,170376.0
62876.8757186059,170405.0
62876.88581840764,170400.0
62876.89591820938,170387.0
62876.90601801113,170385.0
62876.91611781287,170389.0
62876.926217614615,170397.0
62876.93631741635,170406.0
62876.946417218096,170380.0
62876.95651701984,170384.0
62876.966616821584,170397.0
62876.97671662332,170390.0
62876.986816425066,170366.0
62876.99691622681,170394.0
62877.007016028554,170361.0
62877.0171158303,170366.0
62877.027215632035,170389.0
62877.03731543378,170383.0
62877.047415235524,170337.0
62877.05751503727,170344.0
62877.06761483901,170324.0
62877.07771464075,170334.0
62877.08781444249,170319.0
62877.09791424424,170320.0
62877.10801404598,170330.0
62877.11811384772,170332.0
62877.12821364946,170355.0
62877.13831345121,170352.0
62877.14841325295,170362.0
62877.158513054696,170365.0
62877.16861285643,170382.0
62877.17871265818,170382.0
62877.18881245992,170366.0
62877.198912261665,170406.0
62877.20901206341,170387.0
62877.219111865146,170401.0
62877.22921166689,170421.0
62877.239311468635,170394.0
62877.24941127038,170395.0
62877.259511072116,170427.0
62877.26961087386,170426.0
62877.279710675604,170427.0
62877.28981047735,170415.0
62877.29991027909,170439.0
62877.31001008083,170425.0
62877.320109882574,170410.0
62877.33020968432,170449.0
62877.34030948606,170429.0
62877.35040928781,170435.0
62877.36050908954,170448.0
62877.37060889129,170456.0
62877.38070869303,170441.0
62877.390808494776,170424.0
62877.40090829651,170478.0
62877.41100809826,170443.0
62877.4211079,170477.0
62877.431207701746,170501.0
62877.44130750349,170548.0
62877.45140730523,170494.0
62877.46150710697,170532.0
62877.471606908715,170539.0
62877.48170671046,170567.0
62877.491806512204,170582.0
62877.50190631394,170574.0
62877.512006115685,170574.0
62877.52210591743,170566.0
62877.53220571917,170585.0
62877.54230552091,170579.0
62877.552405322655,170619.0
62877.5625051244,170598.0
62877.57260492614,170615.0
62877.58270472789,170592.0
62877.592804529624,170627.0
62877.60290433137,170644.0
62877.61300413311,170617.0
62877.62310393486,170605.0
62877.6332037366,170640.0
62877.64330353834,170629.0
62877.65340334008,170620.0
62877.66350314183,170648.0
62877.67360294357,170664.0
62877.68370274531,170689.0
62877.69380254705,170646.0
62877.703902348796,170672.0
62877.71400215054,170679.0
62877.724101952284,170644.0
62877.73420175402,170641.0
62877.744301555766,170658.0
62877.75440135751,170676.0
62877.764501159254,170675.0
62877.774600961,170698.0
62877.784700762735,170666.0
62877.79480056448,170688.0
62877.80490036622,170685.0
62877.81500016797,170662.0
62877.825099969705,170660.0
62877.83519977145,170653.0
62877.84529957319,170620.0
62877.85539937494,170579.0
62877.86549917668,170640.0
62877.87559897842,170597.0
62877.88569878016,170639.0
62877.89579858191,170620.0
62877.90589838365,170615.0
62877.915998185395,170604.0
62877.92609798713,170615.0
62877.93619778888,170637.0
62877.94629759062,170617.0
62877.956397392365,170645.0
62877.9664971941,170620.0
62877.976596995846,170653.0
62877.98669679759,170606.0
62877.996796599335,170621.0
62878.00689640108,170631.0
62878.016996202816,170609.0
62878.02709600456,170637.0
62878.037195806304,170648.0
62878.04729560805,170633.0
62878.05739540979,170626.0
62878.06749521153,170652.0
62878.077595013274,170686.0
62878.08769481502,170668.0
62878.09779461676,170635.0
62878.1078944185,170661.0
62878.11799422024,170643.0
62878.12809402199,170646.0
62878.13819382373,170651.0
62878.148293625476,170662.0
62878.15839342721,170653.0
62878.16849322896,170654.0
62878.1785930307,170676.0
62878.188692832446,170664.0
62878.19879263419,170669.0
62878.20889243593,170664.0
62878.21899223767,170673.0
62878.229092039415,170671.0
62878.23919184116,170642.0
62878.2492916429,170665.0
62878.25939144464,170631.0
62878.269491246385,170694.0
62878.27959104813,170697.0
62878.28969084987,170671.0
62878.29979065161,170669.0
62878.309890453354,170708.0
62878.3199902551,170677.0
62878.33009005684,170705.0
62878.34018985859,170723.0
62878.350289660324,170678.0
62878.36038946207,170713.0
62878.37048926381,170707.0
62878.38058906556,170710.0
62878.390688867294,170705.0
62878.40078866904,170706.0
62878.41088847078,170722.0
62878.420988272526,170742.0
62878.43108807427,170755.0
62878.44118787601,170704.0
62878.45128767775,170735.0
62878.461387479496,170740.0
62878.47148728124,170717.0
62878.481587082984,170755.0
62878.49168688472,170737.0
62878.501786686465,170735.0
62878.51188648821,170752.0
62878.521986289954,170753.0
62878.53208609169,170745.0
62878.542185893435,170746.0
62878.55228569518,170762.0
62878.56238549692,170773.0
62878.57248529867,170764.0
62878.582585100405,170751.0
62878.59268490215,170744.0
62878.60278470389,170730.0
62878.61288450564,170789.0
62878.62298430738,170741.0
62878.63308410912,170744.0
62878.64318391086,170714.0
62878.65328371261,170693.0
62878.66338351435,170689.0
62878.67348331609,170660.0
62878.68358311783,170726.0
62878.69368291958,170681.0
62878.70378272132,170716.0
62878.713882523065,170727.0
62878.7239823248,170719.0
62878.734082126546,170727.0
62878.74418192829,170737.0
62878.754281730035,170717.0
62878.76438153178,170743.0
62878.774481333516,170753.0
62878.78458113526,170756.0
62878.794680937004,170773.0
62878.80478073875,170756.0
62878.814880540485,170762.0
62878.82498034223,170783.0
62878.835080143974,170813.0
62878.84517994572,170790.0
62878.85527974746,170791.0
62878.8653795492,170788.0
62878.87547935094,170752.0
62878.88557915269,170797.0
62878.89567895443,170760.0
62878.905778756176,170772.0
62878.91587855791,170752.0
62878.92597835966,170735.0
62878.9360781614,170780.0
62878.946177963146,170766.0
62878.95627776488,170778.0
62878.96637756663,170739.0
62878.97647736837,170768.0
62878.986577170115,170760.0
62878.99667697186,170719.0
62879.006776773596,170714.0
62879.01687657534,170712.0
62879.026976377085,170728.0
62879.03707617883,170720.0
62879.04717598057,170733.0
62879.05727578231,170746.0
62879.067375584054,170709.0
62879.0774753858,170689.0
62879.08757518754,170736.0
62879.09767498928,170718.0
62879.107774791024,170736.0
62879.11787459277,170762.0
62879.12797439451,170731.0
62879.13807419626,170727.0
62879.14817399799,170786.0
62879.15827379974,170772.0
62879.16837360148,170778.0
62879.178473403226,170799.0
62879.18857320497,170748.0
62879.19867300671,170783.0
62879.20877280845,170759.0
62879.218872610196,170753.0
62879.22897241194,170802.0
62879.23907221368,170792.0
62879.24917201542,170770.0
62879.259271817165,170763.0
62879.26937161891,170817.0
62879.279471420654,170810.0
62879.28957122239,170787.0
62879.299671024135,170809.0
62879.30977082588,170847.0
62879.31987062762,170830.0
62879.32997042937,170812.0
62879.340070231105,170838.0
62879.35017003285,170817.0
62879.36026983459,170843.0
62879.37036963634,170818.0
62879.380469438074,170853.0
62879.39056923982,170800.0
62879.40066904156,170830.0
62879.41076884331,170807.0
62879.42086864505,170786.0
62879.43096844679,170815.0
62879.44106824853,170809.0
62879.45116805028,170807.0
62879.46126785202,170808.0
62879.471367653765,170848.0
62879.4814674555,170829.0
62879.491567257246,170824.0
62879.50166705899,170843.0
62879.511766860734,170865.0
62879.52186666247,170860.0
62879.531966464216,170846.0
62879.54206626596,170851.0
62879.552166067704,170844.0
62879.56226586945,170881.0
62879.572365671185,170896.0
62879.58246547293,170866.0
62879.592565274674,170871.0
62879.60266507642,170879.0
62879.612764878155,170889.0
62879.6228646799,170867.0
62879.63296448164,170916.0
62879.64306428339,170908.0
62879.65316408513,170902.0
62879.66326388687,170901.0
62879.67336368861,170926.0
62879.68346349036,170913.0
62879.6935632921,170918.0
62879.703663093846,170935.0
62879.71376289558,170927.0
62879.72386269733,170915.0
62879.73396249907,170927.0
62879.744062300815,170926.0
62879.75416210255,170912.0
62879.764261904296,170952.0
62879.77436170604,170935.0
62879.784461507785,170947.0
62879.79456130953,170941.0
62879.804661111266,170981.0
62879.81476091301,170968.0
62879.824860714754,170966.0
62879.8349605165,170982.0
62879.84506031824,170991.0
62879.85516011998,170980.0
62879.865259921724,170967.0
62879.87535972347,170990.0
62879.88545952521,170968.0
62879.89555932695,170979.0
62879.90565912869,171002.0
62879.91575893044,171008.0
62879.92585873218,171005.0
62879.935958533926,171005.0
62879.94605833566,171020.0
62879.95615813741,170985.0
62879.96625793915,171045.0
62879.976357740896,171027.0
62879.98645754264,171033.0
62879.99655734438,171025.0
62880.00665714612,171072.0
62880.016756947865,171053.0
62880.02685674961,171046.0
62880.03695655135,171073.0
62880.04705635309,171087.0
62880.057156154835,171066.0
62880.06725595658,171047.0
62880.07735575832,171031.0
62880.08745556006,171028.0
62880.097555361805,171043.0
62880.10765516355,171057.0
62880.11775496529,171046.0
62880.12785476704,171011.0
62880.137954568774,171042.0
62880.14805437052,171030.0
62880.15815417226,171007.0
62880.16825397401,171024.0
62880.178353775744,171008.0
62880.18845357749,170973.0
62880.19855337923,170983.0
62880.20865318098,170996.0
62880.21875298272,170972.0
62880.22885278446,170999.0
62880.2389525862,171035.0
62880.249052387946,171006.0
62880.25915218969,171023.0
62880.269251991434,171014.0
62880.27935179317,171051.0
62880.289451594916,171008.0
62880.29955139666,171048.0
62880.309651198404,171052.0
62880.31975100014,171033.0
62880.329850801885,171032.0
62880.33995060363,171067.0
62880.35005040537,171074.0
62880.36015020712,171041.0
62880.370250008855,171104.0
62880.3803498106,171060.0
62880.39044961234,171096.0
62880.40054941409,171120.0
62880.41064921583,171110.0
62880.42074901757,171085.0
62880.43084881931,171081.0
62880.44094862106,171130.0
62880.4510484228,171082.0
62880.46114822454,171126.0
62880.47124802628,171107.0
62880.48134782803,171089.0
62880.49144762977,171090.0
62880.501547431515,171152.0
62880.51164723325,171145.0
62880.521747034996,171153.0
62880.53184683674,171161.0
62880.541946638485,171193.0
62880.55204644023,171163.0
62880.562146241966,171165.0
62880.57224604371,171206.0
62880.582345845454,171147.0
62880.5924456472,171186.0
62880.602545448935,171179.0
62880.61264525068,171194.0
62880.622745052424,171191.0
62880.63284485417,171179.0
62880.64294465591,171203.0
62880.65304445765,171166.0
62880.66314425939,171233.0
62880.67324406114,171243.0
62880.68334386288,171228.0
62880.693443664626,171247.0
62880.70354346636,171247.0
62880.71364326811,171228.0
62880.72374306985,171223.0
62880.733842871596,171232.0
62880.74394267333,171259.0
62880.75404247508,171206.0
62880.76414227682,171240.0
62880.774242078565,171208.0
62880.78434188031,171233.0
62880.79444168205,171246.0
62880.80454148379,171236.0
62880.814641285535,171258.0
62880.82474108728,171223.0
62880.83484088902,171276.0
62880.84494069076,171270.0
62880.855040492504,171248.0
62880.86514029425,171259.0
62880.87524009599,171249.0
62880.88533989773,171245.0
62880.895439699474,171217.0
62880.90553950122,171245.0
62880.91563930296,171198.0
62880.92573910471,171197.0
62880.935838906444,171204.0
62880.94593870819,171180.0
62880.95603850993,171163.0
62880.966138311676,171182.0
62880.97623811342,171173.0
62880.98633791516,171178.0
62880.9964377169,171219.0
62881.006537518646,171225.0
62881.01663732039,171219.0
62881.02673712213,171186.0
62881.03683692387,171236.0
62881.046936725616,171210.0
62881.05703652736,171210.0
62881.067136329104,171220.0
62881.07723613084,171181.0
62881.087335932585,171213.0
62881.09743573433,171219.0
62881.10753553607,171255.0
62881.11763533782,171215.0
62881.127735139555,171230.0
62881.1378349413,171240.0
62881.14793474304,171231.0
62881.15803454479,171193.0
62881.168134346524,171214.0
62881.17823414827,171207.0
62881.18833395001,171200.0
62881.19843375176,171245.0
62881.2085335535,171219.0
62881.21863335524,171198.0
62881.22873315698,171200.0
62881.23883295873,171261.0
62881.24893276047,171238.0
62881.259032562215,171213.0
62881.26913236395,171231.0
62881.279232165696,171215.0
62881.28933196744,171218.0
62881.299431769185,171204.0
62881.30953157092,171245.0
62881.319631372666,171214.0
62881.32973117441,171222.0
62881.339830976154,171195.0
62881.3499307779,171221.0
62881.360030579635,171205.0
62881.37013038138,171211.0
62881.380230183124,171225.0
62881.39032998487,171246.0
62881.40042978661,171264.0
62881.41052958835,171226.0
62881.42062939009,171235.0
62881.43072919184,171192.0
62881.44082899358,171273.0
62881.45092879532,171247.0
62881.46102859706,171252.0
62881.47112839881,171219.0
62881.48122820055,171218.0
62881.491328002296,171238.0
62881.50142780403,171241.0
62881.51152760578,171256.0
62881.52162740752,171243.0
62881.531727209265,171263.0
62881.54182701101,171240.0
62881.55192681275,171273.0
62881.56202661449,171224.0
62881.572126416235,171258.0
62881.58222621798,171262.0
62881.592326019716,171262.0
62881.60242582146,171232.0
62881.612525623204,171280.0
62881.62262542495,171189.0
62881.63272522669,171223.0
62881.64282502843,171215.0
62881.652924830174,171254.0
62881.66302463192,171192.0
62881.67312443366,171175.0
62881.68322423541,171205.0
62881.69332403714,171204.0
62881.70342383889,171220.0
62881.71352364063,171210.0
62881.723623442376,171246.0
62881.73372324411,171273.0
62881.74382304586,171218.0
62881.7539228476,171205.0
62881.764022649346,171192.0
62881.77412245109,171213.0
62881.78422225283,171230.0
62881.79432205457,171213.0
62881.804421856315,171252.0
62881.81452165806,171222.0
62881.824621459804,171223.0
62881.83472126154,171239.0
62881.844821063285,171235.0
62881.85492086503,171259.0
62881.86502066677,171216.0
62881.87512046851,171248.0
62881.885220270255,171204.0
62881.895320072,171217.0
62881.90541987374,171231.0
62881.91551967549,171222.0
62881.925619477224,171238.0
62881.93571927897,171248.0
62881.94581908071,171228.0
62881.95591888246,171233.0
62881.9660186842,171223.0
62881.97611848594,171228.0
62881.98621828768,171238.0
62881.99631808943,171229.0
62882.00641789117,171214.0
62882.01651769291,171215.0
62882.02661749465,171240.0
62882.036717296396,171239.0
62882.04681709814,171208.0
62882.056916899885,171213.0
62882.06701670162,171220.0
62882.077116503366,171221.0
62882.08721630511,171249.0
62882.097316106854,171213.0
62882.1074159086,171235.0
62882.117515710335,171246.0
62882.12761551208,171222.0
62882.137715313824,171266.0
62882.14781511557,171236.0
62882.157914917305,171249.0
62882.16801471905,171251.0
62882.17811452079,171248.0
62882.18821432254,171258.0
62882.19831412428,171268.0
62882.20841392602,171241.0
62882.21851372776,171281.0
62882.22861352951,171299.0
62882.23871333125,171262.0
62882.248813132996,171235.0
62882.25891293473,171250.0
62882.26901273648,171253.0
62882.27911253822,171275.0
62882.289212339965,171257.0
62882.2993121417,171226.0
62882.309411943446,171243.0
62882.31951174519,171217.0
62882.329611546935,171173.0
62882.33971134868,171183.0
62882.349811150416,171211.0
62882.35991095216,171176.0
62882.370010753904,171211.0
62882.38011055565,171205.0
62882.39021035739,171236.0
62882.40031015913,171210.0
62882.410409960874,171223.0
62882.42050976262,171251.0
62882.43060956436,171223.0
62882.4407093661,171222.0
62882.45080916784,171229.0
62882.46090896959,171216.0
62882.47100877133,171233.0
62882.481108573076,171251.0
62882.49120837481,171221.0
62882.50130817656,171209.0
62882.5114079783,171264.0
62882.521507780046,171224.0
62882.53160758179,171242.0
62882.54170738353,171248.0
62882.55180718527,171246.0
62882.561906987015,171229.0
62882.57200678876,171236.0
62882.5821065905,171266.0
62882.59220639224,171238.0
62882.602306193985,171258.0
62882.61240599573,171244.0
62882.62250579747,171253.0
62882.63260559921,171248.0
62882.642705400955,171269.0
62882.6528052027,171242.0
62882.66290500444,171234.0
62882.67300480619,171239.0
62882.683104607924,171235.0
62882.69320440967,171237.0
62882.70330421141,171211.0
62882.71340401316,171259.0
62882.723503814894,171241.0
62882.73360361664,171240.0
62882.74370341838,171237.0
62882.75380322013,171229.0
62882.76390302187,171219.0
62882.77400282361,171252.0
62882.78410262535,171255.0
62882.794202427096,171245.0
62882.80430222884,171281.0
62882.814402030584,171239.0
62882.82450183232,171232.0
62882.834601634066,171247.0
62882.84470143581,171279.0
62882.854801237554,171259.0
62882.86490103929,171229.0
62882.875000841035,171246.0
62882.88510064278,171246.0
62882.895200444524,171222.0
62882.90530024627,171222.0
62882.915400048005,171253.0
62882.92549984975,171224.0
62882.93559965149,171253.0
62882.94569945324,171254.0
62882.95579925498,171245.0
62882.96589905672,171229.0
62882.97599885846,171220.0
62882.98609866021,171162.0
62882.99619846195,171156.0
62883.00629826369,171160.0
62883.01639806543,171141.0
62883.02649786718,171163.0
62883.03659766892,171162.0
62883.046697470665,171209.0
62883.0567972724,171189.0
62883.066897074146,171192.0
62883.07699687589,171226.0
62883.087096677635,171173.0
62883.09719647938,171183.0
62883.107296281116,171166.0
62883.11739608286,171207.0
62883.127495884604,171160.0
62883.13759568635,171206.0
62883.147695488085,171186.0
62883.15779528983,171177.0
62883.167895091574,171185.0
62883.17799489332,171203.0
62883.18809469506,171192.0
62883.1981944968,171179.0
62883.20829429854,171181.0
62883.21839410029,171134.0
62883.22849390203,171171.0
62883.238593703776,171135.0
62883.24869350551,171135.0
62883.25879330726,171164.0
62883.268893109,171177.0
62883.278992910746,171201.0
62883.28909271248,171161.0
62883.29919251423,171174.0
62883.30929231597,171164.0
62883.319392117715,171186.0
62883.32949191946,171190.0
62883.3395917212,171195.0
62883.34969152294,171153.0
62883.359791324685,171142.0
62883.36989112643,171182.0
62883.37999092817,171138.0
62883.39009072991,171182.0
62883.400190531655,171142.0
62883.4102903334,171178.0
62883.42039013514,171155.0
62883.43048993688,171159.0
62883.440589738624,171164.0
62883.45068954037,171137.0
62883.46078934211,171139.0
62883.47088914386,171181.0
62883.480988945594,171177.0
62883.49108874734,171152.0
62883.50118854908,171149.0
62883.51128835083,171177.0
62883.52138815257,171159.0
62883.53148795431,171144.0
62883.54158775605,171184.0
62883.551687557796,171162.0
62883.56178735954,171162.0
62883.57188716128,171171.0
62883.58198696302,171162.0
62883.592086764766,171131.0
62883.60218656651,171174.0
62883.612286368254,171172.0
62883.62238616999,171150.0
62883.632485971735,171143.0
62883.64258577348,171119.0
62883.65268557522,171107.0
62883.66278537696,171054.0
62883.672885178705,171105.0
62883.68298498045,171077.0
62883.69308478219,171067.0
62883.70318458394,171085.0
62883.713284385674,171128.0
62883.72338418742,171111.0
62883.73348398916,171076.0
62883.74358379091,171129.0
62883.75368359265,171064.0
62883.76378339439,171101.0
62883.77388319613,171100.0
62883.78398299788,171088.0
62883.79408279962,171074.0
62883.80418260136,171114.0
62883.8142824031,171119.0
62883.824382204846,171097.0
62883.83448200659,171137.0
62883.844581808335,171112.0
62883.85468161007,171122.0
62883.864781411816,171078.0
62883.87488121356,171092.0
62883.884981015304,171074.0
62883.89508081705,171086.0
62883.905180618785,171093.0
62883.91528042053,171105.0
62883.925380222274,171078.0
62883.93548002402,171039.0
62883.945579825755,171080.0
62883.9556796275,171046.0
62883.96577942924,171064.0
62883.97587923099,171051.0
62883.98597903273,171033.0
62883.99607883447,171052.0
62884.00617863621,171103.0
62884.01627843796,171055.0
62884.0263782397,171069.0
62884.036478041446,171081.0
62884.04657784318,171093.0
62884.05667764493,171068.0
62884.06677744667,171067.0
62884.076877248415,171106.0
62884.08697705015,171066.0
62884.0970768519,171086.0
62884.10717665364,171070.0
62884.117276455385,171099.0
62884.12737625713,171069.0
62884.137476058866,171092.0
62884.14757586061,171078.0
62884.157675662354,171071.0
62884.1677754641,171103.0
62884.17787526584,171101.0
62884.18797506758,171092.0
62884.198074869324,171105.0
62884.20817467107,171121.0
62884.21827447281,171110.0
62884.22837427455,171085.0
62884.238474076294,171107.0
62884.24857387804,171108.0
62884.25867367978,171097.0
62884.268773481526,171127.0
62884.27887328326,171121.0
62884.28897308501,171095.0
62884.29907288675,171106.0
62884.309172688496,171084.0
62884.31927249024,171097.0
62884.32937229198,171062.0
62884.33947209372,171065.0
62884.349571895465,171063.0
62884.35967169721,171019.0
62884.36977149895,171046.0
62884.37987130069,171036.0
62884.389971102435,171033.0
62884.40007090418,171079.0
62884.41017070592,171098.0
62884.42027050766,171054.0
62884.430370309405,171052.0
62884.44047011115,171070.0
62884.45056991289,171056.0
62884.46066971464,171085.0
62884.470769516374,171057.0
62884.48086931812,171093.0
62884.49096911986,171084.0
62884.50106892161,171080.0
62884.511168723344,171122.0
62884.52126852509,171071.0
62884.53136832683,171065.0
62884.54146812858,171131.0
62884.55156793032,171090.0
62884.56166773206,171102.0
62884.5717675338,171116.0
62884.581867335546,171091.0
62884.59196713729,171099.0
62884.602066939035,171127.0
62884.61216674077,171118.0
62884.622266542516,171075.0
62884.63236634426,171105.0
62884.642466146004,171108.0
62884.65256594774,171145.0
62884.662665749485,171105.0
62884.67276555123,171113.0
62884.682865352974,171097.0
62884.69296515472,171146.0
62884.703064956455,171131.0
62884.7131647582,171126.0
62884.72326455994,171102.0
62884.73336436169,171127.0
62884.74346416343,171141.0
62884.75356396517,171131.0
62884.76366376691,171123.0
62884.77376356866,171180.0
62884.7838633704,171129.0
62884.79396317214,171150.0
62884.80406297388,171170.0
62884.81416277563,171190.0
62884.82426257737,171145.0
62884.834362379115,171166.0
62884.84446218085,171158.0
62884.854561982596,171194.0
62884.86466178434,171163.0
62884.874761586085,171197.0
62884.88486138783,171178.0
62884.894961189566,171209.0
62884.90506099131,171223.0
62884.915160793054,171208.0
62884.9252605948,171227.0
62884.935360396536,171195.0
62884.94546019828,171240.0
62884.955560000024,171206.0
62884.96565980177,171219.0
62884.97575960351,171199.0
62884.98585940525,171195.0
62884.99595920699,171216.0
62885.00605900874,171247.0
62885.01615881048,171190.0
62885.026258612226,171178.0
62885.03635841396,171189.0
62885.04645821571,171174.0
62885.05655801745,171159.0
62885.066657819196,171151.0
62885.07675762093,171139.0
62885.08685742268,171160.0
62885.09695722442,171169.0
62885.107057026165,171209.0
62885.11715682791,171206.0
62885.12725662965,171203.0
62885.13735643139,171195.0
62885.147456233135,171222.0
62885.15755603488,171206.0
62885.16765583662,171214.0
62885.17775563836,171214.0
62885.187855440105,171193.0
62885.19795524185,171258.0
62885.20805504359,171228.0
62885.21815484533,171238.0
62885.228254647074,171247.0
62885.23835444882,171211.0
62885.24845425056,171237.0
62885.25855405231,171252.0
62885.268653854044,171225.0
62885.27875365579,171242.0
62885.28885345753,171234.0
62885.29895325928,171240.0
62885.30905306102,171247.0
62885.31915286276,171256.0
62885.3292526645,171237.0
62885.339352466246,171220.0
62885.34945226799,171227.0
62885.35955206973,171232.0
62885.36965187147,171250.0
62885.379751673216,171247.0
62885.38985147496,171255.0
62885.399951276704,171261.0
62885.41005107844,171260.0
62885.420150880185,171250.0
62885.43025068193,171228.0
62885.440350483674,171220.0
62885.45045028542,171241.0
62885.460550087155,171271.0
62885.4706498889,171229.0
62885.48074969064,171251.0
62885.49084949239,171261.0
62885.500949294124,171237.0
62885.51104909587,171265.0
62885.52114889761,171269.0
62885.53124869936,171247.0
62885.5413485011,171223.0
62885.55144830284,171268.0
62885.56154810458,171259.0
62885.57164790633,171242.0
62885.58174770807,171252.0
62885.591847509815,171291.0
62885.60194731155,171256.0
62885.612047113296,171230.0
62885.62214691504,171256.0
62885.632246716785,171238.0
62885.64234651852,171236.0
62885.652446320266,171261.0
62885.66254612201,171254.0
62885.672645923754,171236.0
62885.6827457255,171258.0
62885.692845527235,171289.0
62885.70294532898,171257.0
62885.713045130724,171253.0
62885.72314493247,171256.0
62885.73324473421,171226.0
62885.74334453595,171205.0
62885.75344433769,171162.0
62885.76354413944,171169.0
62885.77364394118,171171.0
62885.78374374292,171179.0
62885.79384354466,171203.0
62885.80394334641,171195.0
62885.81404314815,171158.0
62885.824142949896,171199.0
62885.83424275163,171176.0
62885.84434255338,171216.0
62885.85444235512,171183.0
62885.864542156865,171196.0
62885.87464195861,171169.0
62885.88474176035,171219.0
62885.89484156209,171153.0
62885.904941363835,171208.0
62885.91504116558,171189.0
62885.925140967316,171186.0
62885.93524076906,171200.0
62885.945340570805,171209.0
62885.95544037255,171200.0
62885.96554017429,171201.0
62885.97563997603,171201.0
62885.985739777774,171191.0
62885.99583957952,171167.0
62886.00593938126,171154.0
62886.01603918301,171156.0
62886.026138984744,171190.0
62886.03623878649,171172.0
62886.04633858823,171213.0
62886.05643838998,171179.0
62886.06653819171,171194.0
62886.07663799346,171164.0
62886.0867377952,171234.0
62886.096837596946,171181.0
62886.10693739869,171188.0
62886.11703720043,171173.0
62886.12713700217,171166.0
62886.137236803916,171165.0
62886.14733660566,171218.0
62886.157436407404,171173.0
62886.16753620914,171176.0
62886.177636010885,171192.0
62886.18773581263,171175.0
62886.19783561437,171190.0
62886.20793541611,171184.0
62886.218035217855,171209.0
62886.2281350196,171206.0
62886.23823482134,171196.0
62886.24833462309,171189.0
62886.258434424824,171176.0
62886.26853422657,171219.0
62886.27863402831,171209.0
62886.28873383006,171227.0
62886.2988336318,171191.0
62886.30893343354,171212.0
62886.31903323528,171206.0
62886.32913303703,171174.0
62886.33923283877,171153.0
62886.34933264051,171201.0
62886.35943244225,171192.0
62886.369532243996,171191.0
62886.37963204574,171201.0
62886.389731847485,171160.0
62886.39983164922,171184.0
62886.409931450966,171167.0
62886.42003125271,171179.0
62886.430131054454,171157.0
62886.4402308562,171127.0
62886.450330657935,171103.0
62886.46043045968,171088.0
62886.470530261424,171074.0
62886.48063006317,171103.0
62886.490729864905,171170.0
62886.50082966665,171109.0
62886.51092946839,171131.0
62886.52102927014,171122.0
62886.53112907188,171117.0
62886.54122887362,171120.0
62886.55132867536,171161.0
62886.56142847711,171132.0
62886.57152827885,171138.0
62886.581628080596,171176.0
62886.59172788233,171134.0
62886.60182768408,171150.0
62886.61192748582,171159.0
62886.622027287565,171151.0
62886.6321270893,171142.0
62886.64222689105,171144.0
62886.65232669279,171137.0
62886.662426494535,171119.0
62886.67252629628,171114.0
62886.682626098016,171129.0
62886.69272589976,171105.0
62886.702825701504,171127.0
62886.71292550325,171133.0
62886.72302530499,171129.0
62886.73312510673,171136.0
62886.743224908474,171105.0
62886.75332471022,171123.0
62886.76342451196,171148.0
62886.7735243137,171119.0
62886.783624115444,171112.0
62886.79372391719,171095.0
62886.80382371893,171106.0
62886.813923520676,171119.0
62886.82402332241,171155.0
62886.83412312416,171136.0
62886.8442229259,171135.0
62886.854322727646,171133.0
62886.86442252939,171115.0
62886.87452233113,171106.0
62886.88462213287,171106.0
62886.894721934616,171116.0
62886.90482173636,171151.0
62886.9149215381,171133.0
62886.92502133984,171100.0
62886.935121141585,171129.0
62886.94522094333,171144.0
62886.95532074507,171151.0
62886.96542054681,171121.0
62886.975520348555,171138.0
62886.9856201503,171128.0
62886.99571995204,171111.0
62887.00581975379,171096.0
62887.015919555524,171136.0
62887.02601935727,171151.0
62887.03611915901,171105.0
62887.04621896076,171128.0
62887.056318762494,171109.0
62887.06641856424,171104.0
62887.07651836598,171117.0
62887.08661816773,171075.0
62887.09671796947,171071.0
62887.10681777121,171047.0
62887.11691757295,171062.0
62887.127017374696,171032.0
62887.13711717644,171058.0
62887.147216978185,171088.0
62887.15731677992,171075.0
62887.167416581666,171074.0
62887.17751638341,171075.0
62887.187616185154,171077.0
62887.19771598689,171055.0
62887.207815788635,171057.0
62887.21791559038,171061.0
62887.228015392124,171071.0
62887.23811519387,171077.0
62887.248214995605,171105.0
62887.25831479735,171123.0
62887.26841459909,171115.0
62887.27851440084,171130.0
62887.28861420258,171096.0
62887.29871400432,171108.0
62887.30881380606,171096.0
62887.31891360781,171082.0
62887.32901340955,171061.0
62887.33911321129,171077.0
62887.34921301303,171064.0
62887.35931281478,171076.0
62887.36941261652,171073.0
62887.379512418265,171035.0
62887.38961222,171062.0
62887.39971202175,171060.0
62887.40981182349,171065.0
62887.419911625235,171037.0
62887.43001142698,171069.0
62887.440111228716,171077.0
62887.45021103046,171077.0
62887.460310832204,171089.0
62887.47041063395,171070.0
62887.480510435686,171074.0
62887.49061023743,171039.0
62887.500710039174,171083.0
62887.51080984092,171076.0
62887.52090964266,171066.0
62887.5310094444,171061.0
62887.54110924614,171084.0
62887.55120904789,171093.0
62887.56130884963,171113.0
62887.571408651376,171066.0
62887.58150845311,171072.0
62887.59160825486,171087.0
62887.6017080566,171088.0
62887.611807858346,171103.0
62887.62190766008,171077.0
62887.63200746183,171088.0
62887.64210726357,171105.0
62887.652207065315,171092.0
62887.66230686706,171086.0
62887.6724066688,171083.0
62887.68250647054,171105.0
62887.692606272285,171067.0
62887.70270607403,171083.0
62887.712805875766,171066.0
62887.72290567751,171050.0
62887.733005479255,171053.0
62887.743105281,171075.0
62887.75320508274,171009.0
62887.76330488448,171020.0
62887.773404686224,170993.0
62887.78350448797,171001.0
62887.79360428971,170999.0
62887.80370409146,171011.0
62887.813803893194,171020.0
62887.82390369494,170992.0
62887.83400349668,171026.0
62887.84410329843,171017.0
62887.85420310016,171031.0
62887.86430290191,171035.0
62887.87440270365,171049.0
62887.884502505396,171052.0
62887.89460230714,171058.0
62887.90470210888,171079.0
62887.91480191062,171074.0
62887.924901712366,171075.0
62887.93500151411,171037.0
62887.945101315854,171059.0
62887.95520111759,171049.0
62887.965300919335,171056.0
62887.97540072108,171035.0
62887.985500522824,171052.0
62887.99560032456,171058.0
62888.005700126305,171048.0
62888.01579992805,171028.0
62888.02589972979,171031.0
62888.03599953154,171075.0
62888.046099333274,171063.0
62888.05619913502,171071.0
62888.06629893676,171095.0
62888.07639873851,171074.0
62888.08649854025,171089.0
62888.09659834199,171069.0
62888.10669814373,171093.0
62888.11679794548,171079.0
62888.12689774722,171071.0
62888.13699754896,171048.0
62888.1470973507,171046.0
62888.157197152446,171087.0
62888.16729695419,171087.0
62888.177396755935,171099.0
62888.18749655767,171049.0
62888.197596359416,171078.0
62888.20769616116,171085.0
62888.217795962904,171060.0
62888.22789576465,171063.0
62888.237995566386,171084.0
62888.24809536813,171110.0
62888.258195169874,171126.0
62888.26829497162,171145.0
62888.278394773355,171096.0
62888.2884945751,171094.0
62888.29859437684,171131.0
62888.30869417859,171124.0
62888.31879398033,171133.0
62888.32889378207,171117.0
62888.33899358381,171122.0
62888.34909338556,171105.0
62888.3591931873,171111.0
62888.369292989046,171050.0
62888.37939279078,171090.0
62888.38949259253,171064.0
62888.39959239427,171085.0
62888.409692196015,171083.0
62888.41979199775,171059.0
62888.4298917995,171035.0
62888.43999160124,171006.0
62888.450091402985,171032.0
62888.46019120473,171041.0
62888.470291006466,171054.0
62888.48039080821,171038.0
62888.490490609955,171024.0
62888.5005904117,171075.0
62888.51069021344,171067.0
62888.52079001518,171070.0
62888.530889816924,171051.0
62888.54098961867,171067.0
62888.55108942041,171035.0
62888.56118922215,171102.0
62888.571289023894,171055.0
62888.58138882564,171047.0
62888.59148862738,171035.0
62888.60158842913,171058.0
62888.61168823086,171066.0
62888.62178803261,171056.0
62888.63188783435,171079.0
62888.641987636096,171046.0
62888.65208743784,171076.0
62888.66218723958,171065.0
62888.67228704132,171090.0
62888.682386843066,171049.0
62888.69248664481,171044.0
62888.70258644655,171064.0
62888.71268624829,171060.0
62888.722786050035,171029.0
62888.73288585178,171033.0
62888.742985653524,171063.0
62888.75308545526,171014.0
62888.763185257005,171071.0
62888.77328505875,171036.0
62888.78338486049,171043.0
62888.79348466224,171013.0
62888.803584463974,171022.0
62888.81368426572,171075.0
62888.82378406746,171091.0
62888.83388386921,171056.0
62888.843983670944,171030.0
62888.85408347269,171098.0
62888.86418327443,171060.0
62888.87428307618,171069.0
62888.88438287792,171044.0
62888.89448267966,171036.0
62888.9045824814,171061.0
62888.914682283146,171065.0
62888.92478208489,171068.0
62888.934881886635,171046.0
62888.94498168837,171109.0
62888.955081490116,171087.0
62888.96518129186,171058.0
62888.975281093604,171066.0
62888.98538089534,171077.0
62888.995480697085,171066.0
62889.00558049883,171060.0
62889.015680300574,171061.0
62889.02578010232,171018.0
62889.035879904055,171049.0
62889.0459797058,171073.0
62889.05607950754,171068.0
62889.06617930929,170993.0
62889.07627911103,171012.0
62889.08637891277,170966.0
62889.09647871451,170958.0
62889.10657851626,170976.0
62889.116678318,170969.0
62889.12677811974,170993.0
62889.13687792148,170959.0
62889.14697772323,170992.0
62889.15707752497,170988.0
62889.167177326715,170996.0
62889.17727712845,171004.0
62889.1873769302,170996.0
62889.19747673194,171001.0
62889.207576533685,170995.0
62889.21767633543,170976.0
62889.227776137166,170989.0
62889.23787593891,170992.0
62889.247975740655,171036.0
62889.2580755424,171021.0
62889.268175344136,170982.0
62889.27827514588,171024.0
62889.288374947624,170999.0
62889.29847474937,170984.0
62889.30857455111,171020.0
62889.31867435285,170992.0
62889.328774154594,170986.0
62889.33887395634,170958.0
62889.34897375808,170994.0
62889.359073559826,170972.0
62889.36917336156,170987.0
62889.37927316331,170988.0
62889.38937296505,170980.0
62889.399472766796,170993.0
62889.40957256853,170995.0
62889.41967237028,171016.0
62889.42977217202,170967.0
62889.439871973766,171014.0
62889.44997177551,170999.0
62889.46007157725,170990.0
62889.47017137899,170995.0
62889.480271180735,170984.0
62889.49037098248,171002.0
62889.50047078422,171030.0
62889.51057058596,171024.0
62889.520670387705,171001.0
62889.53077018945,171012.0
62889.54086999119,171012.0
62889.55096979293,171018.0
62889.561069594674,170990.0
62889.57116939642,171016.0
62889.58126919816,171019.0
62889.59136899991,170992.0
62889.601468801644,171006.0
62889.61156860339,171008.0
62889.62166840513,171023.0
62889.63176820688,170994.0
62889.64186800862,171040.0
62889.65196781036,171014.0
62889.6620676121,170991.0
62889.672167413846,171004.0
62889.68226721559,171028.0
62889.69236701733,171015.0
62889.70246681907,171004.0
62889.712566620816,171036.0
62889.72266642256,170996.0
62889.732766224304,171004.0
62889.74286602604,171005.0
62889.752965827785,171004.0
62889.76306562953,170943.0
62889.773165431274,170948.0
62889.78326523302,170944.0
62889.793365034755,170899.0
62889.8034648365,170916.0
62889.81356463824,170918.0
62889.82366443999,170945.0
62889.833764241725,170890.0
62889.84386404347,170939.0
62889.85396384521,170930.0
62889.86406364696,170915.0
62889.8741634487,170925.0
62889.88426325044,170931.0
62889.89436305218,170898.0
62889.90446285393,170938.0
62889.91456265567,170933.0
62889.924662457415,170897.0
62889.93476225915,170912.0
62889.9448620609,170922.0
62889.95496186264,170950.0
62889.965061664385,170888.0
62889.97516146612,170955.0
62889.985261267866,170909.0
62889.99536106961,170918.0
62890.005460871354,170903.0
62890.0155606731,170917.0
62890.025660474836,170912.0
62890.03576027658,170868.0
62890.045860078324,170913.0
62890.05595988007,170876.0
62890.06605968181,170885.0
62890.07615948355,170911.0
62890.08625928529,170914.0
62890.09635908704,170878.0
62890.10645888878,170908.0
62890.11655869052,170907.0
62890.12665849226,170900.0
62890.13675829401,170902.0
62890.14685809575,170905.0
62890.156957897496,170900.0
62890.16705769923,170883.0
62890.17715750098,170893.0
62890.18725730272,170898.0
62890.197357104465,170896.0
62890.20745690621,170896.0
62890.21755670795,170913.0
62890.22765650969,170908.0
62890.237756311435,170886.0
62890.24785611318,170929.0
62890.257955914916,170891.0
62890.26805571666,170922.0
62890.278155518405,170918.0
62890.28825532015,170931.0
62890.29835512189,170886.0
62890.30845492363,170905.0
62890.318554725374,170885.0
62890.32865452712,170875.0
62890.33875432886,170914.0
62890.34885413061,170901.0
62890.358953932344,170932.0
62890.36905373409,170896.0
62890.37915353583,170943.0
62890.38925333758,170921.0
62890.39935313931,170936.0
62890.40945294106,170919.0
62890.4195527428,170922.0
62890.429652544546,170921.0
62890.43975234629,170918.0
62890.44985214803,170888.0
62890.45995194977,170894.0
62890.470051751516,170897.0
62890.48015155326,170903.0
62890.490251355004,170897.0
62890.50035115674,170823.0
62890.510450958485,170866.0
62890.52055076023,170817.0
62890.530650561974,170804.0
62890.54075036371,170849.0
62890.550850165455,170837.0
62890.5609499672,170814.0
62890.57104976894,170803.0
62890.58114957069,170825.0
62890.591249372424,170814.0
62890.60134917417,170813.0
62890.61144897591,170807.0
62890.62154877766,170782.0
62890.6316485794,170783.0
62890.64174838114,170807.0
62890.65184818288,170787.0
62890.66194798463,170790.0
62890.67204778637,170804.0
62890.68214758811,170834.0
62890.69224738985,170835.0
62890.702347191596,170805.0
62890.71244699334,170829.0
62890.722546795085,170801.0
62890.73264659682,170772.0
62890.742746398566,170826.0
62890.75284620031,170816.0
62890.762946002054,170789.0
62890.7730458038,170778.0
62890.783145605536,170810.0
62890.79324540728,170793.0
62890.803345209024,170792.0
62890.81344501077,170784.0
62890.823544812505,170777.0
62890.83364461425,170779.0
62890.84374441599,170802.0
62890.85384421774,170812.0
62890.86394401948,170768.0
62890.87404382122,170795.0
62890.88414362296,170801.0
62890.89424342471,170803.0
62890.90434322645,170766.0
62890.914443028196,170825.0
62890.92454282993,170803.0
62890.93464263168,170772.0
62890.94474243342,170822.0
62890.954842235165,170779.0
62890.9649420369,170779.0
62890.97504183865,170802.0
62890.98514164039,170827.0
62890.995241442135,170803.0
62891.00534124388,170794.0
62891.015441045616,170801.0
62891.02554084736,170828.0
62891.035640649105,170784.0
62891.04574045085,170782.0
62891.05584025259,170789.0
62891.06594005433,170779.0
62891.076039856074,170781.0
62891.08613965782,170795.0
62891.09623945956,170774.0
62891.1063392613,170777.0
62891.116439063044,170812.0
62891.12653886479,170772.0
62891.13663866653,170806.0
62891.14673846828,170802.0
62891.15683827001,170792.0
62891.16693807176,170768.0
62891.1770378735,170808.0
62891.187137675246,170817.0
62891.19723747699,170787.0
62891.20733727873,170817.0
62891.21743708047,170793.0
62891.227536882216,170829.0
62891.23763668396,170781.0
62891.2477364857,170805.0
62891.25783628744,170759.0
62891.267936089185,170750.0
62891.27803589093,170746.0
62891.288135692674,170707.0
62891.29823549441,170713.0
62891.308335296155,170672.0
62891.3184350979,170702.0
62891.32853489964,170677.0
62891.33863470139,170683.0
62891.348734503124,170711.0
62891.35883430487,170685.0
62891.36893410661,170652.0
62891.37903390836,170701.0
62891.389133710094,170710.0
62891.39923351184,170707.0
62891.40933331358,170700.0
62891.41943311533,170697.0
62891.42953291707,170643.0
62891.43963271881,170693.0
62891.44973252055,170700.0
62891.459832322296,170685.0
62891.46993212404,170660.0
62891.480031925785,170696.0
62891.49013172752,170681.0
62891.500231529266,170663.0
62891.51033133101,170725.0
62891.520431132754,170710.0
62891.53053093449,170684.0
62891.540630736235,170692.0
62891.55073053798,170688.0
62891.560830339724,170657.0
62891.57093014147,170645.0
62891.581029943205,170651.0
62891.59112974495,170666.0
62891.60122954669,170664.0
62891.61132934844,170685.0
62891.62142915018,170658.0
62891.63152895192,170650.0
62891.64162875366,170666.0
62891.65172855541,170683.0
62891.66182835715,170658.0
62891.67192815889,170668.0
62891.68202796063,170668.0
62891.69212776238,170677.0
62891.70222756412,170665.0
62891.712327365865,170689.0
62891.7224271676,170709.0
62891.73252696935,170692.0
62891.74262677109,170699.0
62891.752726572835,170683.0
62891.76282637457,170693.0
62891.772926176316,170664.0
62891.78302597806,170729.0
62891.793125779805,170679.0
62891.80322558155,170684.0
62891.813325383286,170676.0
62891.82342518503,170677.0
62891.833524986774,170699.0
62891.84362478852,170697.0
62891.85372459026,170725.0
62891.863824392,170692.0
62891.873924193744,170708.0
62891.88402399549,170693.0
62891.89412379723,170700.0
62891.90422359897,170687.0
62891.91432340071,170722.0
62891.92442320246,170688.0
62891.9345230042,170720.0
62891.944622805946,170726.0
62891.95472260768,170704.0
62891.96482240943,170697.0
62891.97492221117,170717.0
62891.985022012916,170695.0
62891.99512181466,170741.0
62892.0052216164,170738.0
62892.01532141814,170710.0
62892.025421219885,170706.0
62892.03552102163,170713.0
62892.045620823366,170770.0
62892.05572062511,170757.0
62892.065820426855,170703.0
62892.0759202286,170701.0
62892.08602003034,170719.0
62892.09611983208,170712.0
62892.106219633824,170708.0
62892.11631943557,170699.0
62892.12641923731,170682.0
62892.13651903906,170679.0
62892.146618840794,170622.0
62892.15671864254,170637.0
62892.16681844428,170646.0
62892.17691824603,170620.0
62892.18701804776,170639.0
62892.19711784951,170672.0
62892.20721765125,170660.0
62892.217317452996,170668.0
62892.22741725474,170654.0
62892.23751705648,170651.0
62892.24761685822,170679.0
62892.257716659966,170684.0
62892.26781646171,170690.0
62892.277916263454,170656.0
62892.28801606519,170689.0
62892.298115866935,170656.0
62892.30821566868,170690.0
62892.318315470424,170687.0
62892.32841527216,170687.0
62892.338515073905,170678.0
62892.34861487565,170675.0
62892.35871467739,170707.0
62892.36881447914,170684.0
62892.378914280875,170656.0
62892.38901408262,170659.0
62892.39911388436,170701.0
62892.40921368611,170673.0
62892.41931348785,170694.0
62892.42941328959,170652.0
62892.43951309133,170659.0
62892.44961289308,170668.0
62892.45971269482,170663.0
62892.46981249656,170685.0
62892.4799122983,170649.0
62892.49001210005,170699.0
62892.50011190179,170678.0
62892.510211703535,170688.0
62892.52031150527,170700.0
62892.530411307016,170690.0
62892.54051110876,170678.0
62892.550610910504,170681.0
62892.56071071225,170700.0
62892.570810513986,170672.0
62892.58091031573,170638.0
62892.591010117474,170688.0
62892.60110991922,170679.0
62892.611209720955,170689.0
62892.6213095227,170686.0
62892.631409324444,170706.0
62892.64150912619,170666.0
62892.65160892793,170707.0
62892.66170872967,170697.0
62892.67180853141,170679.0
62892.68190833316,170669.0
62892.6920081349,170687.0
62892.702107936646,170673.0
62892.71220773838,170638.0
62892.72230754013,170671.0
62892.73240734187,170640.0
62892.742507143616,170660.0
62892.75260694535,170661.0
62892.7627067471,170680.0
62892.77280654884,170629.0
62892.782906350585,170654.0
62892.79300615233,170675.0
62892.803105954066,170648.0
62892.81320575581,170688.0
62892.823305557555,170652.0
62892.8334053593,170692.0
62892.84350516104,170638.0
62892.85360496278,170706.0
62892.863704764524,170657.0
62892.87380456627,170658.0
62892.88390436801,170664.0
62892.89400416975,170678.0
62892.904103971494,170674.0
62892.91420377324,170640.0
62892.92430357498,170651.0
62892.93440337673,170665.0
62892.94450317846,170668.0
62892.95460298021,170665.0
62892.96470278195,170643.0
62892.974802583696,170597.0
62892.98490238544,170621.0
62892.99500218718,170619.0
62893.00510198892,170593.0
62893.015201790666,170591.0
62893.02530159241,170603.0
62893.03540139415,170616.0
62893.04550119589,170578.0
62893.055600997635,170629.0
62893.06570079938,170620.0
62893.075800601124,170613.0
62893.08590040286,170612.0
62893.096000204605,170617.0
62893.10610000635,170602.0
62893.11619980809,170556.0
62893.12629960984,170570.0
62893.136399411575,170579.0
62893.14649921332,170593.0
62893.15659901506,170597.0
62893.16669881681,170593.0
62893.176798618544,170585.0
62893.18689842029,170616.0
62893.19699822203,170605.0
62893.20709802378,170603.0
62893.21719782552,170631.0
62893.22729762726,170631.0
62893.237397429,170631.0
62893.24749723075,170607.0
62893.25759703249,170633.0
62893.267696834235,170596.0
62893.27779663597,170604.0
62893.287896437716,170612.0
62893.29799623946,170585.0
62893.308096041204,170613.0
62893.31819584294,170606.0
62893.328295644686,170621.0
62893.33839544643,170612.0
62893.348495248174,170626.0
62893.35859504992,170637.0
62893.368694851655,170655.0
62893.3787946534,170623.0
62893.38889445514,170634.0
62893.39899425689,170628.0
62893.40909405863,170638.0
62893.41919386037,170681.0
62893.42929366211,170656.0
62893.43939346386,170645.0
62893.4494932656,170620.0
62893.45959306734,170672.0
62893.46969286908,170625.0
62893.47979267083,170631.0
62893.48989247257,170641.0
62893.499992274315,170652.0
62893.51009207605,170646.0
62893.5201918778,170654.0
62893.53029167954,170669.0
62893.540391481285,170603.0
62893.55049128303,170661.0
62893.560591084766,170642.0
62893.57069088651,170655.0
62893.580790688255,170643.0
62893.59089049,170617.0
62893.600990291736,170649.0
62893.61109009348,170628.0
62893.621189895224,170669.0
62893.63128969697,170640.0
62893.64138949871,170627.0
62893.65148930045,170631.0
62893.661589102194,170651.0
62893.67168890394,170644.0
62893.68178870568,170652.0
62893.69188850743,170657.0
62893.70198830916,170639.0
62893.71208811091,170640.0
62893.72218791265,170673.0
62893.732287714396,170650.0
62893.74238751613,170622.0
62893.75248731788,170661.0
62893.76258711962,170655.0
62893.772686921366,170658.0
62893.78278672311,170643.0
62893.79288652485,170609.0
62893.80298632659,170630.0
62893.813086128335,170640.0
62893.82318593008,170653.0
62893.833285731824,170590.0
62893.84338553356,170606.0
62893.853485335305,170577.0
62893.86358513705,170543.0
62893.87368493879,170530.0
62893.88378474053,170541.0
62893.893884542274,170547.0
62893.90398434402,170565.0
62893.91408414576,170557.0
62893.92418394751,170574.0
62893.934283749244,170551.0
62893.94438355099,170554.0
62893.95448335273,170591.0
62893.96458315448,170555.0
62893.97468295622,170582.0
62893.98478275796,170548.0
62893.9948825597,170568.0
62894.004982361446,170559.0
62894.01508216319,170580.0
62894.02518196493,170623.0
62894.03528176667,170572.0
62894.045381568416,170571.0
62894.05548137016,170576.0
62894.065581171904,170566.0
62894.07568097364,170547.0
62894.085780775386,170587.0
62894.09588057713,170576.0
62894.105980378874,170596.0
62894.11608018062,170576.0
62894.126179982355,170545.0
62894.1362797841,170586.0
62894.14637958584,170580.0
62894.15647938759,170600.0
62894.166579189325,170549.0
62894.17667899107,170561.0
62894.18677879281,170586.0
62894.19687859456,170597.0
62894.2069783963,170563.0
62894.21707819804,170593.0
62894.22717799978,170593.0
62894.23727780153,170583.0
62894.24737760327,170613.0
62894.257477405015,170601.0
62894.26757720675,170607.0
62894.2776770085,170602.0
62894.28777681024,170600.0
62894.297876611985,170610.0
62894.30797641372,170603.0
62894.318076215466,170603.0
62894.32817601721,170586.0
62894.338275818955,170594.0
62894.3483756207,170630.0
62894.358475422436,170649.0
62894.36857522418,170627.0
62894.378675025924,170620.0
62894.38877482767,170633.0
62894.39887462941,170639.0
62894.40897443115,170612.0
62894.419074232894,170647.0
62894.42917403464,170630.0
62894.43927383638,170638.0
62894.44937363812,170669.0
62894.45947343986,170631.0
62894.46957324161,170652.0
62894.47967304335,170648.0
62894.489772845096,170658.0
62894.49987264683,170648.0
62894.50997244858,170666.0
62894.52007225032,170641.0
62894.530172052066,170640.0
62894.54027185381,170657.0
62894.55037165555,170678.0
62894.56047145729,170677.0
62894.570571259035,170647.0
62894.58067106078,170640.0
62894.59077086252,170691.0
62894.60087066426,170665.0
62894.610970466005,170626.0
62894.62107026775,170672.0
62894.63117006949,170659.0
62894.64126987123,170701.0
62894.651369672974,170700.0
62894.66146947472,170657.0
62894.67156927646,170681.0
62894.68166907821,170663.0
62894.691768879944,170693.0
62894.70186868169,170653.0
62894.71196848343,170615.0
62894.72206828518,170624.0
62894.73216808691,170552.0
62894.74226788866,170546.0
62894.7523676904,170553.0
62894.762467492146,170591.0
62894.77256729389,170597.0
62894.78266709563,170619.0
62894.79276689737,170622.0
62894.802866699116,170611.0
62894.81296650086,170576.0
62894.823066302604,170620.0
62894.83316610434,170600.0
62894.843265906085,170604.0
62894.85336570783,170583.0
62894.863465509574,170586.0
62894.87356531131,170580.0
62894.883665113055,170607.0
62894.8937649148,170612.0
62894.90386471654,170612.0
62894.91396451829,170650.0
62894.924064320025,170632.0
62894.93416412177,170646.0
62894.94426392351,170622.0
62894.95436372526,170630.0
62894.964463527,170646.0
62894.97456332874,170643.0
62894.98466313048,170648.0
62894.99476293223,170620.0
62895.00486273397,170634.0
62895.01496253571,170601.0
62895.02506233745,170654.0
62895.0351621392,170659.0
62895.04526194094,170667.0
62895.055361742685,170663.0
62895.06546154442,170630.0
62895.075561346166,170654.0
62895.08566114791,170656.0
62895.095760949655,170662.0
62895.1058607514,170678.0
62895.115960553136,170655.0
62895.12606035488,170687.0
62895.136160156624,170675.0
62895.14625995837,170646.0
62895.156359760105,170646.0
62895.16645956185,170687.0
62895.176559363594,170717.0
62895.18665916534,170678.0
62895.19675896708,170722.0
62895.20685876882,170706.0
62895.21695857056,170703.0
62895.22705837231,170720.0
62895.23715817405,170715.0
62895.247257975796,170697.0
62895.25735777753,170750.0
62895.26745757928,170716.0
62895.27755738102,170711.0
62895.287657182766,170726.0
62895.2977569845,170733.0
62895.30785678625,170735.0
62895.31795658799,170730.0
62895.328056389735,170765.0
62895.33815619148,170759.0
62895.348255993216,170751.0
62895.35835579496,170760.0
62895.368455596705,170755.0
62895.37855539845,170766.0
62895.38865520019,170779.0
62895.39875500193,170789.0
62895.408854803674,170795.0
62895.41895460542,170767.0
62895.42905440716,170796.0
62895.4391542089,170791.0
62895.449254010644,170787.0
62895.45935381239,170792.0
62895.46945361413,170818.0
62895.47955341588,170811.0
62895.48965321761,170801.0
62895.49975301936,170798.0
62895.5098528211,170807.0
62895.519952622846,170773.0
62895.53005242459,170838.0
62895.54015222633,170774.0
62895.55025202807,170765.0
62895.560351829816,170761.0
62895.57045163156,170728.0
62895.5805514333,170727.0
62895.59065123504,170715.0
62895.600751036785,170722.0
62895.61085083853,170714.0
62895.620950640274,170716.0
62895.63105044201,170730.0
62895.641150243755,170718.0
62895.6512500455,170745.0
62895.66134984724,170759.0
62895.67144964899,170713.0
62895.681549450725,170737.0
62895.69164925247,170773.0
62895.70174905421,170747.0
62895.71184885596,170760.0
62895.721948657694,170756.0
62895.73204845944,170746.0
62895.74214826118,170759.0
62895.75224806293,170747.0
62895.76234786467,170775.0
62895.77244766641,170785.0
62895.78254746815,170774.0
62895.7926472699,170805.0
62895.80274707164,170797.0
62895.81284687338,170785.0
62895.82294667512,170805.0
62895.833046476866,170782.0
62895.84314627861,170757.0
62895.853246080354,170784.0
62895.86334588209,170808.0
62895.873445683836,170801.0
62895.88354548558,170769.0
62895.893645287324,170809.0
62895.90374508907,170790.0
62895.913844890805,170796.0
62895.92394469255,170801.0
62895.93404449429,170765.0
62895.94414429604,170757.0
62895.954244097775,170777.0
62895.96434389952,170815.0
62895.97444370126,170770.0
62895.98454350301,170781.0
62895.99464330475,170785.0
62896.00474310649,170758.0
62896.01484290823,170799.0
62896.02494270998,170809.0
62896.03504251172,170801.0
62896.045142313465,170786.0
62896.0552421152,170820.0
62896.06534191695,170806.0
62896.07544171869,170804.0
62896.085541520435,170784.0
62896.09564132217,170831.0
62896.105741123916,170779.0
62896.11584092566,170791.0
62896.125940727405,170820.0
62896.13604052915,170782.0
62896.146140330886,170778.0
62896.15624013263,170808.0
62896.166339934374,170819.0
62896.17643973612,170826.0
62896.18653953786,170829.0
62896.1966393396,170813.0
62896.206739141344,170774.0
62896.21683894309,170790.0
62896.22693874483,170826.0
62896.23703854657,170816.0
62896.24713834831,170780.0
62896.25723815006,170844.0
62896.2673379518,170811.0
62896.277437753546,170823.0
62896.28753755528,170819.0
62896.29763735703,170839.0
62896.30773715877,170818.0
62896.317836960516,170827.0
62896.32793676226,170849.0
62896.338036564,170804.0
62896.34813636574,170793.0
62896.358236167485,170818.0
62896.36833596923,170807.0
62896.37843577097,170777.0
62896.38853557271,170796.0
62896.398635374455,170739.0
62896.4087351762,170750.0
62896.41883497794,170703.0
62896.42893477968,170717.0
62896.439034581424,170714.0
62896.44913438317,170733.0
62896.45923418491,170746.0
62896.46933398666,170713.0
62896.479433788394,170752.0
62896.48953359014,170747.0
62896.49963339188,170748.0
62896.50973319363,170725.0
62896.519832995364,170770.0
62896.52993279711,170737.0
62896.54003259885,170724.0
62896.550132400596,170724.0
62896.56023220234,170780.0
62896.57033200408,170764.0
62896.58043180582,170754.0
62896.590531607566,170785.0
62896.60063140931,170713.0
62896.610731211054,170750.0
62896.62083101279,170725.0
62896.630930814536,170773.0
62896.64103061628,170767.0
62896.651130418024,170767.0
62896.66123021976,170756.0
62896.671330021505,170757.0
62896.68142982325,170779.0
62896.69152962499,170759.0
62896.70162942674,170781.0
62896.711729228475,170754.0
62896.72182903022,170799.0
62896.73192883196,170753.0
62896.74202863371,170737.0
62896.75212843545,170735.0
62896.76222823719,170791.0
62896.77232803893,170768.0
62896.78242784068,170753.0
62896.79252764242,170802.0
62896.80262744416,170747.0
62896.8127272459,170787.0
62896.82282704765,170756.0
62896.83292684939,170817.0
62896.843026651135,170761.0
62896.85312645287,170795.0
62896.863226254616,170782.0
62896.87332605636,170760.0
62896.883425858105,170758.0
62896.89352565985,170780.0
62896.903625461586,170794.0
62896.91372526333,170782.0
62896.923825065074,170817.0
62896.93392486682,170777.0
62896.944024668555,170800.0
62896.9541244703,170766.0
62896.964224272044,170821.0
62896.97432407379,170805.0
62896.98442387553,170799.0
62896.99452367727,170761.0
62897.00462347901,170771.0
62897.01472328076,170754.0
62897.0248230825,170792.0
62897.034922884246,170848.0
62897.04502268598,170784.0
62897.05512248773,170851.0
62897.06522228947,170821.0
62897.075322091216,170788.0
62897.08542189295,170832.0
62897.0955216947,170793.0
62897.10562149644,170818.0
62897.115721298185,170793.0
62897.12582109993,170806.0
62897.13592090167,170763.0
62897.14602070341,170763.0
62897.156120505155,170723.0
62897.1662203069,170764.0
62897.17632010864,170751.0
62897.18641991038,170723.0
62897.196519712124,170698.0
62897.20661951387,170718.0
62897.21671931561,170706.0
62897.22681911735,170726.0
62897.236918919094,170726.0
62897.24701872084,170692.0
62897.25711852258,170723.0
62897.26721832433,170710.0
62897.27731812606,170684.0
62897.28741792781,170697.0
62897.29751772955,170740.0
62897.307617531296,170720.0
62897.31771733304,170723.0
62897.32781713478,170748.0
62897.33791693652,170733.0
62897.348016738266,170728.0
62897.35811654001,170720.0
62897.36821634175,170737.0
62897.37831614349,170713.0
62897.388415945235,170740.0
62897.39851574698,170694.0
62897.408615548724,170683.0
62897.41871535046,170727.0
62897.428815152205,170701.0
62897.43891495395,170728.0
62897.44901475569,170733.0
62897.45911455744,170748.0
62897.469214359175,170699.0
62897.47931416092,170729.0
62897.48941396266,170740.0
62897.49951376441,170737.0
62897.509613566144,170737.0
62897.51971336789,170737.0
62897.52981316963,170697.0
62897.53991297138,170685.0
62897.55001277312,170711.0
62897.56011257486,170717.0
62897.5702123766,170724.0
62897.58031217835,170714.0
62897.59041198009,170735.0
62897.600511781835,170723.0
62897.61061158357,170703.0
62897.620711385316,170737.0
62897.63081118706,170725.0
62897.640910988805,170738.0
62897.65101079054,170754.0
62897.661110592286,170765.0
62897.67121039403,170706.0
62897.681310195774,170749.0
62897.69140999752,170697.0
62897.701509799255,170755.0
62897.711609601,170753.0
62897.721709402744,170746.0
62897.73180920449,170746.0
62897.74190900623,170734.0
62897.75200880797,170728.0
62897.76210860971,170761.0
62897.77220841146,170791.0
62897.7823082132,170748.0
62897.79240801494,170799.0
62897.80250781668,170754.0
62897.81260761843,170743.0
62897.82270742017,170782.0
62897.832807221916,170790.0
62897.84290702365,170758.0
62897.8530068254,170734.0
62897.86310662714,170770.0
62897.873206428885,170719.0
62897.88330623063,170726.0
62897.893406032366,170690.0
62897.90350583411,170728.0
62897.913605635855,170681.0
62897.9237054376,170692.0
62897.933805239336,170667.0
62897.94390504108,170674.0
62897.954004842824,170647.0
62897.96410464457,170712.0
62897.97420444631,170688.0
62897.98430424805,170676.0
62897.994404049794,170709.0
62898.00450385154,170715.0
62898.01460365328,170686.0
62898.02470345503,170711.0
62898.03480325676,170710.0
62898.04490305851,170703.0
62898.05500286025,170696.0
62898.065102661996,170663.0
62898.07520246373,170685.0
62898.08530226548,170698.0
62898.09540206722,170715.0
62898.105501868966,170747.0
62898.11560167071,170738.0
62898.12570147245,170742.0
62898.13580127419,170725.0
62898.145901075935,170711.0
62898.15600087768,170687.0
62898.166100679424,170731.0
62898.17620048116,170713.0
62898.186300282905,170737.0
62898.19640008465,170709.0
62898.20649988639,170668.0
62898.21659968813,170709.0
62898.226699489875,170722.0
62898.23679929162,170739.0
62898.24689909336,170734.0
62898.25699889511,170724.0
62898.267098696844,170725.0
62898.27719849859,170737.0
62898.28729830033,170688.0
62898.29739810208,170720.0
62898.30749790382,170738.0
62898.31759770556,170736.0
62898.3276975073,170717.0
62898.33779730905,170703.0
62898.34789711079,170686.0
62898.35799691253,170714.0
62898.36809671427,170766.0
62898.378196516016,170734.0
62898.38829631776,170731.0
62898.398396119504,170731.0
62898.40849592124,170712.0
62898.418595722986,170717.0
62898.42869552473,170722.0
62898.438795326474,170735.0
62898.44889512822,170730.0
62898.458994929955,170755.0
62898.4690947317,170710.0
62898.479194533444,170728.0
62898.48929433519,170719.0
62898.499394136925,170735.0
62898.50949393867,170745.0
62898.51959374041,170762.0
62898.52969354216,170752.0
62898.5397933439,170771.0
62898.54989314564,170738.0
62898.55999294738,170743.0
62898.57009274913,170743.0
62898.58019255087,170727.0
62898.590292352616,170684.0
62898.60039215435,170695.0
62898.6104919561,170691.0
62898.62059175784,170637.0
62898.630691559585,170649.0
62898.64079136132,170662.0
62898.650891163066,170640.0
62898.66099096481,170682.0
62898.671090766555,170666.0
62898.6811905683,170674.0
62898.691290370036,170661.0
62898.70139017178,170663.0
62898.711489973524,170669.0
62898.72158977527,170693.0
62898.73168957701,170680.0
62898.74178937875,170615.0
62898.751889180494,170677.0
62898.76198898224,170705.0
62898.77208878398,170703.0
62898.78218858572,170700.0
62898.79228838746,170699.0
62898.80238818921,170680.0
62898.81248799095,170724.0
62898.822587792696,170707.0
62898.83268759443,170698.0
62898.84278739618,170701.0
62898.85288719792,170679.0
62898.862986999666,170701.0
62898.87308680141,170696.0
62898.88318660315,170727.0
62898.89328640489,170692.0
62898.903386206635,170685.0
62898.91348600838,170690.0
62898.92358581012,170689.0
62898.93368561186,170685.0
62898.943785413605,170661.0
62898.95388521535,170683.0
62898.96398501709,170693.0
62898.97408481883,170722.0
62898.984184620575,170685.0
62898.99428442232,170684.0
62899.00438422406,170729.0
62899.01448402581,170708.0
62899.024583827544,170672.0
62899.03468362929,170657.0
62899.04478343103,170684.0
62899.05488323278,170697.0
62899.064983034514,170698.0
62899.07508283626,170674.0
62899.085182638,170692.0
62899.09528243975,170685.0
62899.10538224149,170706.0
62899.11548204323,170708.0
62899.12558184497,170690.0
62899.135681646716,170665.0
62899.14578144846,170702.0
62899.155881250204,170739.0
62899.16598105194,170717.0
62899.176080853686,170729.0
62899.18618065543,170698.0
62899.196280457174,170712.0
62899.20638025891,170699.0
62899.216480060655,170727.0
62899.2265798624,170697.0
62899.23667966414,170717.0
62899.24677946589,170697.0
62899.256879267625,170647.0
62899.26697906937,170670.0
62899.27707887111,170633.0
62899.28717867286,170654.0
62899.2972784746,170615.0
62899.30737827634,170621.0
62899.31747807808,170613.0
62899.32757787983,170601.0
62899.33767768157,170595.0
62899.34777748331,170577.0
62899.35787728505,170604.0
62899.3679770868,170614.0
62899.37807688854,170618.0
62899.388176690285,170582.0
62899.39827649202,170624.0
62899.408376293766,170628.0
62899.41847609551,170636.0
62899.428575897255,170577.0
62899.438675699,170638.0
62899.448775500736,170622.0
62899.45887530248,170620.0
62899.468975104224,170660.0
62899.47907490597,170633.0
62899.489174707705,170661.0
62899.49927450945,170638.0
62899.509374311194,170659.0
62899.51947411294,170658.0
62899.52957391468,170685.0
62899.53967371642,170682.0
62899.54977351816,170649.0
62899.55987331991,170648.0
62899.56997312165,170659.0
62899.580072923396,170670.0
62899.59017272513,170641.0
62899.60027252688,170693.0
62899.61037232862,170680.0
62899.620472130366,170673.0
62899.6305719321,170638.0
62899.64067173385,170694.0
62899.65077153559,170687.0
62899.660871337335,170667.0
62899.67097113908,170639.0
62899.68107094082,170640.0
62899.69117074256,170636.0
62899.701270544305,170664.0
62899.71137034605,170679.0
62899.72147014779,170633.0
62899.73156994953,170689.0
62899.741669751274,170661.0
62899.75176955302,170636.0
62899.76186935476,170644.0
62899.7719691565,170639.0
62899.782068958244,170653.0
62899.79216875999,170636.0
62899.80226856173,170672.0
62899.81236836348,170648.0
62899.822468165214,170644.0
62899.83256796696,170613.0
62899.8426677687,170682.0
62899.852767570446,170638.0
62899.86286737218,170662.0
62899.87296717393,170652.0
62899.88306697567,170627.0
62899.893166777416,170630.0
62899.90326657916,170661.0
62899.9133663809,170688.0
62899.92346618264,170624.0
62899.933565984385,170650.0
62899.94366578613,170653.0
62899.953765587874,170610.0
62899.96386538961,170598.0
62899.973965191355,170596.0
62899.9840649931,170597.0
62899.99416479484,170586.0
62900.00426459658,170581.0
62900.014364398325,170559.0
62900.02446420007,170562.0
62900.03456400181,170545.0
62900.04466380356,170584.0
62900.054763605294,170547.0
62900.06486340704,170567.0
62900.07496320878,170582.0
62900.08506301053,170524.0
62900.09516281227,170514.0
62900.10526261401,170568.0
62900.11536241575,170549.0
62900.1254622175,170526.0
62900.13556201924,170579.0
62900.14566182098,170543.0
62900.15576162272,170576.0
62900.165861424466,170547.0
62900.17596122621,170592.0
62900.186061027955,170548.0
62900.19616082969,170566.0
62900.206260631436,170549.0
62900.21636043318,170527.0
62900.226460234924,170512.0
62900.23656003667,170554.0
62900.246659838405,170572.0
62900.25675964015,170534.0
62900.266859441894,170570.0
62900.27695924364,170532.0
62900.287059045375,170533.0
62900.29715884712,170509.0
62900.30725864886,170541.0
62900.31735845061,170521.0
62900.32745825235,170486.0
62900.33755805409,170524.0
62900.34765785583,170494.0
62900.35775765758,170490.0
62900.36785745932,170473.0
62900.377957261066,170531.0
62900.3880570628,170499.0
62900.39815686455,170503.0
62900.40825666629,170492.0
62900.418356468035,170507.0
62900.42845626977,170485.0
62900.438556071516,170515.0
62900.44865587326,170517.0
62900.458755675005,170487.0
62900.46885547675,170521.0
62900.478955278486,170520.0
62900.48905508023,170474.0
62900.499154881974,170483.0
62900.50925468372,170484.0
62900.51935448546,170505.0
62900.5294542872,170494.0
62900.539554088944,170545.0
62900.54965389069,170497.0
62900.55975369243,170502.0
62900.56985349417,170474.0
62900.57995329591,170519.0
62900.59005309766,170498.0
62900.6001528994,170499.0
62900.610252701146,170494.0
62900.62035250288,170477.0
62900.63045230463,170471.0
62900.64055210637,170523.0
62900.650651908116,170490.0
62900.66075170986,170468.0
62900.6708515116,170464.0
62900.68095131334,170432.0
62900.691051115085,170443.0
62900.70115091683,170394.0
62900.71125071857,170437.0
62900.72135052031,170411.0
62900.731450322055,170413.0
62900.7415501238,170425.0
62900.75164992554,170382.0
62900.76174972728,170383.0
62900.771849529025,170425.0
62900.78194933077,170459.0
62900.79204913251,170412.0
62900.80214893426,170432.0
62900.812248735994,170428.0
62900.82234853774,170418.0
62900.83244833948,170418.0
62900.84254814123,170460.0
62900.852647942964,170444.0
62900.86274774471,170421.0
62900.87284754645,170466.0
62900.8829473482,170423.0
62900.89304714994,170450.0
62900.90314695168,170413.0
62900.91324675342,170460.0
62900.923346555166,170423.0
62900.93344635691,170447.0
62900.943546158654,170431.0
62900.95364596039,170426.0
62900.963745762136,170423.0
62900.97384556388,170452.0
62900.983945365624,170476.0
62900.99404516736,170448.0
62901.004144969105,170474.0
62901.01424477085,170471.0
62901.024344572594,170421.0
62901.03444437434,170420.0
62901.044544176075,170472.0
62901.05464397782,170437.0
62901.06474377956,170450.0
62901.07484358131,170465.0
62901.08494338305,170447.0
62901.09504318479,170460.0
62901.10514298653,170449.0
62901.11524278828,170474.0
62901.12534259002,170458.0
62901.13544239176,170455.0
62901.1455421935,170474.0
62901.15564199525,170458.0
62901.16574179699,170440.0
62901.175841598735,170461.0
62901.18594140047,170452.0
62901.196041202216,170457.0
62901.20614100396,170474.0
62901.216240805705,170460.0
62901.22634060745,170455.0
62901.236440409186,170432.0
62901.24654021093,170477.0
62901.256640012674,170470.0
62901.26673981442,170449.0
62901.276839616155,170473.0
62901.2869394179,170422.0
62901.297039219644,170433.0
62901.30713902139,170449.0
62901.31723882313,170444.0
62901.32733862487,170410.0
62901.33743842661,170432.0
62901.34753822836,170439.0
62901.3576380301,170413.0
62901.367737831846,170380.0
62901.37783763358,170399.0
62901.38793743533,170366.0
62901.39803723707,170355.0
62901.408137038816,170362.0
62901.41823684055,170376.0
62901.4283366423,170363.0
62901.43843644404,170354.0
62901.448536245785,170360.0
62901.45863604753,170351.0
62901.46873584927,170355.0
62901.47883565101,170352.0
62901.488935452755,170327.0
62901.4990352545,170344.0
62901.50913505624,170365.0
62901.51923485798,170388.0
62901.529334659725,170340.0
62901.53943446147,170347.0
62901.54953426321,170385.0
62901.55963406495,170366.0
62901.569733866694,170340.0
62901.57983366844,170403.0
62901.58993347018,170365.0
62901.60003327193,170383.0
62901.610133073664,170381.0
62901.62023287541,170371.0
62901.63033267715,170357.0
62901.6404324789,170344.0
62901.65053228064,170341.0
62901.66063208238,170362.0
62901.67073188412,170335.0
62901.680831685866,170380.0
62901.69093148761,170327.0
62901.70103128935,170344.0
62901.71113109109,170366.0
62901.721230892836,170353.0
62901.73133069458,170354.0
62901.741430496324,170337.0
62901.75153029806,170362.0
62901.761630099805,170355.0
62901.77172990155,170337.0
62901.78182970329,170353.0
62901.79192950504,170357.0
62901.802029306775,170373.0
62901.81212910852,170397.0
62901.82222891026,170387.0
62901.83232871201,170384.0
62901.842428513744,170374.0
62901.85252831549,170364.0
62901.86262811723,170342.0
62901.87272791898,170350.0
62901.88282772072,170388.0
62901.89292752246,170361.0
62901.9030273242,170375.0
62901.91312712595,170405.0
62901.92322692769,170390.0
62901.933326729435,170400.0
62901.94342653117,170376.0
62901.953526332916,170397.0
62901.96362613466,170413.0
62901.973725936405,170384.0
62901.98382573814,170382.0
62901.993925539886,170405.0
62902.00402534163,170396.0
62902.014125143374,170389.0
62902.02422494512,170422.0
62902.034324746855,170419.0
62902.0444245486,170397.0
62902.054524350344,170374.0
62902.06462415209,170332.0
62902.07472395383,170324.0
62902.08482375557,170356.0
62902.09492355731,170306.0
62902.10502335906,170344.0
62902.1151231608,170277.0
62902.12522296254,170295.0
62902.13532276428,170306.0
62902.14542256603,170292.0
62902.15552236777,170327.0
62902.165622169516,170302.0
62902.17572197125,170292.0
62902.185821773,170290.0
62902.19592157474,170278.0
62902.206021376485,170299.0
62902.21612117823,170300.0
62902.22622097997,170309.0
62902.23632078171,170303.0
62902.246420583455,170275.0
62902.2565203852,170309.0
62902.266620186936,170322.0
62902.27671998868,170295.0
62902.286819790424,170338.0
62902.29691959217,170331.0
62902.30701939391,170308.0
62902.31711919565,170371.0
62902.327218997394,170368.0
62902.33731879914,170328.0
62902.34741860088,170331.0
62902.35751840263,170343.0
62902.367618204364,170318.0
62902.37771800611,170317.0
62902.38781780785,170292.0
62902.397917609596,170314.0
62902.40801741133,170289.0
62902.41811721308,170315.0
62902.42821701482,170334.0
62902.438316816566,170311.0
62902.44841661831,170325.0
62902.45851642005,170336.0
62902.46861622179,170331.0
62902.478716023536,170320.0
62902.48881582528,170337.0
62902.498915627024,170335.0
62902.50901542876,170330.0
62902.519115230505,170345.0
62902.52921503225,170369.0
62902.53931483399,170358.0
62902.54941463573,170367.0
62902.559514437475,170412.0
62902.56961423922,170389.0
62902.57971404096,170409.0
62902.58981384271,170426.0
62902.599913644444,170418.0
62902.61001344619,170394.0
62902.62011324793,170432.0
62902.63021304968,170429.0
62902.64031285142,170381.0
62902.65041265316,170403.0
62902.6605124549,170415.0
62902.67061225665,170439.0
62902.68071205839,170425.0
62902.69081186013,170482.0
62902.70091166187,170475.0
62902.711011463616,170460.0
62902.72111126536,170481.0
62902.731211067105,170484.0
62902.74131086884,170457.0
62902.751410670586,170493.0
62902.76151047233,170497.0
62902.771610274074,170446.0
62902.78171007582,170460.0
62902.791809877555,170448.0
62902.8019096793,170469.0
62902.812009481044,170435.0
62902.82210928279,170439.0
62902.832209084525,170440.0
62902.84230888627,170405.0
62902.85240868801,170379.0
62902.86250848976,170398.0
62902.8726082915,170392.0
62902.88270809324,170402.0
62902.89280789498,170390.0
62902.90290769673,170365.0
62902.91300749847,170365.0
62902.923107300216,170371.0
62902.93320710195,170385.0
62902.9433069037,170346.0
62902.95340670544,170385.0
62902.963506507185,170373.0
62902.97360630892,170370.0
62902.98370611067,170390.0
62902.99380591241,170420.0
62903.003905714155,170384.0
62903.0140055159,170375.0
62903.024105317636,170412.0
62903.03420511938,170386.0
62903.044304921124,170378.0
62903.05440472287,170417.0
62903.06450452461,170403.0
62903.07460432635,170405.0
62903.084704128094,170415.0
62903.09480392984,170433.0
62903.10490373158,170398.0
62903.11500353332,170405.0
62903.12510333506,170397.0
62903.13520313681,170390.0
62903.14530293855,170394.0
62903.155402740296,170412.0
62903.16550254203,170423.0
62903.17560234378,170379.0
62903.18570214552,170411.0
62903.195801947266,170399.0
62903.20590174901,170417.0
62903.21600155075,170416.0
62903.22610135249,170424.0
62903.236201154235,170419.0
62903.24630095598,170415.0
62903.25640075772,170431.0
62903.26650055946,170422.0
62903.276600361205,170435.0
62903.28670016295,170452.0
62903.29679996469,170402.0
62903.30689976643,170422.0
62903.316999568175,170426.0
62903.32709936992,170433.0
62903.33719917166,170408.0
62903.34729897341,170410.0
62903.357398775144,170398.0
62903.36749857689,170443.0
62903.37759837863,170407.0
62903.38769818038,170414.0
62903.397797982114,170429.0
62903.40789778386,170434.0
62903.4179975856,170419.0
62903.42809738735,170461.0
62903.43819718909,170434.0
62903.44829699083,170452.0
62903.45839679257,170472.0
62903.468496594316,170432.0
62903.47859639606,170443.0
62903.488696197805,170443.0
62903.49879599954,170480.0
62903.508895801286,170432.0
62903.51899560303,170466.0
62903.529095404774,170432.0
62903.53919520651,170425.0
62903.549295008255,170402.0
62903.55939481,170383.0
62903.569494611744,170391.0
62903.57959441349,170364.0
62903.589694215225,170372.0
62903.59979401697,170355.0
62903.60989381871,170341.0
62903.61999362046,170321.0
62903.6300934222,170363.0
62903.64019322394,170323.0
62903.65029302568,170328.0
62903.66039282743,170354.0
62903.67049262917,170325.0
62903.68059243091,170362.0
62903.69069223265,170359.0
62903.7007920344,170344.0
62903.71089183614,170323.0
62903.720991637885,170319.0
62903.73109143962,170341.0
62903.741191241366,170343.0
62903.75129104311,170351.0
62903.761390844855,170371.0
62903.7714906466,170357.0
62903.781590448336,170335.0
62903.79169025008,170385.0
62903.801790051824,170380.0
62903.81188985357,170358.0
62903.821989655306,170384.0
62903.83208945705,170367.0
62903.842189258794,170325.0
62903.85228906054,170369.0
62903.86238886228,170339.0
62903.87248866402,170337.0
62903.88258846576,170366.0
62903.89268826751,170349.0
62903.90278806925,170353.0
62903.91288787099,170339.0
62903.92298767273,170361.0
62903.93308747448,170353.0
62903.94318727622,170357.0
62903.953287077966,170334.0
62903.9633868797,170361.0
62903.97348668145,170307.0
62903.98358648319,170340.0
62903.993686284935,170328.0
62904.00378608668,170309.0
62904.01388588842,170314.0
62904.02398569016,170353.0
62904.034085491905,170363.0
62904.04418529365,170328.0
62904.054285095386,170390.0
62904.06438489713,170360.0
62904.074484698875,170365.0
62904.08458450062,170370.0
62904.09468430236,170323.0
62904.1047841041,170379.0
62904.114883905844,170362.0
62904.12498370759,170379.0
62904.13508350933,170386.0
62904.14518331108,170369.0
62904.155283112814,170364.0
62904.16538291456,170363.0
62904.1754827163,170350.0
62904.18558251805,170369.0
62904.19568231978,170406.0
62904.20578212153,170352.0
62904.21588192327,170376.0
62904.225981725016,170425.0
62904.23608152676,170373.0
62904.2461813285,170372.0
62904.25628113024,170417.0
62904.266380931986,170384.0
62904.27648073373,170370.0
62904.286580535474,170384.0
62904.29668033721,170342.0
62904.306780138955,170366.0
62904.3168799407,170320.0
62904.326979742444,170355.0
62904.33707954418,170347.0
62904.347179345925,170328.0
62904.35727914767,170337.0
62904.36737894941,170312.0
62904.37747875116,170298.0
62904.387578552894,170299.0
62904.39767835464,170279.0
62904.40777815638,170263.0
62904.41787795813,170263.0
62904.42797775987,170298.0
62904.43807756161,170279.0
62904.44817736335,170262.0
62904.4582771651,170331.0
62904.46837696684,170270.0
62904.47847676858,170286.0
62904.48857657032,170296.0
62904.498676372066,170269.0
62904.50877617381,170262.0
62904.518875975555,170301.0
62904.52897577729,170302.0
62904.539075579036,170308.0
62904.54917538078,170302.0
62904.559275182524,170321.0
62904.56937498427,170335.0
62904.579474786005,170318.0
62904.58957458775,170351.0
62904.599674389494,170319.0
62904.60977419124,170300.0
62904.619873992975,170282.0
62904.62997379472,170291.0
62904.64007359646,170291.0
62904.65017339821,170286.0
62904.66027319995,170295.0
62904.67037300169,170298.0
62904.68047280343,170315.0
62904.69057260518,170310.0
62904.70067240692,170293.0
62904.710772208666,170270.0
62904.7208720104,170302.0
62904.73097181215,170314.0
62904.74107161389,170307.0
62904.751171415635,170306.0
62904.76127121737,170315.0
62904.77137101912,170262.0
62904.78147082086,170255.0
62904.791570622605,170313.0
62904.80167042435,170296.0
62904.811770226086,170310.0
62904.82187002783,170298.0
62904.831969829575,170313.0
62904.84206963132,170324.0
62904.85216943306,170317.0
62904.8622692348,170348.0
62904.872369036544,170310.0
62904.88246883829,170334.0
62904.89256864003,170345.0
62904.90266844177,170317.0
62904.912768243514,170304.0
62904.92286804526,170312.0
62904.932967847,170315.0
62904.94306764875,170305.0
62904.95316745048,170301.0
62904.96326725223,170293.0
62904.97336705397,170305.0
62904.983466855716,170316.0
62904.99356665746,170316.0
62905.0036664592,170356.0
62905.01376626094,170329.0
62905.023866062686,170340.0
62905.03396586443,170310.0
62905.04406566617,170325.0
62905.05416546791,170326.0
62905.064265269655,170339.0
62905.0743650714,170338.0
62905.08446487314,170334.0
62905.09456467488,170316.0
62905.104664476625,170293.0
62905.11476427837,170251.0
62905.12486408011,170276.0
62905.13496388186,170267.0
62905.145063683594,170246.0
62905.15516348534,170236.0
62905.16526328708,170223.0
62905.17536308883,170219.0
62905.185462890564,170224.0
62905.19556269231,170224.0
62905.20566249405,170230.0
62905.2157622958,170224.0
62905.22586209754,170220.0
62905.23596189928,170237.0
62905.24606170102,170220.0
62905.256161502766,170216.0
62905.26626130451,170211.0
62905.276361106255,170194.0
62905.28646090799,170164.0
62905.296560709736,170188.0
62905.30666051148,170193.0
62905.316760313224,170226.0
62905.32686011496,170217.0
62905.336959916705,170217.0
62905.34705971845,170208.0
62905.357159520194,170184.0
62905.36725932194,170248.0
62905.377359123675,170206.0
62905.38745892542,170187.0
62905.39755872716,170184.0
62905.40765852891,170192.0
62905.41775833065,170186.0
62905.42785813239,170180.0
62905.43795793413,170201.0
62905.44805773588,170182.0
62905.45815753762,170209.0
62905.46825733936,170181.0
62905.4783571411,170187.0
62905.48845694285,170167.0
62905.49855674459,170164.0
62905.508656546335,170191.0
62905.51875634807,170193.0
62905.52885614982,170187.0
62905.53895595156,170197.0
62905.549055753305,170192.0
62905.55915555505,170181.0
62905.569255356786,170209.0
62905.57935515853,170174.0
62905.589454960274,170175.0
62905.59955476202,170176.0
62905.609654563756,170214.0
62905.6197543655,170212.0
62905.629854167244,170210.0
62905.63995396899,170229.0
62905.65005377073,170204.0
62905.66015357247,170231.0
62905.670253374214,170201.0
62905.68035317596,170178.0
62905.6904529777,170210.0
62905.700552779446,170209.0
62905.71065258118,170197.0
62905.72075238293,170215.0
62905.73085218467,170218.0
62905.740951986416,170208.0
62905.75105178815,170212.0
62905.7611515899,170183.0
62905.77125139164,170249.0
62905.781351193385,170204.0
62905.79145099513,170221.0
62905.80155079687,170225.0
62905.81165059861,170221.0
62905.821750400355,170198.0
62905.8318502021,170230.0
62905.84195000384,170226.0
62905.85204980558,170218.0
62905.862149607325,170248.0
62905.87224940907,170215.0
62905.88234921081,170216.0
62905.89244901255,170200.0
62905.902548814294,170170.0
62905.91264861604,170190.0
62905.92274841778,170158.0
62905.93284821953,170176.0
62905.942948021264,170146.0
62905.95304782301,170135.0
62905.96314762475,170127.0
62905.9732474265,170133.0
62905.98334722824,170131.0
62905.99344702998,170166.0
62906.00354683172,170136.0
62906.013646633466,170126.0
62906.02374643521,170159.0
62906.03384623695,170128.0
62906.04394603869,170142.0
62906.054045840436,170127.0
62906.06414564218,170171.0
62906.074245443924,170143.0
62906.08434524566,170154.0
62906.094445047405,170179.0
62906.10454484915,170161.0
62906.114644650894,170144.0
62906.12474445264,170173.0
62906.134844254375,170184.0
62906.14494405612,170160.0
62906.15504385786,170182.0
62906.16514365961,170179.0
62906.175243461345,170181.0
62906.18534326309,170154.0
62906.19544306483,170195.0
62906.20554286658,170159.0
62906.21564266832,170175.0
62906.22574247006,170204.0
62906.2358422718,170189.0
62906.24594207355,170181.0
62906.25604187529,170169.0
62906.266141677035,170215.0
62906.27624147877,170179.0
62906.286341280516,170204.0
62906.29644108226,170179.0
62906.306540884005,170181.0
62906.31664068574,170163.0
62906.326740487486,170199.0
62906.33684028923,170180.0
62906.346940090974,170179.0
62906.35703989272,170227.0
62906.367139694456,170208.0
62906.3772394962,170173.0
62906.387339297944,170187.0
62906.39743909969,170250.0
62906.40753890143,170220.0
62906.41763870317,170209.0
62906.42773850491,170239.0
62906.43783830666,170216.0
62906.4479381084,170223.0
62906.45803791014,170188.0
62906.46813771188,170234.0
62906.47823751363,170201.0
62906.48833731537,170231.0
62906.498437117116,170232.0
62906.50853691885,170237.0
62906.5186367206,170207.0
62906.52873652234,170217.0
62906.538836324085,170222.0
62906.54893612583,170217.0
62906.55903592757,170280.0
62906.56913572931,170244.0
62906.579235531055,170256.0
62906.5893353328,170225.0
62906.599435134536,170277.0
62906.60953493628,170221.0
62906.619634738025,170240.0
62906.62973453977,170252.0
62906.63983434151,170255.0
62906.64993414325,170241.0
62906.660033944994,170270.0
62906.67013374674,170282.0
62906.68023354848,170273.0
62906.69033335023,170290.0
62906.700433151964,170266.0
62906.71053295371,170220.0
62906.72063275545,170214.0
62906.7307325572,170230.0
62906.74083235893,170185.0
62906.75093216068,170170.0
62906.76103196242,170177.0
62906.771131764166,170186.0
62906.78123156591,170176.0
62906.79133136765,170152.0
62906.80143116939,170197.0
62906.811530971136,170147.0
62906.82163077288,170164.0
62906.831730574624,170158.0
62906.84183037636,170161.0
62906.851930178105,170105.0
62906.86202997985,170141.0
62906.872129781594,170159.0
62906.88222958333,170142.0
62906.892329385075,170164.0
62906.90242918682,170176.0
62906.91252898856,170143.0
62906.92262879031,170167.0
62906.932728592044,170196.0
62906.94282839379,170178.0
62906.95292819553,170183.0
62906.96302799728,170207.0
62906.97312779902,170146.0
62906.98322760076,170179.0
62906.9933274025,170135.0
62907.00342720425,170186.0
62907.01352700599,170146.0
62907.02362680773,170138.0
62907.03372660947,170158.0
62907.043826411216,170115.0
62907.05392621296,170112.0
62907.064026014705,170172.0
62907.07412581644,170139.0
62907.084225618186,170173.0
62907.09432541993,170156.0
62907.104425221674,170117.0
62907.11452502342,170140.0
62907.124624825155,170117.0
62907.1347246269,170115.0
62907.144824428644,170139.0
62907.15492423039,170156.0
62907.165024032125,170171.0
62907.17512383387,170122.0
62907.18522363561,170121.0
62907.19532343736,170162.0
62907.2054232391,170195.0
62907.21552304084,170157.0
62907.22562284258,170168.0
62907.23572264433,170144.0
62907.24582244607,170100.0
62907.255922247816,170119.0
62907.26602204955,170159.0
62907.2761218513,170149.0
62907.28622165304,170151.0
62907.296321454785,170170.0
62907.30642125652,170120.0
62907.31652105827,170150.0
62907.32662086001,170119.0
62907.336720661755,170117.0
62907.3468204635,170124.0
62907.356920265236,170147.0
62907.36702006698,170130.0
62907.377119868725,170100.0
62907.38721967047,170085.0
62907.39731947221,170122.0
62907.40741927395,170131.0
62907.417519075694,170094.0
62907.42761887744,170126.0
62907.43771867918,170087.0
62907.44781848092,170079.0
62907.457918282664,170099.0
62907.46801808441,170113.0
62907.47811788615,170098.0
62907.4882176879,170067.0
62907.49831748963,170083.0
62907.50841729138,170081.0
62907.51851709312,170063.0
62907.528616894866,170024.0
62907.53871669661,170038.0
62907.54881649835,170001.0
62907.55891630009,169995.0
62907.569016101836,169950.0
62907.57911590358,169957.0
62907.58921570532,169992.0
62907.59931550706,169968.0
62907.609415308805,169994.0
62907.61951511055,169987.0
62907.62961491229,170028.0
62907.63971471403,169983.0
62907.649814515775,170016.0
62907.65991431752,169977.0
62907.67001411926,169992.0
62907.68011392101,170023.0
62907.690213722744,170014.0
62907.70031352449,170007.0
62907.71041332623,169988.0
62907.72051312798,169977.0
62907.730612929714,170026.0
62907.74071273146,170057.0
62907.7508125332,170033.0
62907.76091233495,170068.0
62907.77101213669,170021.0
62907.78111193843,170036.0
62907.79121174017,170029.0
62907.801311541916,170004.0
62907.81141134366,170022.0
62907.821511145405,170002.0
62907.83161094714,170025.0
62907.841710748886,169953.0
62907.85181055063,170002.0
62907.861910352374,169966.0
62907.87201015411,170014.0
62907.882109955855,170008.0
62907.8922097576,170010.0
62907.902309559344,170002.0
62907.91240936109,169981.0
62907.922509162825,169975.0
62907.93260896457,169991.0
62907.94270876631,170009.0
62907.95280856806,169998.0
62907.962908369795,170019.0
62907.97300817154,169967.0
62907.98310797328,169987.0
62907.99320777503,169968.0
62908.00330757677,170005.0
62908.01340737851,169999.0
62908.02350718025,170008.0
62908.033606982,170037.0
62908.04370678374,169986.0
62908.053806585485,170000.0
62908.06390638722,169975.0
62908.07400618897,170025.0
62908.08410599071,170034.0
62908.094205792455,170014.0
62908.10430559419,169942.0
62908.114405395936,169966.0
62908.12450519768,169984.0
62908.134604999424,170013.0
62908.14470480117,169999.0
62908.154804602906,170014.0
62908.16490440465,170020.0
62908.175004206394,170017.0
62908.18510400814,170008.0
62908.19520380988,169989.0
62908.20530361162,169972.0
62908.215403413364,170017.0
62908.22550321511,170007.0
62908.23560301685,170005.0
62908.24570281859,169972.0
62908.25580262033,170004.0
62908.26590242208,170017.0
62908.27600222382,170020.0
62908.286102025566,170023.0
62908.2962018273,170018.0
62908.30630162905,169992.0
62908.31640143079,169955.0
62908.326501232536,169926.0
62908.33660103428,169963.0
62908.34670083602,169921.0
62908.35680063776,169910.0
62908.366900439505,169912.0
62908.37700024125,169830.0
62908.387100042986,169885.0
62908.39719984473,169886.0
62908.407299646475,169872.0
62908.41739944822,169872.0
