time,ppg
62863.88329390515,106510.0
62863.89329181853,106498.0
62863.903289731905,106494.0
62863.913287645286,106500.0
62863.92328555867,106484.0
62863.93328347204,106498.0
62863.94328138542,106497.0
62863.9532792988,106503.0
62863.96327721218,106490.0
62863.97327512556,106496.0
62863.98327303894,106477.0
62863.99327095231,106481.0
62864.003268865694,106494.0
62864.013266779075,106479.0
62864.02326469245,106506.0
62864.03326260583,106494.0
62864.04326051921,106479.0
62864.053258432585,106461.0
62864.063256345966,106487.0
62864.07325425935,106488.0
62864.08325217272,106483.0
62864.0932500861,106498.0
62864.10324799948,106506.0
62864.11324591286,106470.0
62864.12324382624,106449.0
62864.13324173962,106456.0
62864.14323965299,106501.0
62864.153237566374,106469.0
62864.163235479755,106490.0
62864.17323339313,106430.0
62864.18323130651,106462.0
62864.19322921989,106477.0
62864.203227133265,106479.0
62864.213225046646,106444.0
62864.22322296003,106483.0
62864.2332208734,106455.0
62864.24321878678,106460.0
62864.25321670016,106445.0
62864.263214613544,106480.0
62864.27321252692,106481.0
62864.2832104403,106491.0
62864.29320835368,106462.0
62864.30320626705,106439.0
62864.313204180435,106491.0
62864.323202093816,106478.0
62864.33320000719,106472.0
62864.34319792057,106476.0
62864.35319583395,106495.0
62864.363193747326,106444.0
62864.37319166071,106456.0
62864.38318957409,106446.0
62864.39318748746,106485.0
62864.40318540084,106463.0
62864.413183314224,106479.0
62864.4231812276,106480.0
62864.43317914098,106437.0
62864.44317705436,106466.0
62864.45317496773,106462.0
62864.463172881115,106470.0
62864.473170794496,106451.0
62864.48316870787,106472.0
62864.49316662125,106483.0
62864.50316453463,106465.0
62864.513162448005,106482.0
62864.52316036139,106464.0
62864.53315827477,106472.0
62864.54315618814,106477.0
62864.55315410152,106449.0
62864.5631520149,106471.0
62864.57314992828,106470.0
62864.58314784166,106478.0
62864.59314575504,106473.0
62864.60314366841,106480.0
62864.613141581794,106489.0
62864.623139495176,106480.0
62864.63313740855,106421.0
62864.64313532193,106479.0
62864.65313323531,106439.0
62864.663131148685,106467.0
62864.67312906207,106485.0
62864.68312697545,106486.0
62864.69312488882,106482.0
62864.7031228022,106465.0
62864.71312071558,106517.0
62864.72311862896,106486.0
62864.73311654234,106487.0
62864.74311445572,106502.0
62864.75311236909,106454.0
62864.763110282474,106493.0
62864.773108195855,106453.0
62864.78310610923,106471.0
62864.79310402261,106505.0
62864.80310193599,106499.0
62864.813099849365,106470.0
62864.823097762746,106478.0
62864.83309567613,106471.0
62864.84309358951,106496.0
62864.85309150288,106474.0
62864.86308941626,106506.0
62864.873087329644,106531.0
62864.88308524302,106497.0
62864.8930831564,106533.0
62864.90308106978,106489.0
62864.913078983154,106508.0
62864.923076896535,106498.0
62864.93307480992,106505.0
62864.94307272329,106500.0
62864.95307063667,106473.0
62864.96306855005,106487.0
62864.973066463426,106489.0
62864.98306437681,106466.0
62864.99306229019,106470.0
62865.00306020356,106472.0
62865.01305811694,106488.0
62865.023056030324,106507.0
62865.0330539437,106453.0
62865.04305185708,106460.0
62865.05304977046,106474.0
62865.063047683834,106498.0
62865.073045597215,106495.0
62865.083043510596,106507.0
62865.09304142397,106483.0
62865.10303933735,106469.0
62865.11303725073,106493.0
62865.123035164106,106467.0
62865.13303307749,106481.0
62865.14303099087,106486.0
62865.15302890424,106450.0
62865.16302681762,106414.0
62865.173024731004,106474.0
62865.18302264438,106477.0
62865.19302055776,106481.0
62865.20301847114,106491.0
62865.213016384514,106489.0
62865.223014297895,106485.0
62865.233012211276,106497.0
62865.24301012465,106468.0
62865.25300803803,106492.0
62865.26300595141,106513.0
62865.273003864786,106506.0
62865.28300177817,106492.0
62865.29299969155,106472.0
62865.30299760492,106450.0
62865.3129955183,106494.0
62865.322993431684,106465.0
62865.33299134506,106481.0
62865.34298925844,106474.0
62865.35298717182,106517.0
62865.362985085194,106503.0
62865.372982998575,106492.0
62865.382980911956,106474.0
62865.39297882533,106482.0
62865.40297673871,106511.0
62865.41297465209,106484.0
62865.42297256547,106486.0
62865.43297047885,106486.0
62865.44296839223,106461.0
62865.45296630561,106498.0
62865.46296421898,106501.0
62865.472962132364,106454.0
62865.482960045745,106494.0
62865.49295795912,106494.0
62865.5029558725,106466.0
62865.51295378588,106474.0
62865.522951699255,106500.0
62865.532949612636,106487.0
62865.54294752602,106505.0
62865.55294543939,106472.0
62865.56294335277,106487.0
62865.57294126615,106496.0
62865.58293917953,106506.0
62865.59293709291,106476.0
62865.60293500629,106525.0
62865.61293291966,106506.0
62865.622930833044,106483.0
62865.632928746425,106524.0
62865.6429266598,106481.0
62865.65292457318,106510.0
62865.66292248656,106507.0
62865.672920399935,106477.0
62865.682918313316,106484.0
62865.6929162267,106495.0
62865.70291414007,106490.0
62865.71291205345,106503.0
62865.72290996683,106529.0
62865.73290788021,106489.0
62865.74290579359,106503.0
62865.75290370697,106515.0
62865.76290162034,106542.0
62865.772899533724,106527.0
62865.782897447105,106512.0
62865.79289536048,106473.0
62865.80289327386,106523.0
62865.81289118724,106488.0
62865.822889100615,106488.0
62865.832887013996,106500.0
62865.84288492738,106478.0
62865.85288284075,106465.0
62865.86288075413,106500.0
62865.87287866751,106509.0
62865.88287658089,106513.0
62865.89287449427,106499.0
62865.90287240765,106494.0
62865.91287032102,106487.0
62865.922868234404,106494.0
62865.932866147785,106487.0
62865.94286406116,106507.0
62865.95286197454,106519.0
62865.96285988792,106490.0
62865.972857801295,106486.0
62865.982855714676,106497.0
62865.99285362806,106480.0
62866.00285154144,106489.0
62866.01284945481,106499.0
62866.02284736819,106490.0
62866.032845281574,106453.0
62866.04284319495,106514.0
62866.05284110833,106489.0
62866.06283902171,106505.0
62866.07283693508,106511.0
62866.082834848465,106491.0
62866.092832761846,106524.0
62866.10283067522,106501.0
62866.1128285886,106501.0
62866.12282650198,106521.0
62866.132824415356,106479.0
62866.14282232874,106486.0
62866.15282024212,106493.0
62866.16281815549,106482.0
62866.17281606887,106525.0
62866.182813982254,106495.0
62866.19281189563,106468.0
62866.20280980901,106461.0
62866.21280772239,106509.0
62866.22280563576,106471.0
62866.232803549145,106480.0
62866.242801462526,106497.0
62866.2527993759,106476.0
62866.26279728928,106497.0
62866.27279520266,106503.0
62866.282793116035,106468.0
62866.29279102942,106485.0
62866.3027889428,106496.0
62866.31278685617,106491.0
62866.32278476955,106501.0
62866.33278268293,106510.0
62866.34278059631,106502.0
62866.35277850969,106510.0
62866.36277642307,106486.0
62866.37277433644,106493.0
62866.382772249824,106477.0
62866.392770163206,106504.0
62866.40276807658,106501.0
62866.41276598996,106528.0
62866.42276390334,106497.0
62866.432761816715,106506.0
62866.4427597301,106526.0
62866.45275764348,106480.0
62866.46275555685,106472.0
62866.47275347023,106512.0
62866.48275138361,106508.0
62866.49274929699,106504.0
62866.50274721037,106479.0
62866.51274512375,106513.0
62866.52274303712,106489.0
62866.532740950504,106519.0
62866.542738863885,106486.0
62866.55273677726,106516.0
62866.56273469064,106542.0
62866.57273260402,106517.0
62866.5827305174,106528.0
62866.592728430776,106508.0
62866.60272634416,106504.0
62866.61272425754,106524.0
62866.62272217091,106453.0
62866.63272008429,106522.0
62866.642717997674,106521.0
62866.65271591105,106514.0
62866.66271382443,106520.0
62866.67271173781,106504.0
62866.682709651184,106496.0
62866.692707564565,106536.0
62866.70270547795,106501.0
62866.71270339132,106503.0
62866.7227013047,106452.0
62866.73269921808,106526.0
62866.742697131456,106498.0
62866.75269504484,106486.0
62866.76269295822,106491.0
62866.77269087159,106505.0
62866.78268878497,106508.0
62866.792686698354,106499.0
62866.80268461173,106494.0
62866.81268252511,106519.0
62866.82268043849,106502.0
62866.832678351864,106495.0
62866.842676265245,106506.0
62866.852674178626,106482.0
62866.862672092,106492.0
62866.87267000538,106500.0
62866.88266791876,106480.0
62866.892665832136,106510.0
62866.90266374552,106522.0
62866.9126616589,106493.0
62866.92265957227,106497.0
62866.93265748565,106502.0
62866.942655399034,106476.0
62866.95265331241,106502.0
62866.96265122579,106524.0
62866.97264913917,106482.0
62866.982647052544,106492.0
62866.992644965925,106495.0
62867.002642879306,106478.0
62867.01264079268,106480.0
62867.02263870606,106483.0
62867.03263661944,106494.0
62867.042634532816,106516.0
62867.0526324462,106527.0
62867.06263035958,106486.0
62867.07262827295,106482.0
62867.08262618633,106501.0
62867.092624099714,106536.0
62867.10262201309,106520.0
62867.11261992647,106493.0
62867.12261783985,106509.0
62867.132615753224,106485.0
62867.142613666605,106486.0
62867.152611579986,106526.0
62867.16260949337,106493.0
62867.17260740674,106504.0
62867.18260532012,106514.0
62867.1926032335,106492.0
62867.20260114688,106521.0
62867.21259906026,106521.0
62867.22259697364,106503.0
62867.23259488701,106487.0
62867.242592800394,106508.0
62867.252590713775,106549.0
62867.26258862715,106500.0
62867.27258654053,106489.0
62867.28258445391,106470.0
62867.292582367285,106478.0
62867.302580280666,106503.0
62867.31257819405,106544.0
62867.32257610742,106506.0
62867.3325740208,106477.0
62867.34257193418,106524.0
62867.35256984756,106521.0
62867.36256776094,106512.0
62867.37256567432,106487.0
62867.38256358769,106505.0
62867.392561501074,106510.0
62867.402559414455,106506.0
62867.41255732783,106495.0
62867.42255524121,106529.0
62867.43255315459,106493.0
62867.442551067965,106523.0
62867.452548981346,106524.0
62867.46254689473,106514.0
62867.4725448081,106497.0
62867.48254272148,106514.0
62867.49254063486,106530.0
62867.50253854824,106506.0
62867.51253646162,106510.0
62867.522534375,106524.0
62867.53253228837,106514.0
62867.542530201754,106531.0
62867.552528115135,106485.0
62867.56252602851,106501.0
62867.57252394189,106516.0
62867.58252185527,106522.0
62867.592519768645,106494.0
62867.602517682026,106497.0
62867.61251559541,106468.0
62867.62251350878,106523.0
62867.63251142216,106467.0
62867.64250933554,106497.0
62867.65250724892,106453.0
62867.6625051623,106468.0
62867.67250307568,106499.0
62867.68250098905,106488.0
62867.692498902434,106498.0
62867.702496815815,106476.0
62867.71249472919,106499.0
62867.72249264257,106474.0
62867.73249055595,106488.0
62867.74248846933,106501.0
62867.752486382706,106466.0
62867.76248429609,106503.0
62867.77248220947,106496.0
62867.78248012284,106530.0
62867.79247803622,106468.0
62867.802475949604,106486.0
62867.81247386298,106519.0
62867.82247177636,106484.0
62867.83246968974,106467.0
62867.84246760311,106500.0
62867.852465516495,106493.0
62867.862463429876,106475.0
62867.87246134325,106498.0
62867.88245925663,106485.0
62867.89245717001,106500.0
62867.902455083386,106493.0
62867.91245299677,106487.0
62867.92245091015,106483.0
62867.93244882352,106486.0
62867.9424467369,106485.0
62867.952444650284,106469.0
62867.96244256366,106518.0
62867.97244047704,106494.0
62867.98243839042,106467.0
62867.99243630379,106514.0
62868.002434217175,106467.0
62868.012432130556,106489.0
62868.02243004393,106514.0
62868.03242795731,106489.0
62868.04242587069,106488.0
62868.052423784065,106494.0
62868.06242169745,106497.0
62868.07241961083,106487.0
62868.0824175242,106496.0
62868.09241543758,106490.0
62868.10241335096,106448.0
62868.11241126434,106473.0
62868.12240917772,106478.0
62868.1324070911,106493.0
62868.14240500447,106490.0
62868.152402917854,106494.0
62868.162400831236,106512.0
62868.17239874461,106501.0
62868.18239665799,106497.0
62868.19239457137,106522.0
62868.202392484745,106492.0
62868.21239039813,106499.0
62868.22238831151,106529.0
62868.23238622488,106467.0
62868.24238413826,106507.0
62868.25238205164,106516.0
62868.26237996502,106478.0
62868.2723778784,106514.0
62868.28237579178,106486.0
62868.29237370515,106503.0
62868.302371618534,106505.0
62868.312369531915,106512.0
62868.3223674453,106512.0
62868.33236535867,106510.0
62868.34236327205,106510.0
62868.35236118543,106494.0
62868.362359098806,106529.0
62868.37235701219,106513.0
62868.38235492557,106482.0
62868.39235283894,106533.0
62868.40235075232,106488.0
62868.412348665704,106507.0
62868.42234657908,106482.0
62868.43234449246,106478.0
62868.44234240584,106472.0
62868.452340319214,106486.0
62868.462338232595,106489.0
62868.47233614598,106518.0
62868.48233405935,106468.0
62868.49233197273,106474.0
62868.50232988611,106480.0
62868.512327799486,106458.0
62868.52232571287,106478.0
62868.53232362625,106480.0
62868.54232153962,106487.0
62868.552319453,106459.0
62868.562317366384,106500.0
62868.57231527976,106453.0
62868.58231319314,106473.0
62868.59231110652,106450.0
62868.602309019894,106459.0
62868.612306933275,106483.0
62868.622304846656,106470.0
62868.63230276003,106444.0
62868.64230067341,106493.0
62868.65229858679,106483.0
62868.662296500166,106474.0
62868.67229441355,106475.0
62868.68229232693,106455.0
62868.6922902403,106474.0
62868.70228815368,106473.0
62868.712286067064,106460.0
62868.72228398044,106442.0
62868.73228189382,106448.0
62868.7422798072,106465.0
62868.752277720574,106470.0
62868.762275633955,106473.0
62868.772273547336,106439.0
62868.78227146071,106464.0
62868.79226937409,106475.0
62868.80226728747,106432.0
62868.812265200846,106472.0
62868.82226311423,106469.0
62868.83226102761,106426.0
62868.84225894098,106481.0
62868.85225685436,106447.0
62868.862254767744,106471.0
62868.87225268112,106489.0
62868.8822505945,106436.0
62868.89224850788,106437.0
62868.90224642126,106472.0
62868.912244334635,106499.0
62868.922242248016,106485.0
62868.9322401614,106471.0
62868.94223807477,106458.0
62868.95223598815,106467.0
62868.96223390153,106486.0
62868.97223181491,106432.0
62868.98222972829,106466.0
62868.99222764167,106493.0
62869.00222555504,106430.0
62869.012223468424,106479.0
62869.022221381805,106461.0
62869.03221929518,106461.0
62869.04221720856,106496.0
62869.05221512194,106451.0
62869.062213035315,106475.0
62869.072210948696,106450.0
62869.08220886208,106476.0
62869.09220677545,106475.0
62869.10220468883,106470.0
62869.11220260221,106451.0
62869.12220051559,106485.0
62869.13219842897,106480.0
62869.14219634235,106446.0
62869.15219425572,106449.0
62869.162192169104,106478.0
62869.172190082485,106462.0
62869.18218799586,106496.0
62869.19218590924,106484.0
62869.20218382262,106462.0
62869.212181735995,106508.0
62869.222179649376,106454.0
62869.23217756276,106490.0
62869.24217547613,106501.0
62869.25217338951,106478.0
62869.26217130289,106496.0
62869.27216921627,106481.0
62869.28216712965,106448.0
62869.29216504303,106465.0
62869.3021629564,106473.0
62869.312160869784,106466.0
62869.322158783165,106469.0
62869.33215669654,106433.0
62869.34215460992,106434.0
62869.3521525233,106465.0
62869.362150436675,106467.0
62869.372148350056,106439.0
62869.38214626344,106478.0
62869.39214417681,106448.0
62869.40214209019,106411.0
62869.41214000357,106457.0
62869.42213791695,106464.0
62869.43213583033,106432.0
62869.44213374371,106460.0
62869.45213165708,106402.0
62869.462129570464,106460.0
62869.472127483845,106442.0
62869.482125397226,106439.0
62869.4921233106,106430.0
62869.50212122398,106464.0
62869.51211913736,106437.0
62869.522117050736,106436.0
62869.53211496412,106463.0
62869.5421128775,106436.0
62869.55211079087,106449.0
62869.56210870425,106438.0
62869.572106617634,106424.0
62869.58210453101,106462.0
62869.59210244439,106446.0
62869.60210035777,106432.0
62869.61209827114,106465.0
62869.622096184525,106438.0
62869.632094097906,106439.0
62869.64209201128,106447.0
62869.65208992466,106418.0
62869.66208783804,106453.0
62869.672085751416,106462.0
62869.6820836648,106405.0
62869.69208157818,106398.0
62869.70207949155,106465.0
62869.71207740493,106443.0
62869.722075318314,106470.0
62869.73207323169,106448.0
62869.74207114507,106450.0
62869.75206905845,106444.0
62869.76206697182,106414.0
62869.772064885205,106417.0
62869.782062798586,106422.0
62869.79206071196,106447.0
62869.80205862534,106414.0
62869.81205653872,106455.0
62869.822054452095,106409.0
62869.83205236548,106446.0
62869.84205027886,106421.0
62869.85204819223,106414.0
62869.86204610561,106455.0
62869.87204401899,106433.0
62869.88204193237,106435.0
62869.89203984575,106445.0
62869.90203775913,106450.0
62869.9120356725,106467.0
62869.922033585884,106440.0
62869.932031499266,106467.0
62869.94202941264,106475.0
62869.95202732602,106437.0
62869.9620252394,106448.0
62869.972023152775,106428.0
62869.98202106616,106481.0
62869.99201897954,106447.0
62870.00201689291,106461.0
62870.01201480629,106459.0
62870.02201271967,106437.0
62870.03201063305,106425.0
62870.04200854643,106446.0
62870.05200645981,106452.0
62870.06200437319,106468.0
62870.072002286564,106485.0
62870.082000199945,106454.0
62870.09199811333,106459.0
62870.1019960267,106420.0
62870.11199394008,106486.0
62870.12199185346,106455.0
62870.131989766836,106482.0
62870.14198768022,106474.0
62870.1519855936,106472.0
62870.16198350697,106467.0
62870.17198142035,106446.0
62870.181979333734,106447.0
62870.19197724711,106428.0
62870.20197516049,106442.0
62870.21197307387,106451.0
62870.221970987244,106435.0
62870.231968900625,106463.0
62870.24196681401,106430.0
62870.25196472738,106439.0
62870.26196264076,106468.0
62870.27196055414,106419.0
62870.281958467516,106433.0
62870.2919563809,106422.0
62870.30195429428,106444.0
62870.31195220765,106420.0
62870.32195012103,106442.0
62870.331948034414,106431.0
62870.34194594779,106421.0
62870.35194386117,106443.0
62870.36194177455,106425.0
62870.371939687924,106433.0
62870.381937601305,106418.0
62870.391935514686,106454.0
62870.40193342806,106436.0
62870.41193134144,106414.0
62870.42192925482,106434.0
62870.431927168196,106419.0
62870.44192508158,106434.0
62870.45192299496,106427.0
62870.46192090833,106403.0
62870.47191882171,106399.0
62870.481916735094,106430.0
62870.49191464847,106397.0
62870.50191256185,106442.0
62870.51191047523,106411.0
62870.521908388604,106433.0
62870.531906301985,106430.0
62870.541904215366,106449.0
62870.55190212874,106430.0
62870.56190004212,106421.0
62870.5718979555,106441.0
62870.581895868876,106437.0
62870.59189378226,106458.0
62870.60189169564,106401.0
62870.61188960902,106423.0
62870.62188752239,106429.0
62870.631885435774,106419.0
62870.641883349155,106415.0
62870.65188126253,106425.0
62870.66187917591,106419.0
62870.67187708929,106410.0
62870.681875002665,106455.0
62870.691872916046,106435.0
62870.70187082943,106434.0
62870.7118687428,106465.0
62870.72186665618,106444.0
62870.73186456956,106440.0
62870.74186248294,106421.0
62870.75186039632,106434.0
62870.7618583097,106404.0
62870.77185622307,106436.0
62870.781854136454,106476.0
62870.791852049835,106454.0
62870.80184996321,106406.0
62870.81184787659,106438.0
62870.82184578997,106477.0
62870.831843703345,106449.0
62870.841841616726,106438.0
62870.85183953011,106442.0
62870.86183744348,106446.0
62870.87183535686,106429.0
62870.88183327024,106421.0
62870.89183118362,106443.0
62870.901829097,106409.0
62870.91182701038,106454.0
62870.92182492375,106420.0
62870.931822837134,106442.0
62870.941820750515,106427.0
62870.95181866389,106473.0
62870.96181657727,106421.0
62870.97181449065,106452.0
62870.981812404025,106446.0
62870.991810317406,106449.0
62871.00180823079,106440.0
62871.01180614416,106440.0
62871.02180405754,106456.0
62871.03180197092,106447.0
62871.0417998843,106459.0
62871.05179779768,106445.0
62871.06179571106,106432.0
62871.07179362443,106448.0
62871.081791537814,106470.0
62871.091789451195,106445.0
62871.10178736457,106434.0
62871.11178527795,106440.0
62871.12178319133,106417.0
62871.131781104705,106437.0
62871.141779018086,106430.0
62871.15177693147,106397.0
62871.16177484484,106438.0
62871.17177275822,106420.0
62871.1817706716,106442.0
62871.191768584984,106422.0
62871.20176649836,106442.0
62871.21176441174,106411.0
62871.22176232512,106400.0
62871.231760238494,106394.0
62871.241758151875,106406.0
62871.251756065256,106410.0
62871.26175397863,106388.0
62871.27175189201,106397.0
62871.28174980539,106381.0
62871.291747718766,106407.0
62871.30174563215,106415.0
62871.31174354553,106445.0
62871.3217414589,106391.0
62871.33173937228,106438.0
62871.341737285664,106417.0
62871.35173519904,106402.0
62871.36173311242,106460.0
62871.3717310258,106425.0
62871.38172893917,106425.0
62871.391726852555,106429.0
62871.401724765936,106386.0
62871.41172267931,106385.0
62871.42172059269,106414.0
62871.43171850607,106444.0
62871.441716419446,106403.0
62871.45171433283,106426.0
62871.46171224621,106429.0
62871.47171015958,106409.0
62871.48170807296,106429.0
62871.491705986344,106394.0
62871.50170389972,106428.0
62871.5117018131,106427.0
62871.52169972648,106405.0
62871.53169763985,106429.0
62871.541695553235,106422.0
62871.551693466616,106406.0
62871.56169137999,106421.0
62871.57168929337,106415.0
62871.58168720675,106420.0
62871.591685120125,106406.0
62871.60168303351,106413.0
62871.61168094689,106418.0
62871.62167886026,106424.0
62871.63167677364,106415.0
62871.64167468702,106424.0
62871.6516726004,106447.0
62871.66167051378,106405.0
62871.67166842716,106383.0
62871.68166634053,106414.0
62871.691664253914,106434.0
62871.701662167296,106425.0
62871.71166008067,106430.0
62871.72165799405,106403.0
62871.73165590743,106432.0
62871.741653820805,106434.0
62871.75165173419,106427.0
62871.76164964757,106386.0
62871.77164756095,106405.0
62871.78164547432,106436.0
62871.7916433877,106452.0
62871.801641301085,106442.0
62871.81163921446,106414.0
62871.82163712784,106430.0
62871.83163504122,106456.0
62871.841632954594,106412.0
62871.851630867975,106441.0
62871.86162878136,106430.0
62871.87162669473,106398.0
62871.88162460811,106466.0
62871.89162252149,106433.0
62871.901620434866,106440.0
62871.91161834825,106446.0
62871.92161626163,106390.0
62871.931614175,106386.0
62871.94161208838,106466.0
62871.951610001764,106441.0
62871.96160791514,106428.0
62871.97160582852,106461.0
62871.9816037419,106436.0
62871.991601655274,106432.0
62872.001599568655,106447.0
62872.01159748204,106418.0
62872.02159539541,106443.0
62872.03159330879,106429.0
62872.04159122217,106412.0
62872.051589135546,106423.0
62872.06158704893,106383.0
62872.07158496231,106412.0
62872.08158287568,106427.0
62872.09158078906,106402.0
62872.101578702444,106409.0
62872.11157661582,106424.0
62872.1215745292,106439.0
62872.13157244258,106399.0
62872.141570355954,106424.0
62872.151568269335,106413.0
62872.161566182716,106389.0
62872.17156409609,106427.0
62872.18156200947,106381.0
62872.19155992285,106409.0
62872.201557836226,106417.0
62872.21155574961,106422.0
62872.22155366299,106403.0
62872.23155157636,106410.0
62872.24154948974,106418.0
62872.251547403124,106443.0
62872.2615453165,106388.0
62872.27154322988,106410.0
62872.28154114326,106369.0
62872.291539056634,106402.0
62872.301536970015,106417.0
62872.311534883396,106412.0
62872.32153279677,106414.0
62872.33153071015,106385.0
62872.34152862353,106419.0
62872.35152653691,106416.0
62872.36152445029,106420.0
62872.37152236367,106442.0
62872.38152027705,106383.0
62872.39151819042,106420.0
62872.401516103804,106430.0
62872.411514017185,106420.0
62872.42151193056,106427.0
62872.43150984394,106429.0
62872.44150775732,106386.0
62872.451505670695,106423.0
62872.461503584076,106396.0
62872.47150149746,106421.0
62872.48149941083,106408.0
62872.49149732421,106417.0
62872.50149523759,106422.0
62872.51149315097,106415.0
62872.52149106435,106427.0
62872.53148897773,106413.0
62872.5414868911,106460.0
62872.551484804484,106429.0
62872.561482717865,106429.0
62872.57148063124,106441.0
62872.58147854462,106420.0
62872.591476458,106410.0
62872.601474371375,106424.0
62872.611472284756,106449.0
62872.62147019814,106409.0
62872.63146811151,106458.0
62872.64146602489,106428.0
62872.65146393827,106421.0
62872.66146185165,106470.0
62872.67145976503,106442.0
62872.68145767841,106445.0
62872.69145559178,106450.0
62872.701453505164,106416.0
62872.711451418545,106477.0
62872.72144933192,106445.0
62872.7314472453,106444.0
62872.74144515868,106430.0
62872.751443072055,106450.0
62872.761440985436,106455.0
62872.77143889882,106453.0
62872.78143681219,106447.0
62872.79143472557,106416.0
62872.80143263895,106441.0
62872.81143055233,106452.0
62872.82142846571,106430.0
62872.83142637909,106472.0
62872.84142429246,106440.0
62872.851422205844,106434.0
62872.861420119225,106458.0
62872.8714180326,106409.0
62872.88141594598,106448.0
62872.89141385936,106465.0
62872.901411772735,106436.0
62872.911409686116,106438.0
62872.9214075995,106447.0
62872.93140551288,106427.0
62872.94140342625,106420.0
62872.95140133963,106462.0
62872.961399253014,106449.0
62872.97139716639,106413.0
62872.98139507977,106470.0
62872.99139299315,106434.0
62873.001390906524,106431.0
62873.011388819905,106437.0
62873.021386733286,106405.0
62873.03138464666,106416.0
62873.04138256004,106434.0
62873.05138047342,106471.0
62873.061378386796,106435.0
62873.07137630018,106412.0
62873.08137421356,106446.0
62873.09137212693,106440.0
62873.10137004031,106423.0
62873.111367953694,106442.0
62873.12136586707,106450.0
62873.13136378045,106448.0
62873.14136169383,106439.0
62873.1513596072,106437.0
62873.161357520585,106439.0
62873.171355433966,106412.0
62873.18135334734,106427.0
62873.19135126072,106459.0
62873.2013491741,106440.0
62873.211347087476,106464.0
62873.22134500086,106452.0
62873.23134291424,106473.0
62873.24134082761,106455.0
62873.25133874099,106430.0
62873.261336654374,106429.0
62873.27133456775,106467.0
62873.28133248113,106434.0
62873.29133039451,106475.0
62873.30132830788,106430.0
62873.311326221265,106447.0
62873.321324134646,106483.0
62873.33132204802,106456.0
62873.3413199614,106444.0
62873.35131787478,106450.0
62873.361315788155,106453.0
62873.37131370154,106458.0
62873.38131161492,106460.0
62873.39130952829,106481.0
62873.40130744167,106475.0
62873.41130535505,106457.0
62873.42130326843,106446.0
62873.43130118181,106463.0
62873.44129909519,106474.0
62873.45129700856,106457.0
62873.461294921944,106461.0
62873.471292835326,106482.0
62873.4812907487,106458.0
62873.49128866208,106462.0
62873.50128657546,106450.0
62873.51128448884,106438.0
62873.52128240222,106451.0
62873.5312803156,106450.0
62873.54127822898,106485.0
62873.55127614235,106440.0
62873.56127405573,106472.0
62873.571271969115,106467.0
62873.58126988249,106486.0
62873.59126779587,106491.0
62873.60126570925,106471.0
62873.611263622624,106475.0
62873.621261536005,106477.0
62873.63125944939,106464.0
62873.64125736276,106483.0
62873.65125527614,106497.0
62873.66125318952,106453.0
62873.671251102896,106473.0
62873.68124901628,106450.0
62873.69124692966,106482.0
62873.70124484303,106469.0
62873.71124275641,106472.0
62873.721240669794,106457.0
62873.73123858317,106486.0
62873.74123649655,106500.0
62873.75123440993,106499.0
62873.761232323304,106496.0
62873.771230236685,106491.0
62873.78122815007,106475.0
62873.79122606344,106447.0
62873.80122397682,106459.0
62873.8112218902,106485.0
62873.821219803576,106497.0
62873.83121771696,106464.0
62873.84121563034,106457.0
62873.85121354371,106460.0
62873.86121145709,106437.0
62873.871209370474,106462.0
62873.88120728385,106456.0
62873.89120519723,106469.0
62873.90120311061,106456.0
62873.911201023984,106430.0
62873.921198937365,106470.0
62873.931196850746,106451.0
62873.94119476412,106456.0
62873.9511926775,106461.0
62873.96119059088,106476.0
62873.971188504256,106474.0
62873.98118641764,106461.0
62873.99118433102,106447.0
62874.00118224439,106456.0
62874.01118015777,106456.0
62874.021178071154,106471.0
62874.03117598453,106460.0
62874.04117389791,106481.0
62874.05117181129,106456.0
62874.061169724664,106464.0
62874.071167638045,106442.0
62874.081165551426,106439.0
62874.09116346481,106443.0
62874.10116137818,106481.0
62874.11115929156,106442.0
62874.12115720494,106437.0
62874.13115511832,106489.0
62874.1411530317,106467.0
62874.15115094508,106473.0
62874.16114885845,106498.0
62874.171146771834,106472.0
62874.181144685215,106454.0
62874.19114259859,106463.0
62874.20114051197,106461.0
62874.21113842535,106472.0
62874.221136338725,106469.0
62874.231134252106,106445.0
62874.24113216549,106501.0
62874.25113007886,106448.0
62874.26112799224,106475.0
62874.27112590562,106449.0
62874.281123819,106458.0
62874.29112173238,106487.0
62874.30111964576,106477.0
62874.31111755913,106474.0
62874.321115472514,106489.0
62874.331113385895,106483.0
62874.34111129927,106475.0
62874.35110921265,106470.0
62874.36110712603,106504.0
62874.371105039405,106462.0
62874.381102952786,106481.0
62874.39110086617,106506.0
62874.40109877954,106513.0
62874.41109669292,106506.0
62874.4210946063,106497.0
62874.43109251968,106511.0
62874.44109043306,106453.0
62874.45108834644,106467.0
62874.46108625981,106486.0
62874.471084173194,106484.0
62874.481082086575,106511.0
62874.49107999995,106472.0
62874.50107791333,106493.0
62874.51107582671,106509.0
62874.521073740085,106500.0
62874.531071653466,106459.0
62874.54106956685,106490.0
62874.55106748022,106456.0
62874.5610653936,106513.0
62874.57106330698,106498.0
62874.58106122036,106488.0
62874.59105913374,106505.0
62874.60105704712,106482.0
62874.61105496049,106464.0
62874.621052873874,106476.0
62874.631050787255,106506.0
62874.64104870063,106483.0
62874.65104661401,106487.0
62874.66104452739,106500.0
62874.67104244077,106483.0
62874.681040354146,106492.0
62874.69103826753,106485.0
62874.70103618091,106531.0
62874.71103409428,106463.0
62874.72103200766,106439.0
62874.731029921044,106481.0
62874.74102783442,106473.0
62874.7510257478,106487.0
62874.76102366118,106481.0
62874.771021574554,106459.0
62874.781019487935,106454.0
62874.791017401316,106470.0
62874.80101531469,106473.0
62874.81101322807,106482.0
62874.82101114145,106476.0
62874.831009054826,106480.0
62874.84100696821,106490.0
62874.85100488159,106487.0
62874.86100279496,106452.0
62874.87100070834,106474.0
62874.880998621724,106492.0
62874.8909965351,106506.0
62874.90099444848,106487.0
62874.91099236186,106501.0
62874.92099027523,106470.0
62874.930988188615,106503.0
62874.940986101996,106460.0
62874.95098401537,106490.0
62874.96098192875,106453.0
62874.97097984213,106494.0
62874.980977755506,106470.0
62874.99097566889,106469.0
62875.00097358227,106472.0
62875.01097149564,106462.0
62875.02096940902,106510.0
62875.030967322404,106490.0
62875.04096523578,106466.0
62875.05096314916,106493.0
62875.06096106254,106499.0
62875.07095897591,106488.0
62875.080956889295,106500.0
62875.090954802676,106467.0
62875.10095271605,106486.0
62875.11095062943,106505.0
62875.12094854281,106481.0
62875.130946456185,106448.0
62875.14094436957,106475.0
62875.15094228295,106490.0
62875.16094019632,106483.0
62875.1709381097,106507.0
62875.18093602308,106481.0
62875.19093393646,106495.0
62875.20093184984,106507.0
62875.21092976322,106464.0
62875.22092767659,106519.0
62875.230925589975,106502.0
62875.240923503356,106488.0
62875.25092141674,106509.0
62875.26091933011,106501.0
62875.27091724349,106501.0
62875.28091515687,106504.0
62875.29091307025,106509.0
62875.30091098363,106458.0
62875.31090889701,106516.0
62875.32090681038,106508.0
62875.33090472376,106484.0
62875.340902637145,106462.0
62875.35090055052,106475.0
62875.3608984639,106498.0
62875.37089637728,106505.0
62875.380894290654,106456.0
62875.390892204035,106511.0
62875.40089011742,106494.0
62875.41088803079,106488.0
62875.42088594417,106521.0
62875.43088385755,106514.0
62875.440881770926,106504.0
62875.45087968431,106495.0
62875.46087759769,106505.0
62875.47087551106,106481.0
62875.48087342444,106499.0
62875.490871337825,106529.0
62875.5008692512,106487.0
62875.51086716458,106529.0
62875.52086507796,106503.0
62875.530862991334,106466.0
62875.540860904715,106519.0
62875.5508588181,106479.0
62875.56085673147,106504.0
62875.57085464485,106505.0
62875.58085255823,106493.0
62875.590850471606,106455.0
62875.60084838499,106498.0
62875.61084629837,106493.0
62875.62084421174,106454.0
62875.63084212512,106505.0
62875.640840038504,106506.0
62875.65083795188,106490.0
62875.66083586526,106521.0
62875.67083377864,106472.0
62875.680831692014,106494.0
62875.690829605395,106491.0
62875.700827518776,106444.0
62875.71082543215,106460.0
62875.72082334553,106483.0
62875.73082125891,106478.0
62875.740819172286,106489.0
62875.75081708567,106487.0
62875.76081499905,106487.0
62875.77081291242,106456.0
62875.7808108258,106505.0
62875.790808739184,106466.0
62875.80080665256,106494.0
62875.81080456594,106502.0
62875.82080247932,106466.0
62875.8308003927,106501.0
62875.840798306075,106494.0
62875.850796219456,106499.0
62875.86079413284,106531.0
62875.87079204621,106491.0
62875.88078995959,106488.0
62875.89078787297,106469.0
62875.90078578635,106495.0
62875.91078369973,106478.0
62875.92078161311,106475.0
62875.93077952648,106460.0
62875.940777439864,106470.0
62875.950775353245,106511.0
62875.96077326662,106474.0
62875.97077118,106485.0
62875.98076909338,106506.0
62875.990767006755,106494.0
62876.000764920136,106493.0
62876.01076283352,106501.0
62876.02076074689,106514.0
62876.03075866027,106519.0
62876.04075657365,106497.0
62876.05075448703,106491.0
62876.06075240041,106457.0
62876.07075031379,106520.0
62876.08074822716,106497.0
62876.090746140544,106484.0
62876.100744053925,106510.0
62876.1107419673,106477.0
62876.12073988068,106476.0
62876.13073779406,106490.0
62876.140735707435,106484.0
62876.150733620816,106508.0
62876.1607315342,106501.0
62876.17072944757,106470.0
62876.18072736095,106492.0
62876.19072527433,106522.0
62876.20072318771,106486.0
62876.21072110109,106502.0
62876.22071901447,106523.0
62876.23071692784,106477.0
62876.240714841224,106521.0
62876.250712754605,106507.0
62876.26071066798,106492.0
62876.27070858136,106520.0
62876.28070649474,106478.0
62876.290704408115,106493.0
62876.300702321496,106478.0
62876.31070023488,106480.0
62876.32069814825,106497.0
62876.33069606163,106497.0
62876.34069397501,106480.0
62876.35069188839,106523.0
62876.36068980177,106531.0
62876.37068771515,106513.0
62876.38068562852,106491.0
62876.390683541904,106538.0
62876.400681455285,106467.0
62876.410679368666,106496.0
62876.42067728204,106515.0
62876.43067519542,106471.0
62876.4406731088,106513.0
62876.450671022176,106486.0
62876.46066893556,106465.0
62876.47066684894,106477.0
62876.48066476231,106507.0
62876.49066267569,106487.0
62876.500660589074,106472.0
62876.51065850245,106492.0
62876.52065641583,106446.0
62876.53065432921,106488.0
62876.540652242584,106467.0
62876.550650155965,106457.0
62876.560648069346,106506.0
62876.57064598272,106503.0
62876.5806438961,106476.0
62876.59064180948,106466.0
62876.600639722856,106454.0
62876.61063763624,106468.0
62876.62063554962,106475.0
62876.63063346299,106492.0
62876.64063137637,106469.0
62876.650629289754,106464.0
62876.66062720313,106487.0
62876.67062511651,106470.0
62876.68062302989,106486.0
62876.690620943264,106454.0
62876.700618856645,106479.0
62876.710616770026,106474.0
62876.7206146834,106450.0
62876.73061259678,106481.0
62876.74061051016,106479.0
62876.750608423536,106458.0
62876.76060633692,106464.0
62876.7706042503,106499.0
62876.78060216367,106476.0
62876.79060007705,106437.0
62876.800597990434,106486.0
62876.81059590381,106450.0
62876.82059381719,106478.0
62876.83059173057,106502.0
62876.84058964394,106463.0
62876.850587557325,106482.0
62876.860585470706,106480.0
62876.87058338408,106456.0
62876.88058129746,106479.0
62876.89057921084,106489.0
62876.900577124215,106484.0
62876.9105750376,106484.0
62876.92057295098,106479.0
62876.93057086435,106481.0
62876.94056877773,106476.0
62876.95056669111,106489.0
62876.96056460449,106463.0
62876.97056251787,106518.0
62876.98056043125,106481.0
62876.99055834463,106463.0
62877.000556258005,106478.0
62877.010554171386,106495.0
62877.02055208477,106494.0
62877.03054999814,106474.0
62877.04054791152,106476.0
62877.0505458249,106495.0
62877.06054373828,106498.0
62877.07054165166,106501.0
62877.08053956504,106489.0
62877.09053747841,106516.0
62877.10053539179,106454.0
62877.110533305175,106478.0
62877.12053121855,106491.0
62877.13052913193,106467.0
62877.14052704531,106486.0
62877.150524958684,106505.0
62877.160522872065,106466.0
62877.17052078545,106494.0
62877.18051869882,106488.0
62877.1905166122,106510.0
62877.20051452558,106466.0
62877.210512438956,106520.0
62877.22051035234,106498.0
62877.23050826572,106499.0
62877.24050617909,106465.0
62877.25050409247,106461.0
62877.260502005855,106491.0
62877.27049991923,106475.0
62877.28049783261,106500.0
62877.29049574599,106466.0
62877.300493659364,106506.0
62877.310491572745,106483.0
62877.32048948613,106474.0
62877.3304873995,106509.0
62877.34048531288,106494.0
62877.35048322626,106462.0
62877.360481139636,106448.0
62877.37047905302,106426.0
62877.3804769664,106458.0
62877.39047487977,106462.0
62877.40047279315,106450.0
62877.410470706534,106465.0
62877.42046861991,106464.0
62877.43046653329,106453.0
62877.44046444667,106451.0
62877.450462360044,106453.0
62877.460460273425,106474.0
62877.470458186806,106458.0
62877.48045610018,106478.0
62877.49045401356,106438.0
62877.50045192694,106484.0
62877.510449840316,106453.0
62877.5204477537,106429.0
62877.53044566708,106437.0
62877.54044358045,106451.0
62877.55044149383,106461.0
62877.560439407214,106479.0
62877.570437320595,106483.0
62877.58043523397,106470.0
62877.59043314735,106459.0
62877.60043106073,106479.0
62877.610428974105,106467.0
62877.620426887486,106484.0
62877.63042480087,106441.0
62877.64042271424,106445.0
62877.65042062762,106421.0
62877.660418541,106441.0
62877.67041645438,106473.0
62877.68041436776,106472.0
62877.69041228114,106443.0
62877.70041019451,106441.0
62877.710408107894,106472.0
62877.720406021275,106471.0
62877.73040393465,106475.0
62877.74040184803,106457.0
62877.75039976141,106474.0
62877.760397674785,106454.0
62877.770395588166,106488.0
62877.78039350155,106444.0
62877.79039141492,106476.0
62877.8003893283,106501.0
62877.81038724168,106439.0
62877.82038515506,106494.0
62877.83038306844,106466.0
62877.84038098182,106467.0
62877.85037889519,106484.0
62877.860376808574,106446.0
62877.870374721955,106484.0
62877.88037263533,106481.0
62877.89037054871,106451.0
62877.90036846209,106462.0
62877.910366375465,106460.0
62877.920364288846,106471.0
62877.93036220223,106456.0
62877.9403601156,106493.0
62877.95035802898,106473.0
62877.96035594236,106487.0
62877.97035385574,106446.0
62877.98035176912,106475.0
62877.9903496825,106503.0
62878.00034759587,106474.0
62878.010345509254,106460.0
62878.020343422635,106502.0
62878.03034133601,106441.0
62878.04033924939,106470.0
62878.05033716277,106463.0
62878.060335076145,106443.0
62878.070332989526,106466.0
62878.08033090291,106485.0
62878.09032881628,106472.0
62878.10032672966,106494.0
62878.11032464304,106485.0
62878.12032255642,106488.0
62878.1303204698,106477.0
62878.14031838318,106503.0
62878.15031629656,106467.0
62878.160314209934,106470.0
62878.170312123315,106494.0
62878.180310036696,106487.0
62878.19030795007,106470.0
62878.20030586345,106475.0
62878.21030377683,106494.0
62878.220301690206,106438.0
62878.23029960359,106488.0
62878.24029751697,106467.0
62878.25029543034,106437.0
62878.26029334372,106476.0
62878.270291257104,106429.0
62878.28028917048,106471.0
62878.29028708386,106442.0
62878.30028499724,106430.0
62878.310282910614,106475.0
62878.320280823995,106470.0
62878.330278737376,106473.0
62878.34027665075,106455.0
62878.35027456413,106484.0
62878.36027247751,106461.0
62878.370270390886,106461.0
62878.38026830427,106435.0
62878.39026621765,106452.0
62878.40026413102,106468.0
62878.4102620444,106455.0
62878.420259957784,106470.0
62878.43025787116,106487.0
62878.44025578454,106454.0
62878.45025369792,106446.0
62878.460251611294,106472.0
62878.470249524675,106441.0
62878.480247438056,106474.0
62878.49024535143,106475.0
62878.50024326481,106455.0
62878.51024117819,106480.0
62878.520239091566,106458.0
62878.53023700495,106470.0
62878.54023491833,106473.0
62878.5502328317,106476.0
62878.56023074508,106437.0
62878.570228658464,106423.0
62878.58022657184,106475.0
62878.59022448522,106465.0
62878.6002223986,106468.0
62878.61022031197,106463.0
62878.620218225355,106465.0
62878.630216138736,106469.0
62878.64021405211,106475.0
62878.65021196549,106469.0
62878.66020987887,106489.0
62878.670207792245,106463.0
62878.68020570563,106491.0
62878.69020361901,106469.0
62878.70020153238,106446.0
62878.71019944576,106472.0
62878.720197359144,106496.0
62878.730195272525,106467.0
62878.7401931859,106440.0
62878.75019109928,106495.0
62878.76018901266,106452.0
62878.770186926035,106481.0
62878.780184839416,106491.0
62878.7901827528,106475.0
62878.80018066617,106455.0
62878.81017857955,106475.0
62878.82017649293,106460.0
62878.83017440631,106467.0
62878.84017231969,106477.0
62878.85017023307,106479.0
62878.86016814644,106464.0
62878.87016605982,106500.0
62878.880163973205,106470.0
62878.89016188658,106480.0
62878.90015979996,106464.0
62878.91015771334,106497.0
62878.920155626714,106505.0
62878.930153540095,106484.0
62878.94015145348,106478.0
62878.95014936685,106488.0
62878.96014728023,106527.0
62878.97014519361,106483.0
62878.980143106986,106442.0
62878.99014102037,106504.0
62879.00013893375,106475.0
62879.01013684712,106497.0
62879.0201347605,106496.0
62879.030132673885,106467.0
62879.04013058726,106497.0
62879.05012850064,106505.0
62879.06012641402,106482.0
62879.070124327394,106457.0
62879.080122240775,106478.0
62879.09012015416,106477.0
62879.10011806753,106506.0
62879.11011598091,106479.0
62879.12011389429,106503.0
62879.130111807666,106459.0
62879.14010972105,106452.0
62879.15010763443,106450.0
62879.1601055478,106485.0
62879.17010346118,106474.0
62879.180101374564,106450.0
62879.19009928794,106477.0
62879.20009720132,106467.0
62879.2100951147,106465.0
62879.220093028074,106456.0
62879.230090941455,106436.0
62879.240088854836,106473.0
62879.25008676821,106461.0
62879.26008468159,106444.0
62879.27008259497,106467.0
62879.280080508346,106473.0
62879.29007842173,106458.0
62879.30007633511,106461.0
62879.31007424849,106444.0
62879.32007216186,106433.0
62879.330070075244,106477.0
62879.340067988625,106464.0
62879.350065902,106447.0
62879.36006381538,106475.0
62879.37006172876,106440.0
62879.380059642135,106463.0
62879.390057555516,106436.0
62879.4000554689,106456.0
62879.41005338227,106481.0
62879.42005129565,106468.0
62879.43004920903,106463.0
62879.44004712241,106482.0
62879.45004503579,106489.0
62879.46004294917,106454.0
62879.47004086254,106453.0
62879.480038775924,106487.0
62879.490036689305,106387.0
62879.50003460268,106460.0
62879.51003251606,106484.0
62879.52003042944,106451.0
62879.530028342815,106485.0
62879.540026256196,106481.0
62879.55002416958,106462.0
62879.56002208295,106455.0
62879.57001999633,106499.0
62879.58001790971,106482.0
62879.59001582309,106475.0
62879.60001373647,106468.0
62879.61001164985,106465.0
62879.62000956322,106489.0
62879.630007476604,106467.0
62879.640005389985,106441.0
62879.65000330336,106494.0
62879.66000121674,106473.0
62879.66999913012,106479.0
62879.679997043495,106473.0
62879.689994956876,106457.0
62879.69999287026,106473.0
62879.70999078363,106481.0
62879.71998869701,106487.0
62879.72998661039,106488.0
62879.73998452377,106484.0
62879.74998243715,106488.0
62879.75998035053,106474.0
62879.7699782639,106491.0
62879.779976177284,106479.0
62879.789974090665,106463.0
62879.79997200404,106489.0
62879.80996991742,106447.0
62879.8199678308,106493.0
62879.829965744175,106445.0
62879.839963657556,106476.0
62879.84996157094,106473.0
62879.85995948431,106487.0
62879.86995739769,106471.0
62879.87995531107,106510.0
62879.889953224454,106454.0
62879.89995113783,106470.0
62879.90994905121,106514.0
62879.91994696459,106506.0
62879.929944877964,106484.0
62879.939942791345,106486.0
62879.949940704726,106480.0
62879.9599386181,106448.0
62879.96993653148,106458.0
62879.97993444486,106458.0
62879.989932358236,106479.0
62879.99993027162,106476.0
62880.009928185,106474.0
62880.01992609837,106462.0
62880.02992401175,106476.0
62880.039921925134,106458.0
62880.04991983851,106459.0
62880.05991775189,106440.0
62880.06991566527,106467.0
62880.079913578644,106450.0
62880.089911492025,106462.0
62880.099909405406,106485.0
62880.10990731878,106456.0
62880.11990523216,106471.0
62880.12990314554,106431.0
62880.139901058916,106436.0
62880.1498989723,106471.0
62880.15989688568,106453.0
62880.16989479905,106439.0
62880.17989271243,106458.0
62880.189890625814,106462.0
62880.19988853919,106429.0
62880.20988645257,106434.0
62880.21988436595,106480.0
62880.229882279324,106468.0
62880.239880192705,106484.0
62880.249878106086,106478.0
62880.25987601946,106455.0
62880.26987393284,106462.0
62880.27987184622,106447.0
62880.289869759596,106459.0
62880.29986767298,106438.0
62880.30986558636,106452.0
62880.31986349973,106480.0
62880.32986141311,106489.0
62880.339859326494,106448.0
62880.34985723987,106457.0
62880.35985515325,106451.0
62880.36985306663,106420.0
62880.37985098,106464.0
62880.389848893385,106469.0
62880.399846806766,106442.0
62880.40984472014,106462.0
62880.41984263352,106446.0
62880.4298405469,106461.0
62880.439838460275,106502.0
62880.44983637366,106486.0
62880.45983428704,106442.0
62880.46983220042,106457.0
62880.47983011379,106483.0
62880.489828027174,106488.0
62880.499825940555,106481.0
62880.50982385393,106468.0
62880.51982176731,106487.0
62880.52981968069,106451.0
62880.539817594065,106473.0
62880.549815507446,106472.0
62880.55981342083,106488.0
62880.5698113342,106462.0
62880.57980924758,106473.0
62880.58980716096,106472.0
62880.59980507434,106468.0
62880.60980298772,106474.0
62880.6198009011,106465.0
62880.62979881447,106479.0
62880.63979672785,106458.0
62880.649794641235,106468.0
62880.65979255461,106474.0
62880.66979046799,106484.0
62880.67978838137,106441.0
62880.689786294744,106481.0
62880.699784208125,106475.0
62880.70978212151,106475.0
62880.71978003488,106476.0
62880.72977794826,106486.0
62880.73977586164,106458.0
62880.74977377502,106476.0
62880.7597716884,106489.0
62880.76976960178,106498.0
62880.77976751515,106457.0
62880.78976542853,106471.0
62880.799763341915,106475.0
62880.80976125529,106476.0
62880.81975916867,106509.0
62880.82975708205,106458.0
62880.839754995424,106497.0
62880.849752908805,106461.0
62880.85975082219,106516.0
62880.86974873556,106477.0
62880.87974664894,106487.0
62880.88974456232,106477.0
62880.899742475696,106482.0
62880.90974038908,106453.0
62880.91973830246,106486.0
62880.92973621583,106451.0
62880.93973412921,106502.0
62880.949732042594,106433.0
62880.95972995597,106467.0
62880.96972786935,106433.0
62880.97972578273,106478.0
62880.989723696104,106461.0
62880.999721609485,106462.0
62881.00971952287,106453.0
62881.01971743624,106482.0
62881.02971534962,106437.0
62881.039713263,106464.0
62881.04971117638,106459.0
62881.05970908976,106461.0
62881.06970700314,106451.0
62881.07970491652,106446.0
62881.08970282989,106467.0
62881.099700743274,106450.0
62881.109698656655,106464.0
62881.11969657003,106459.0
62881.12969448341,106436.0
62881.13969239679,106453.0
62881.149690310165,106464.0
62881.159688223546,106459.0
62881.16968613693,106446.0
62881.1796840503,106490.0
62881.18968196368,106447.0
62881.19967987706,106469.0
62881.20967779044,106425.0
62881.21967570382,106462.0
62881.2296736172,106489.0
62881.23967153057,106466.0
62881.249669443954,106455.0
62881.259667357335,106463.0
62881.26966527071,106490.0
62881.27966318409,106463.0
62881.28966109747,106469.0
62881.299659010845,106485.0
62881.309656924226,106471.0
62881.31965483761,106465.0
62881.32965275098,106467.0
62881.33965066436,106477.0
62881.34964857774,106469.0
62881.35964649112,106433.0
62881.3696444045,106469.0
62881.37964231788,106472.0
62881.38964023125,106482.0
62881.399638144634,106474.0
62881.409636058015,106459.0
62881.41963397139,106477.0
62881.42963188477,106472.0
62881.43962979815,106463.0
62881.449627711525,106481.0
62881.459625624906,106464.0
62881.46962353829,106511.0
62881.47962145166,106458.0
62881.48961936504,106466.0
62881.49961727842,106488.0
62881.5096151918,106465.0
62881.51961310518,106472.0
62881.52961101856,106474.0
62881.53960893193,106455.0
62881.549606845314,106492.0
62881.559604758695,106488.0
62881.56960267207,106473.0
62881.57960058545,106472.0
62881.58959849883,106483.0
62881.599596412205,106476.0
62881.609594325586,106451.0
62881.61959223897,106479.0
62881.62959015235,106451.0
62881.63958806572,106479.0
62881.6495859791,106492.0
62881.659583892484,106486.0
62881.66958180586,106519.0
62881.67957971924,106485.0
62881.68957763262,106488.0
62881.699575545994,106495.0
62881.709573459375,106470.0
62881.719571372756,106520.0
62881.72956928613,106498.0
62881.73956719951,106540.0
62881.74956511289,106496.0
62881.759563026266,106515.0
62881.76956093965,106491.0
62881.77955885303,106489.0
62881.7895567664,106502.0
62881.79955467978,106499.0
62881.809552593164,106499.0
62881.81955050654,106509.0
62881.82954841992,106501.0
62881.8395463333,106522.0
62881.849544246674,106501.0
62881.859542160055,106509.0
62881.869540073436,106537.0
62881.87953798681,106476.0
62881.88953590019,106481.0
62881.89953381357,106465.0
62881.909531726946,106514.0
62881.91952964033,106473.0
62881.92952755371,106494.0
62881.93952546708,106481.0
62881.94952338046,106480.0
62881.959521293844,106482.0
62881.96951920722,106474.0
62881.9795171206,106485.0
62881.98951503398,106512.0
62881.999512947354,106492.0
62882.009510860735,106467.0
62882.019508774116,106485.0
62882.02950668749,106485.0
62882.03950460087,106484.0
62882.04950251425,106465.0
62882.059500427626,106491.0
62882.06949834101,106471.0
62882.07949625439,106518.0
62882.08949416776,106477.0
62882.09949208114,106495.0
62882.109489994524,106495.0
62882.1194879079,106480.0
62882.12948582128,106496.0
62882.13948373466,106499.0
62882.14948164803,106462.0
62882.159479561415,106488.0
62882.169477474796,106480.0
62882.17947538817,106496.0
62882.18947330155,106477.0
62882.19947121493,106504.0
62882.20946912831,106465.0
62882.21946704169,106491.0
62882.22946495507,106517.0
62882.23946286845,106482.0
62882.24946078182,106490.0
62882.259458695204,106498.0
62882.269456608585,106450.0
62882.27945452196,106501.0
62882.28945243534,106475.0
62882.29945034872,106499.0
62882.309448262095,106455.0
62882.319446175476,106523.0
62882.32944408886,106516.0
62882.33944200223,106503.0
62882.34943991561,106486.0
62882.35943782899,106506.0
62882.36943574237,106523.0
62882.37943365575,106515.0
62882.38943156913,106504.0
62882.3994294825,106553.0
62882.40942739588,106465.0
62882.419425309265,106499.0
62882.42942322264,106516.0
62882.43942113602,106504.0
62882.4494190494,106496.0
62882.459416962774,106514.0
62882.469414876155,106505.0
62882.47941278954,106473.0
62882.48941070291,106514.0
62882.49940861629,106516.0
62882.50940652967,106507.0
62882.51940444305,106535.0
62882.52940235643,106503.0
62882.53940026981,106530.0
62882.54939818318,106523.0
62882.55939609656,106514.0
62882.569394009945,106509.0
62882.57939192332,106528.0
62882.5893898367,106501.0
62882.59938775008,106528.0
62882.609385663454,106527.0
62882.619383576835,106515.0
62882.62938149022,106493.0
62882.63937940359,106493.0
62882.64937731697,106545.0
62882.65937523035,106553.0
62882.669373143726,106495.0
62882.67937105711,106520.0
62882.68936897049,106506.0
62882.69936688386,106500.0
62882.70936479724,106526.0
62882.719362710624,106541.0
62882.729360624,106517.0
62882.73935853738,106507.0
62882.74935645076,106529.0
62882.75935436414,106520.0
62882.769352277515,106533.0
62882.7793501909,106535.0
62882.78934810428,106530.0
62882.79934601765,106522.0
62882.80934393103,106504.0
62882.81934184441,106476.0
62882.82933975779,106520.0
62882.83933767117,106538.0
62882.84933558455,106508.0
62882.85933349792,106554.0
62882.869331411304,106522.0
62882.879329324685,106500.0
62882.88932723806,106524.0
62882.89932515144,106504.0
62882.90932306482,106510.0
62882.919320978195,106510.0
62882.929318891576,106531.0
62882.93931680496,106513.0
62882.94931471833,106515.0
62882.95931263171,106490.0
62882.96931054509,106493.0
62882.97930845847,106530.0
62882.98930637185,106511.0
62882.99930428523,106492.0
62883.0093021986,106538.0
62883.019300111984,106495.0
62883.029298025365,106520.0
62883.03929593874,106496.0
62883.04929385212,106493.0
62883.0592917655,106476.0
62883.069289678875,106478.0
62883.079287592256,106451.0
62883.08928550564,106460.0
62883.09928341901,106444.0
62883.10928133239,106439.0
62883.11927924577,106415.0
62883.12927715915,106457.0
62883.13927507253,106443.0
62883.14927298591,106440.0
62883.15927089928,106470.0
62883.169268812664,106412.0
62883.179266726045,106466.0
62883.18926463942,106465.0
62883.1992625528,106463.0
62883.20926046618,106458.0
62883.219258379555,106442.0
62883.229256292936,106473.0
62883.23925420632,106451.0
62883.24925211969,106452.0
62883.25925003307,106507.0
62883.26924794645,106476.0
62883.27924585983,106483.0
62883.28924377321,106479.0
62883.29924168659,106459.0
62883.30923959996,106516.0
62883.319237513344,106500.0
62883.329235426725,106532.0
62883.339233340106,106517.0
62883.34923125348,106487.0
62883.35922916686,106483.0
62883.36922708024,106503.0
62883.379224993616,106504.0
62883.389222907,106479.0
62883.39922082038,106506.0
62883.40921873375,106498.0
62883.41921664713,106519.0
62883.429214560514,106475.0
62883.43921247389,106510.0
62883.44921038727,106519.0
62883.45920830065,106509.0
62883.469206214024,106498.0
62883.479204127405,106494.0
62883.489202040786,106476.0
62883.49919995416,106538.0
62883.50919786754,106493.0
62883.51919578092,106516.0
62883.529193694296,106492.0
62883.53919160768,106523.0
62883.54918952106,106493.0
62883.55918743443,106519.0
62883.56918534781,106532.0
62883.579183261194,106485.0
62883.58918117457,106528.0
62883.59917908795,106514.0
62883.60917700133,106493.0
62883.619174914704,106498.0
62883.629172828085,106541.0
62883.639170741466,106513.0
62883.64916865484,106479.0
62883.65916656822,106529.0
62883.6691644816,106513.0
62883.679162394976,106499.0
62883.68916030836,106478.0
62883.69915822174,106526.0
62883.70915613511,106479.0
62883.71915404849,106495.0
62883.729151961874,106518.0
62883.73914987525,106493.0
62883.74914778863,106501.0
62883.75914570201,106493.0
62883.769143615384,106492.0
62883.779141528765,106501.0
62883.789139442146,106497.0
62883.79913735552,106502.0
62883.8091352689,106484.0
62883.81913318228,106502.0
62883.829131095656,106496.0
62883.83912900904,106497.0
62883.84912692242,106507.0
62883.85912483579,106475.0
62883.86912274917,106497.0
62883.879120662554,106485.0
62883.88911857593,106497.0
62883.89911648931,106519.0
62883.90911440269,106489.0
62883.91911231607,106502.0
62883.929110229445,106477.0
62883.939108142826,106478.0
62883.94910605621,106468.0
62883.95910396958,106477.0
62883.96910188296,106495.0
62883.97909979634,106520.0
62883.98909770972,106508.0
62883.9990956231,106526.0
62884.00909353648,106498.0
62884.01909144985,106504.0
62884.029089363234,106479.0
62884.039087276615,106470.0
62884.04908518999,106505.0
62884.05908310337,106479.0
62884.06908101675,106507.0
62884.079078930125,106511.0
62884.089076843506,106502.0
62884.09907475689,106487.0
62884.10907267026,106504.0
62884.11907058364,106468.0
62884.12906849702,106493.0
62884.1390664104,106506.0
62884.14906432378,106494.0
62884.15906223716,106509.0
62884.16906015053,106505.0
62884.17905806391,106537.0
62884.189055977295,106534.0
62884.19905389067,106494.0
62884.20905180405,106510.0
62884.21904971743,106527.0
62884.229047630804,106499.0
62884.239045544186,106529.0
62884.24904345757,106510.0
62884.25904137094,106485.0
62884.26903928432,106499.0
62884.2790371977,106501.0
62884.28903511108,106510.0
62884.29903302446,106489.0
62884.30903093784,106490.0
62884.31902885121,106504.0
62884.32902676459,106509.0
62884.339024677975,106507.0
62884.34902259135,106495.0
62884.35902050473,106523.0
62884.36901841811,106511.0
62884.379016331484,106501.0
62884.389014244865,106521.0
62884.39901215825,106520.0
62884.40901007162,106501.0
62884.419007985,106536.0
62884.42900589838,106503.0
62884.439003811756,106517.0
62884.44900172514,106519.0
62884.45899963852,106493.0
62884.46899755189,106505.0
62884.47899546527,106511.0
62884.488993378654,106502.0
62884.498991292035,106507.0
62884.50898920541,106496.0
62884.51898711879,106480.0
62884.52898503217,106514.0
62884.538982945545,106505.0
62884.54898085893,106459.0
62884.55897877231,106507.0
62884.56897668568,106495.0
62884.57897459906,106484.0
62884.58897251244,106510.0
62884.59897042582,106479.0
62884.6089683392,106485.0
62884.61896625258,106488.0
62884.62896416595,106467.0
62884.638962079334,106487.0
62884.648959992715,106508.0
62884.65895790609,106480.0
62884.66895581947,106468.0
62884.67895373285,106496.0
62884.688951646225,106484.0
62884.698949559606,106483.0
62884.70894747299,106473.0
62884.71894538636,106468.0
62884.72894329974,106508.0
62884.73894121312,106495.0
62884.7489391265,106484.0
62884.75893703988,106497.0
62884.76893495326,106488.0
62884.77893286663,106481.0
62884.788930780014,106508.0
62884.798928693395,106465.0
62884.80892660677,106479.0
62884.81892452015,106486.0
62884.82892243353,106510.0
62884.838920346905,106475.0
62884.848918260286,106503.0
62884.85891617367,106497.0
62884.86891408704,106462.0
62884.87891200042,106475.0
62884.8889099138,106467.0
62884.89890782718,106505.0
62884.90890574056,106508.0
62884.91890365394,106498.0
62884.92890156731,106480.0
62884.938899480694,106489.0
62884.948897394075,106495.0
62884.95889530745,106468.0
62884.96889322083,106491.0
62884.97889113421,106496.0
62884.988889047585,106486.0
62884.998886960966,106500.0
62885.00888487435,106485.0
62885.01888278772,106497.0
62885.0288807011,106478.0
62885.03887861448,106483.0
62885.04887652786,106487.0
62885.05887444124,106505.0
62885.06887235462,106498.0
62885.078870268,106481.0
62885.088868181374,106506.0
62885.098866094755,106504.0
62885.108864008136,106507.0
62885.11886192151,106502.0
62885.12885983489,106502.0
62885.13885774827,106512.0
62885.148855661646,106523.0
62885.15885357503,106467.0
62885.16885148841,106516.0
62885.17884940178,106507.0
62885.18884731516,106499.0
62885.198845228544,106527.0
62885.20884314192,106499.0
62885.2188410553,106503.0
62885.22883896868,106475.0
62885.238836882054,106518.0
62885.248834795435,106492.0
62885.258832708816,106511.0
62885.26883062219,106474.0
62885.27882853557,106482.0
62885.28882644895,106514.0
62885.298824362326,106493.0
62885.30882227571,106492.0
62885.31882018909,106546.0
62885.32881810246,106463.0
62885.33881601584,106502.0
62885.348813929224,106491.0
62885.3588118426,106502.0
62885.36880975598,106499.0
62885.37880766936,106463.0
62885.388805582734,106498.0
62885.398803496115,106490.0
62885.408801409496,106465.0
62885.41879932287,106479.0
62885.42879723625,106493.0
62885.43879514963,106463.0
62885.448793063006,106485.0
62885.45879097639,106504.0
62885.46878888977,106477.0
62885.47878680314,106450.0
62885.48878471652,106488.0
62885.498782629904,106488.0
62885.50878054328,106482.0
62885.51877845666,106506.0
62885.52877637004,106441.0
62885.538774283414,106473.0
62885.548772196795,106483.0
62885.558770110176,106459.0
62885.56876802355,106457.0
62885.57876593693,106489.0
62885.58876385031,106461.0
62885.598761763686,106454.0
62885.60875967707,106485.0
62885.61875759045,106465.0
62885.62875550382,106475.0
62885.6387534172,106470.0
62885.648751330584,106461.0
62885.658749243965,106474.0
62885.66874715734,106469.0
62885.67874507072,106451.0
62885.6887429841,106470.0
62885.698740897475,106493.0
62885.708738810856,106473.0
62885.71873672424,106505.0
62885.72873463761,106440.0
62885.73873255099,106454.0
62885.74873046437,106466.0
62885.75872837775,106501.0
62885.76872629113,106466.0
62885.77872420451,106501.0
62885.78872211788,106475.0
62885.798720031264,106457.0
62885.808717944645,106490.0
62885.81871585802,106457.0
62885.8287137714,106490.0
62885.83871168478,106480.0
62885.848709598155,106432.0
62885.858707511536,106469.0
62885.86870542492,106480.0
62885.87870333829,106458.0
62885.88870125167,106445.0
62885.89869916505,106461.0
62885.90869707843,106482.0
62885.91869499181,106460.0
62885.92869290519,106456.0
62885.93869081856,106454.0
62885.94868873194,106487.0
62885.958686645325,106484.0
62885.9686845587,106471.0
62885.97868247208,106468.0
62885.98868038546,106514.0
62885.998678298834,106478.0
62886.008676212216,106502.0
62886.0186741256,106480.0
62886.02867203897,106505.0
62886.03866995235,106483.0
62886.04866786573,106490.0
62886.05866577911,106451.0
62886.06866369249,106502.0
62886.07866160587,106492.0
62886.08865951924,106481.0
62886.09865743262,106519.0
62886.108655346005,106470.0
62886.11865325938,106481.0
62886.12865117276,106458.0
62886.13864908614,106482.0
62886.148646999514,106467.0
62886.158644912895,106493.0
62886.16864282628,106515.0
62886.17864073965,106490.0
62886.18863865303,106499.0
62886.19863656641,106493.0
62886.208634479786,106506.0
62886.21863239317,106474.0
62886.22863030655,106465.0
62886.23862821993,106493.0
62886.2486261333,106514.0
62886.258624046684,106472.0
62886.268621960066,106476.0
62886.27861987344,106478.0
62886.28861778682,106494.0
62886.2986157002,106491.0
62886.308613613575,106484.0
62886.31861152696,106475.0
62886.32860944034,106466.0
62886.33860735371,106496.0
62886.34860526709,106455.0
62886.35860318047,106468.0
62886.36860109385,106473.0
62886.37859900723,106421.0
62886.38859692061,106431.0
62886.39859483398,106470.0
62886.408592747364,106420.0
62886.418590660745,106472.0
62886.42858857412,106469.0
62886.4385864875,106466.0
62886.44858440088,106452.0
62886.458582314255,106491.0
62886.468580227636,106450.0
62886.47857814102,106472.0
62886.48857605439,106503.0
62886.49857396777,106477.0
62886.50857188115,106488.0
62886.51856979453,106437.0
62886.52856770791,106463.0
62886.53856562129,106436.0
62886.54856353466,106484.0
62886.558561448044,106462.0
62886.568559361425,106458.0
62886.5785572748,106470.0
62886.58855518818,106453.0
62886.59855310156,106464.0
62886.608551014935,106462.0
62886.618548928316,106447.0
62886.6285468417,106478.0
62886.63854475507,106465.0
62886.64854266845,106458.0
62886.65854058183,106475.0
62886.66853849521,106461.0
62886.67853640859,106451.0
62886.68853432197,106475.0
62886.69853223534,106435.0
62886.708530148724,106460.0
62886.718528062105,106447.0
62886.72852597548,106468.0
62886.73852388886,106430.0
62886.74852180224,106477.0
62886.758519715615,106489.0
62886.768517628996,106472.0
62886.77851554238,106449.0
62886.78851345575,106424.0
62886.79851136913,106481.0
62886.80850928251,106469.0
62886.818507195894,106467.0
62886.82850510927,106448.0
62886.83850302265,106469.0
62886.84850093603,106481.0
62886.858498849404,106466.0
62886.868496762785,106459.0
62886.878494676166,106450.0
62886.88849258954,106476.0
62886.89849050292,106470.0
62886.9084884163,106436.0
62886.918486329676,106488.0
62886.92848424306,106467.0
62886.93848215644,106462.0
62886.94848006981,106462.0
62886.95847798319,106490.0
62886.968475896574,106477.0
62886.97847380995,106474.0
62886.98847172333,106504.0
62886.99846963671,106464.0
62887.008467550084,106487.0
62887.018465463465,106483.0
62887.028463376846,106476.0
62887.03846129022,106458.0
62887.0484592036,106463.0
62887.05845711698,106440.0
62887.068455030356,106454.0
62887.07845294374,106456.0
62887.08845085712,106487.0
62887.09844877049,106487.0
62887.10844668387,106481.0
62887.118444597254,106492.0
62887.12844251063,106482.0
62887.13844042401,106482.0
62887.14843833739,106472.0
62887.158436250764,106487.0
62887.168434164145,106468.0
62887.178432077526,106470.0
62887.1884299909,106477.0
62887.19842790428,106473.0
62887.20842581766,106462.0
62887.218423731036,106456.0
62887.22842164442,106444.0
62887.2384195578,106449.0
62887.24841747117,106448.0
62887.25841538455,106439.0
62887.268413297934,106432.0
62887.27841121131,106462.0
62887.28840912469,106440.0
62887.29840703807,106451.0
62887.308404951444,106428.0
62887.318402864825,106426.0
62887.328400778206,106444.0
62887.33839869158,106444.0
62887.34839660496,106478.0
62887.35839451834,106473.0
62887.368392431716,106460.0
62887.3783903451,106450.0
62887.38838825848,106437.0
62887.39838617186,106478.0
62887.40838408523,106449.0
62887.418381998614,106449.0
62887.428379911995,106441.0
62887.43837782537,106476.0
62887.44837573875,106414.0
62887.45837365213,106443.0
62887.468371565505,106432.0
62887.478369478886,106459.0
62887.48836739227,106440.0
62887.49836530564,106454.0
62887.50836321902,106442.0
62887.5183611324,106429.0
62887.52835904578,106433.0
62887.53835695916,106434.0
62887.54835487254,106466.0
62887.55835278591,106415.0
62887.568350699294,106454.0
62887.578348612675,106459.0
62887.58834652605,106414.0
62887.59834443943,106462.0
62887.60834235281,106453.0
62887.618340266185,106443.0
62887.628338179566,106435.0
62887.63833609295,106424.0
62887.64833400632,106457.0
62887.6583319197,106439.0
62887.66832983308,106423.0
62887.67832774646,106442.0
62887.68832565984,106473.0
62887.69832357322,106456.0
62887.70832148659,106436.0
62887.71831939997,106458.0
62887.728317313355,106440.0
62887.73831522673,106441.0
62887.74831314011,106494.0
62887.75831105349,106426.0
62887.768308966864,106483.0
62887.778306880246,106439.0
62887.78830479363,106430.0
62887.798302707,106404.0
62887.80830062038,106435.0
62887.81829853376,106456.0
62887.82829644714,106455.0
62887.83829436052,106451.0
62887.8482922739,106437.0
62887.85829018727,106448.0
62887.86828810065,106463.0
62887.878286014035,106446.0
62887.88828392741,106461.0
62887.89828184079,106459.0
62887.90827975417,106460.0
62887.918277667544,106446.0
62887.928275580925,106477.0
62887.93827349431,106447.0
62887.94827140768,106474.0
62887.95826932106,106447.0
62887.96826723444,106455.0
62887.97826514782,106449.0
62887.9882630612,106462.0
62887.99826097458,106459.0
62888.00825888796,106475.0
62888.01825680133,106471.0
62888.028254714714,106469.0
62888.038252628096,106487.0
62888.04825054147,106469.0
62888.05824845485,106493.0
62888.06824636823,106471.0
62888.078244281605,106446.0
62888.08824219499,106484.0
62888.09824010837,106432.0
62888.10823802174,106457.0
62888.11823593512,106426.0
62888.1282338485,106415.0
62888.13823176188,106404.0
62888.14822967526,106442.0
62888.15822758864,106456.0
62888.16822550201,106463.0
62888.178223415394,106445.0
62888.188221328775,106449.0
62888.19821924215,106452.0
62888.20821715553,106472.0
62888.21821506891,106445.0
62888.228212982285,106454.0
62888.238210895666,106411.0
62888.24820880905,106429.0
62888.25820672242,106464.0
62888.2682046358,106465.0
62888.27820254918,106443.0
62888.28820046256,106477.0
62888.29819837594,106444.0
62888.30819628932,106457.0
62888.31819420269,106436.0
62888.328192116074,106478.0
62888.338190029455,106477.0
62888.34818794283,106468.0
62888.35818585621,106461.0
62888.36818376959,106433.0
62888.378181682965,106460.0
62888.388179596346,106453.0
62888.39817750973,106476.0
62888.4081754231,106476.0
62888.41817333648,106457.0
62888.42817124986,106464.0
62888.43816916324,106457.0
62888.44816707662,106477.0
62888.45816499,106476.0
62888.46816290337,106463.0
62888.478160816754,106451.0
62888.488158730135,106487.0
62888.49815664351,106448.0
62888.50815455689,106450.0
62888.51815247027,106470.0
62888.528150383645,106478.0
62888.538148297026,106454.0
62888.54814621041,106479.0
62888.55814412379,106491.0
62888.56814203716,106463.0
62888.57813995054,106458.0
62888.588137863924,106479.0
62888.5981357773,106482.0
62888.60813369068,106475.0
62888.61813160406,106486.0
62888.628129517434,106464.0
62888.638127430815,106497.0
62888.648125344196,106461.0
62888.65812325757,106454.0
62888.66812117095,106500.0
62888.67811908433,106475.0
62888.688116997706,106506.0
62888.69811491109,106524.0
62888.70811282447,106461.0
62888.71811073784,106485.0
62888.72810865122,106501.0
62888.738106564604,106471.0
62888.74810447798,106507.0
62888.75810239136,106496.0
62888.76810030474,106455.0
62888.778098218114,106514.0
62888.788096131495,106476.0
62888.798094044876,106491.0
62888.80809195825,106502.0
62888.81808987163,106529.0
62888.82808778501,106487.0
62888.838085698386,106497.0
62888.84808361177,106521.0
62888.85808152515,106476.0
62888.86807943852,106522.0
62888.8780773519,106507.0
62888.888075265284,106497.0
62888.89807317866,106474.0
62888.90807109204,106499.0
62888.91806900542,106501.0
62888.928066918794,106495.0
62888.938064832175,106513.0
62888.948062745556,106476.0
62888.95806065893,106493.0
62888.96805857231,106471.0
62888.97805648569,106503.0
62888.988054399066,106508.0
62888.99805231245,106481.0
62889.00805022583,106456.0
62889.0180481392,106499.0
62889.02804605258,106489.0
62889.038043965964,106474.0
62889.04804187934,106492.0
62889.05803979272,106471.0
62889.0680377061,106475.0
62889.078035619474,106493.0
62889.088033532855,106468.0
62889.098031446236,106489.0
62889.10802935961,106501.0
62889.11802727299,106488.0
62889.12802518637,106472.0
62889.13802309975,106500.0
62889.14802101313,106485.0
62889.15801892651,106509.0
62889.16801683989,106517.0
62889.17801475326,106477.0
62889.188012666644,106504.0
62889.198010580025,106497.0
62889.2080084934,106499.0
62889.21800640678,106493.0
62889.22800432016,106504.0
62889.238002233535,106498.0
62889.248000146916,106475.0
62889.2579980603,106514.0
62889.26799597367,106491.0
62889.27799388705,106476.0
62889.28799180043,106505.0
62889.29798971381,106440.0
62889.30798762719,106506.0
62889.31798554057,106471.0
62889.32798345394,106494.0
62889.337981367324,106514.0
62889.347979280705,106491.0
62889.35797719408,106526.0
62889.36797510746,106498.0
62889.37797302084,106526.0
62889.387970934215,106502.0
62889.397968847596,106525.0
62889.40796676098,106500.0
62889.41796467435,106488.0
62889.42796258773,106504.0
62889.43796050111,106454.0
62889.44795841449,106495.0
62889.45795632787,106519.0
62889.46795424125,106484.0
62889.47795215462,106533.0
62889.487950068,106511.0
62889.497947981385,106527.0
62889.50794589476,106513.0
62889.51794380814,106519.0
62889.52794172152,106502.0
62889.537939634894,106515.0
62889.547937548276,106523.0
62889.55793546166,106485.0
62889.56793337503,106514.0
62889.57793128841,106507.0
62889.58792920179,106474.0
62889.59792711517,106506.0
62889.60792502855,106509.0
62889.61792294193,106494.0
62889.6279208553,106518.0
62889.63791876868,106505.0
62889.647916682065,106519.0
62889.65791459544,106472.0
62889.66791250882,106496.0
62889.6779104222,106537.0
62889.687908335574,106519.0
62889.697906248955,106500.0
62889.70790416234,106501.0
62889.71790207572,106508.0
62889.72789998909,106507.0
62889.73789790247,106523.0
62889.74789581585,106521.0
62889.75789372923,106544.0
62889.76789164261,106516.0
62889.77788955599,106540.0
62889.78788746936,106500.0
62889.797885382744,106508.0
62889.807883296126,106511.0
62889.8178812095,106526.0
62889.82787912288,106512.0
62889.83787703626,106510.0
62889.847874949635,106482.0
62889.85787286302,106511.0
62889.8678707764,106512.0
62889.87786868977,106475.0
62889.88786660315,106506.0
62889.89786451653,106508.0
62889.90786242991,106471.0
62889.91786034329,106502.0
62889.92785825667,106500.0
62889.93785617004,106507.0
62889.947854083424,106499.0
62889.957851996805,106521.0
62889.96784991018,106481.0
62889.97784782356,106503.0
62889.98784573694,106492.0
62889.997843650315,106512.0
62890.007841563696,106519.0
62890.01783947708,106501.0
62890.02783739045,106496.0
62890.03783530383,106502.0
62890.04783321721,106477.0
62890.05783113059,106506.0
62890.06782904397,106466.0
62890.07782695735,106485.0
62890.08782487072,106487.0
62890.097822784104,106494.0
62890.107820697485,106488.0
62890.11781861086,106477.0
62890.12781652424,106469.0
62890.13781443762,106506.0
62890.147812350995,106522.0
62890.157810264376,106496.0
62890.16780817776,106484.0
62890.17780609113,106511.0
62890.18780400451,106502.0
62890.19780191789,106505.0
62890.20779983127,106542.0
62890.21779774465,106514.0
62890.22779565803,106502.0
62890.2377935714,106503.0
62890.247791484784,106522.0
62890.257789398165,106512.0
62890.26778731154,106529.0
62890.27778522492,106543.0
62890.2877831383,106505.0
62890.29778105168,106522.0
62890.307778965056,106521.0
62890.31777687844,106513.0
62890.32777479182,106488.0
62890.33777270519,106513.0
62890.34777061857,106497.0
62890.357768531954,106494.0
62890.36776644533,106527.0
62890.37776435871,106507.0
62890.38776227209,106489.0
62890.397760185464,106495.0
62890.407758098845,106488.0
62890.417756012226,106518.0
62890.4277539256,106555.0
62890.43775183898,106524.0
62890.44774975236,106522.0
62890.457747665736,106525.0
62890.46774557912,106540.0
62890.4777434925,106529.0
62890.48774140587,106527.0
62890.49773931925,106552.0
62890.507737232634,106535.0
62890.51773514601,106500.0
62890.52773305939,106516.0
62890.53773097277,106528.0
62890.547728886144,106512.0
62890.557726799525,106499.0
62890.567724712906,106525.0
62890.57772262628,106533.0
62890.58772053966,106496.0
62890.59771845304,106510.0
62890.607716366416,106539.0
62890.6177142798,106505.0
62890.62771219318,106540.0
62890.63771010655,106532.0
62890.64770801993,106500.0
62890.657705933314,106542.0
62890.66770384669,106514.0
62890.67770176007,106531.0
62890.68769967345,106536.0
62890.697697586824,106507.0
62890.707695500205,106508.0
62890.717693413586,106483.0
62890.72769132696,106527.0
62890.73768924034,106489.0
62890.74768715372,106505.0
62890.757685067096,106495.0
62890.76768298048,106463.0
62890.77768089386,106470.0
62890.78767880723,106490.0
62890.79767672061,106496.0
62890.807674633994,106528.0
62890.81767254737,106456.0
62890.82767046075,106497.0
62890.83766837413,106515.0
62890.847666287504,106527.0
62890.857664200885,106499.0
62890.867662114266,106518.0
62890.87766002765,106547.0
62890.88765794102,106482.0
62890.8976558544,106556.0
62890.90765376778,106504.0
62890.91765168116,106480.0
62890.92764959454,106531.0
62890.93764750792,106485.0
62890.94764542129,106500.0
62890.957643334674,106502.0
62890.967641248055,106507.0
62890.97763916143,106493.0
62890.98763707481,106501.0
62890.99763498819,106483.0
62891.007632901565,106484.0
62891.017630814946,106508.0
62891.02762872833,106497.0
62891.0376266417,106507.0
62891.04762455508,106521.0
62891.05762246846,106512.0
62891.06762038184,106503.0
62891.07761829522,106527.0
62891.0876162086,106542.0
62891.09761412197,106501.0
62891.107612035354,106511.0
62891.117609948735,106501.0
62891.12760786211,106491.0
62891.13760577549,106506.0
62891.14760368887,106512.0
62891.157601602245,106514.0
62891.167599515626,106494.0
62891.17759742901,106511.0
62891.18759534238,106514.0
62891.19759325576,106521.0
62891.20759116914,106532.0
62891.21758908252,106526.0
62891.2275869959,106520.0
62891.23758490928,106508.0
62891.24758282265,106554.0
62891.25758073603,106493.0
62891.267578649415,106520.0
62891.27757656279,106498.0
62891.28757447617,106463.0
62891.29757238955,106496.0
62891.307570302924,106493.0
62891.317568216306,106519.0
62891.32756612969,106516.0
62891.33756404306,106542.0
62891.34756195644,106508.0
62891.35755986982,106512.0
62891.3675577832,106547.0
62891.37755569658,106494.0
62891.38755360996,106487.0
62891.39755152333,106519.0
62891.40754943671,106527.0
62891.417547350095,106530.0
62891.42754526347,106471.0
62891.43754317685,106514.0
62891.44754109023,106494.0
62891.45753900361,106506.0
62891.467536916985,106492.0
62891.47753483037,106526.0
62891.48753274375,106552.0
62891.49753065712,106482.0
62891.5075285705,106533.0
62891.51752648388,106516.0
62891.52752439726,106483.0
62891.53752231064,106490.0
62891.54752022402,106492.0
62891.55751813739,106475.0
62891.567516050774,106499.0
62891.577513964156,106481.0
62891.58751187753,106511.0
62891.59750979091,106493.0
62891.60750770429,106521.0
62891.617505617665,106499.0
62891.62750353105,106491.0
62891.63750144443,106496.0
62891.6474993578,106470.0
62891.65749727118,106506.0
62891.66749518456,106472.0
62891.67749309794,106484.0
62891.68749101132,106487.0
62891.6974889247,106460.0
62891.70748683807,106497.0
62891.717484751454,106493.0
62891.727482664835,106491.0
62891.73748057821,106504.0
62891.74747849159,106512.0
62891.75747640497,106492.0
62891.767474318345,106483.0
62891.777472231726,106507.0
62891.78747014511,106504.0
62891.79746805848,106492.0
62891.80746597186,106479.0
62891.81746388524,106497.0
62891.82746179862,106501.0
62891.837459712,106482.0
62891.84745762538,106480.0
62891.85745553875,106493.0
62891.867453452134,106470.0
62891.877451365515,106490.0
62891.88744927889,106471.0
62891.89744719227,106478.0
62891.90744510565,106510.0
62891.917443019025,106491.0
62891.927440932406,106500.0
62891.93743884579,106466.0
62891.94743675916,106496.0
62891.95743467254,106449.0
62891.96743258592,106498.0
62891.9774304993,106514.0
62891.98742841268,106463.0
62891.99742632606,106500.0
62892.00742423943,106509.0
62892.017422152814,106507.0
62892.027420066195,106500.0
62892.037417979576,106479.0
62892.04741589295,106498.0
62892.05741380633,106467.0
62892.06741171971,106520.0
62892.077409633086,106497.0
62892.08740754647,106511.0
62892.09740545985,106500.0
62892.10740337322,106472.0
62892.1174012866,106514.0
62892.127399199984,106498.0
62892.13739711336,106528.0
62892.14739502674,106517.0
62892.15739294012,106493.0
62892.167390853494,106498.0
62892.177388766875,106494.0
62892.187386680256,106513.0
62892.19738459363,106537.0
62892.20738250701,106511.0
62892.21738042039,106464.0
62892.227378333766,106485.0
62892.23737624715,106517.0
62892.24737416053,106500.0
62892.2573720739,106487.0
62892.26736998728,106534.0
62892.277367900664,106481.0
62892.28736581404,106512.0
62892.29736372742,106492.0
62892.3073616408,106524.0
62892.317359554174,106525.0
62892.327357467555,106508.0
62892.337355380936,106496.0
62892.34735329431,106489.0
62892.35735120769,106541.0
62892.36734912107,106500.0
62892.377347034446,106495.0
62892.38734494783,106505.0
62892.39734286121,106465.0
62892.40734077458,106496.0
62892.41733868796,106513.0
62892.427336601344,106476.0
62892.43733451472,106511.0
62892.4473324281,106486.0
62892.45733034148,106460.0
62892.467328254854,106447.0
62892.477326168235,106503.0
62892.487324081616,106474.0
62892.49732199499,106478.0
62892.50731990837,106475.0
62892.51731782175,106498.0
62892.527315735126,106486.0
62892.53731364851,106492.0
62892.54731156189,106462.0
62892.55730947526,106501.0
62892.56730738864,106478.0
62892.577305302024,106466.0
62892.5873032154,106475.0
62892.59730112878,106469.0
62892.60729904216,106492.0
62892.61729695554,106478.0
62892.627294868915,106454.0
62892.637292782296,106463.0
62892.64729069568,106519.0
62892.65728860905,106482.0
62892.66728652243,106484.0
62892.67728443581,106504.0
62892.68728234919,106463.0
62892.69728026257,106472.0
62892.70727817595,106494.0
62892.71727608932,106473.0
62892.727274002704,106497.0
62892.737271916085,106478.0
62892.74726982946,106439.0
62892.75726774284,106491.0
62892.76726565622,106474.0
62892.777263569595,106480.0
62892.787261482976,106458.0
62892.79725939636,106461.0
62892.80725730973,106464.0
62892.81725522311,106475.0
62892.82725313649,106470.0
62892.83725104987,106466.0
62892.84724896325,106504.0
62892.85724687663,106487.0
62892.86724479,106472.0
62892.877242703384,106454.0
62892.887240616765,106502.0
62892.89723853014,106483.0
62892.90723644352,106515.0
62892.9172343569,106458.0
62892.927232270275,106487.0
62892.937230183656,106490.0
62892.94722809704,106499.0
62892.95722601041,106484.0
62892.96722392379,106496.0
62892.97722183717,106485.0
62892.98721975055,106483.0
62892.99721766393,106522.0
62893.00721557731,106479.0
62893.01721349068,106484.0
62893.02721140406,106497.0
62893.037209317445,106469.0
62893.04720723082,106459.0
62893.0572051442,106501.0
62893.06720305758,106481.0
62893.077200970954,106481.0
62893.087198884336,106513.0
62893.09719679772,106495.0
62893.10719471109,106486.0
62893.11719262447,106487.0
62893.12719053785,106478.0
62893.13718845123,106505.0
62893.14718636461,106534.0
62893.15718427799,106484.0
62893.16718219136,106487.0
62893.17718010474,106485.0
62893.187178018125,106515.0
62893.197175931506,106489.0
62893.20717384488,106466.0
62893.21717175826,106504.0
62893.22716967164,106519.0
62893.237167585015,106520.0
62893.2471654984,106490.0
62893.25716341178,106502.0
62893.26716132515,106471.0
62893.27715923853,106469.0
62893.28715715191,106496.0
62893.29715506529,106461.0
62893.30715297867,106504.0
62893.31715089205,106495.0
62893.32714880542,106457.0
62893.337146718804,106482.0
62893.347144632186,106473.0
62893.35714254556,106484.0
62893.36714045894,106455.0
62893.37713837232,106491.0
62893.387136285695,106468.0
62893.39713419908,106461.0
62893.40713211246,106501.0
62893.41713002583,106466.0
62893.42712793921,106476.0
62893.43712585259,106477.0
62893.44712376597,106480.0
62893.45712167935,106490.0
62893.46711959273,106468.0
62893.4771175061,106506.0
62893.487115419484,106461.0
62893.497113332865,106458.0
62893.50711124624,106479.0
62893.51710915962,106466.0
62893.527107073,106447.0
62893.537104986375,106485.0
62893.547102899756,106486.0
62893.55710081314,106479.0
62893.56709872651,106481.0
62893.57709663989,106459.0
62893.58709455327,106475.0
62893.59709246665,106488.0
62893.60709038003,106454.0
62893.61708829341,106508.0
62893.62708620678,106476.0
62893.637084120164,106445.0
62893.647082033545,106443.0
62893.65707994692,106487.0
62893.6670778603,106479.0
62893.67707577368,106464.0
62893.687073687055,106457.0
62893.697071600436,106472.0
62893.70706951382,106485.0
62893.71706742719,106467.0
62893.72706534057,106494.0
62893.73706325395,106448.0
62893.747061167334,106481.0
62893.75705908071,106501.0
62893.76705699409,106463.0
62893.77705490747,106467.0
62893.787052820844,106480.0
62893.797050734225,106517.0
62893.807048647606,106488.0
62893.81704656098,106489.0
62893.82704447436,106494.0
62893.83704238774,106507.0
62893.847040301116,106487.0
62893.8570382145,106496.0
62893.86703612788,106490.0
62893.87703404125,106461.0
62893.88703195463,106500.0
62893.897029868014,106501.0
62893.90702778139,106500.0
62893.91702569477,106490.0
62893.92702360815,106482.0
62893.937021521524,106479.0
62893.947019434905,106447.0
62893.957017348286,106507.0
62893.96701526166,106479.0
62893.97701317504,106512.0
62893.98701108842,106502.0
62893.997009001796,106504.0
62894.00700691518,106514.0
62894.01700482856,106482.0
62894.02700274193,106499.0
62894.03700065531,106505.0
62894.046998568694,106531.0
62894.05699648207,106485.0
62894.06699439545,106491.0
62894.07699230883,106509.0
62894.086990222204,106490.0
62894.096988135585,106489.0
62894.106986048966,106479.0
62894.11698396234,106502.0
62894.12698187572,106536.0
62894.1369797891,106509.0
62894.146977702476,106483.0
62894.15697561586,106516.0
62894.16697352924,106518.0
62894.17697144261,106474.0
62894.18696935599,106495.0
62894.196967269374,106512.0
62894.20696518275,106483.0
62894.21696309613,106494.0
62894.22696100951,106473.0
62894.236958922884,106492.0
62894.246956836265,106512.0
62894.256954749646,106488.0
62894.26695266302,106453.0
62894.2769505764,106479.0
62894.28694848978,106445.0
62894.296946403156,106507.0
62894.30694431654,106467.0
62894.31694222992,106479.0
62894.3269401433,106462.0
62894.33693805667,106464.0
62894.346935970054,106465.0
62894.356933883435,106472.0
62894.36693179681,106464.0
62894.37692971019,106496.0
62894.38692762357,106488.0
62894.396925536945,106482.0
62894.406923450326,106494.0
62894.41692136371,106486.0
62894.42691927708,106476.0
62894.43691719046,106483.0
62894.44691510384,106476.0
62894.45691301722,106489.0
62894.4669109306,106466.0
62894.47690884398,106458.0
62894.48690675735,106448.0
62894.496904670734,106485.0
62894.506902584115,106459.0
62894.51690049749,106478.0
62894.52689841087,106494.0
62894.53689632425,106465.0
62894.546894237625,106463.0
62894.556892151006,106481.0
62894.56689006439,106453.0
62894.57688797776,106475.0
62894.58688589114,106502.0
62894.59688380452,106467.0
62894.6068817179,106492.0
62894.61687963128,106464.0
62894.62687754466,106452.0
62894.63687545803,106510.0
62894.646873371414,106486.0
62894.656871284795,106486.0
62894.66686919817,106461.0
62894.67686711155,106475.0
62894.68686502493,106487.0
62894.696862938305,106465.0
62894.706860851686,106475.0
62894.71685876507,106494.0
62894.72685667844,106481.0
62894.73685459182,106465.0
62894.7468525052,106498.0
62894.75685041858,106505.0
62894.76684833196,106506.0
62894.77684624534,106494.0
62894.78684415871,106504.0
62894.79684207209,106469.0
62894.806839985475,106497.0
62894.81683789885,106504.0
62894.82683581223,106473.0
62894.83683372561,106504.0
62894.846831638984,106492.0
62894.856829552366,106471.0
62894.86682746575,106464.0
62894.87682537912,106505.0
62894.8868232925,106494.0
62894.89682120588,106494.0
62894.906819119264,106512.0
62894.91681703264,106490.0
62894.92681494602,106486.0
62894.9368128594,106496.0
62894.94681077277,106473.0
62894.956808686155,106526.0
62894.966806599536,106503.0
62894.97680451291,106484.0
62894.98680242629,106526.0
62894.99680033967,106503.0
62895.006798253045,106495.0
62895.01679616643,106497.0
62895.02679407981,106492.0
62895.03679199318,106474.0
62895.04678990656,106501.0
62895.05678781994,106501.0
62895.06678573332,106496.0
62895.0767836467,106483.0
62895.08678156008,106503.0
62895.09677947345,106473.0
62895.106777386834,106492.0
62895.116775300216,106455.0
62895.12677321359,106484.0
62895.13677112697,106487.0
62895.14676904035,106491.0
62895.156766953725,106480.0
62895.16676486711,106478.0
62895.17676278049,106508.0
62895.18676069386,106472.0
62895.19675860724,106477.0
62895.20675652062,106473.0
62895.216754434,106455.0
62895.22675234738,106514.0
62895.23675026076,106454.0
62895.24674817413,106474.0
62895.256746087514,106492.0
62895.266744000895,106448.0
62895.27674191427,106467.0
62895.28673982765,106453.0
62895.29673774103,106469.0
62895.306735654405,106494.0
62895.316733567786,106457.0
62895.32673148117,106475.0
62895.33672939454,106482.0
62895.34672730792,106468.0
62895.3567252213,106470.0
62895.36672313468,106503.0
62895.37672104806,106495.0
62895.38671896144,106454.0
62895.39671687481,106496.0
62895.406714788194,106432.0
62895.416712701575,106471.0
62895.42671061495,106472.0
62895.43670852833,106457.0
62895.44670644171,106441.0
62895.456704355085,106480.0
62895.466702268466,106471.0
62895.47670018185,106476.0
62895.48669809523,106496.0
62895.4966960086,106477.0
62895.50669392198,106482.0
62895.516691835364,106520.0
62895.52668974874,106487.0
62895.53668766212,106515.0
62895.5466855755,106494.0
62895.556683488874,106449.0
62895.566681402255,106509.0
62895.576679315636,106491.0
62895.58667722901,106468.0
62895.59667514239,106514.0
62895.60667305577,106477.0
62895.616670969146,106497.0
62895.62666888253,106444.0
62895.63666679591,106514.0
62895.64666470928,106515.0
62895.65666262266,106493.0
62895.666660536044,106472.0
62895.67665844942,106490.0
62895.6866563628,106494.0
62895.69665427618,106504.0
62895.706652189554,106518.0
62895.716650102935,106514.0
62895.726648016316,106506.0
62895.73664592969,106506.0
62895.74664384307,106510.0
62895.75664175645,106491.0
62895.766639669826,106514.0
62895.77663758321,106498.0
62895.78663549659,106479.0
62895.79663340996,106474.0
62895.80663132334,106516.0
62895.816629236724,106504.0
62895.8266271501,106489.0
62895.83662506348,106528.0
62895.84662297686,106484.0
62895.856620890234,106512.0
62895.866618803615,106536.0
62895.876616716996,106493.0
62895.88661463037,106536.0
62895.89661254375,106511.0
62895.90661045713,106507.0
62895.916608370506,106517.0
62895.92660628389,106530.0
62895.93660419727,106477.0
62895.94660211064,106514.0
62895.95660002402,106538.0
62895.966597937404,106507.0
62895.97659585078,106540.0
62895.98659376416,106533.0
62895.99659167754,106521.0
62896.006589590914,106560.0
62896.016587504295,106498.0
62896.026585417676,106513.0
62896.03658333105,106469.0
62896.04658124443,106512.0
62896.05657915781,106506.0
62896.06657707119,106530.0
62896.07657498457,106497.0
62896.08657289795,106520.0
62896.09657081133,106512.0
62896.1065687247,106504.0
62896.116566638084,106493.0
62896.126564551465,106524.0
62896.13656246484,106481.0
62896.14656037822,106510.0
62896.1565582916,106507.0
62896.166556204975,106508.0
62896.176554118356,106519.0
62896.18655203174,106518.0
62896.19654994511,106467.0
62896.20654785849,106488.0
62896.21654577187,106523.0
62896.22654368525,106508.0
62896.23654159863,106504.0
62896.24653951201,106518.0
62896.25653742538,106496.0
62896.266535338764,106517.0
62896.276533252145,106517.0
62896.28653116552,106520.0
62896.2965290789,106539.0
62896.30652699228,106514.0
62896.316524905655,106495.0
62896.326522819036,106531.0
62896.33652073242,106481.0
62896.34651864579,106518.0
62896.35651655917,106514.0
62896.36651447255,106493.0
62896.37651238593,106487.0
62896.38651029931,106522.0
62896.39650821269,106482.0
62896.40650612606,106498.0
62896.416504039444,106549.0
62896.426501952825,106528.0
62896.4364998662,106509.0
62896.44649777958,106543.0
62896.45649569296,106504.0
62896.466493606335,106512.0
62896.476491519716,106510.0
62896.4864894331,106498.0
62896.49648734647,106526.0
62896.50648525985,106531.0
62896.51648317323,106556.0
62896.52648108661,106522.0
62896.53647899999,106506.0
62896.54647691337,106538.0
62896.55647482674,106522.0
62896.56647274012,106568.0
62896.576470653505,106540.0
62896.58646856688,106541.0
62896.59646648026,106516.0
62896.60646439364,106501.0
62896.616462307014,106522.0
62896.626460220396,106570.0
62896.63645813378,106537.0
62896.64645604716,106525.0
62896.65645396053,106537.0
62896.66645187391,106560.0
62896.676449787294,106534.0
62896.68644770067,106545.0
62896.69644561405,106541.0
62896.70644352743,106554.0
62896.7164414408,106536.0
62896.726439354185,106539.0
62896.736437267566,106550.0
62896.74643518094,106558.0
62896.75643309432,106533.0
62896.7664310077,106528.0
62896.776428921075,106533.0
62896.78642683446,106507.0
62896.79642474784,106547.0
62896.80642266121,106538.0
62896.81642057459,106559.0
62896.82641848797,106553.0
62896.83641640135,106550.0
62896.84641431473,106542.0
62896.85641222811,106532.0
62896.86641014148,106505.0
62896.876408054864,106549.0
62896.886405968246,106539.0
62896.89640388162,106523.0
62896.906401795,106563.0
62896.91639970838,106560.0
62896.926397621755,106530.0
62896.93639553514,106538.0
62896.94639344852,106558.0
62896.95639136189,106545.0
62896.96638927527,106542.0
62896.97638718865,106515.0
62896.98638510203,106545.0
62896.99638301541,106571.0
62897.00638092879,106531.0
62897.01637884216,106519.0
62897.026376755544,106513.0
62897.036374668925,106543.0
62897.0463725823,106583.0
62897.05637049568,106569.0
62897.06636840906,106553.0
62897.076366322435,106541.0
62897.086364235816,106568.0
62897.0963621492,106538.0
62897.10636006257,106536.0
62897.11635797595,106546.0
62897.12635588933,106507.0
62897.13635380271,106508.0
62897.14635171609,106554.0
62897.15634962947,106551.0
62897.16634754284,106562.0
62897.176345456224,106553.0
62897.186343369605,106514.0
62897.19634128298,106539.0
62897.20633919636,106520.0
62897.21633710974,106569.0
62897.22633502312,106519.0
62897.236332936496,106537.0
62897.24633084988,106539.0
62897.25632876326,106481.0
62897.26632667663,106522.0
62897.27632459001,106549.0
62897.286322503394,106548.0
62897.29632041677,106528.0
62897.30631833015,106501.0
62897.31631624353,106557.0
62897.326314156904,106541.0
62897.336312070285,106566.0
62897.346309983666,106545.0
62897.35630789704,106566.0
62897.36630581042,106554.0
62897.3763037238,106541.0
62897.386301637176,106551.0
62897.39629955056,106534.0
62897.40629746394,106539.0
62897.41629537731,106541.0
62897.42629329069,106555.0
62897.436291204074,106545.0
62897.44628911745,106559.0
62897.45628703083,106577.0
62897.46628494421,106560.0
62897.476282857584,106532.0
62897.486280770965,106552.0
62897.496278684346,106548.0
62897.50627659772,106555.0
62897.5162745111,106541.0
62897.52627242448,106583.0
62897.536270337856,106573.0
62897.54626825124,106548.0
62897.55626616462,106566.0
62897.56626407799,106576.0
62897.57626199137,106580.0
62897.586259904754,106608.0
62897.59625781813,106579.0
62897.60625573151,106569.0
62897.61625364489,106532.0
62897.626251558264,106560.0
62897.636249471645,106590.0
62897.646247385026,106582.0
62897.6562452984,106552.0
62897.66624321178,106546.0
62897.67624112516,106582.0
62897.686239038536,106568.0
62897.69623695192,106587.0
62897.7062348653,106560.0
62897.71623277867,106585.0
62897.72623069205,106589.0
62897.736228605434,106591.0
62897.74622651881,106584.0
62897.75622443219,106567.0
62897.76622234557,106578.0
62897.776220258944,106580.0
62897.786218172325,106572.0
62897.796216085706,106548.0
62897.80621399909,106577.0
62897.81621191246,106546.0
62897.82620982584,106600.0
62897.83620773922,106557.0
62897.8462056526,106577.0
62897.85620356598,106539.0
62897.86620147936,106546.0
62897.87619939273,106596.0
62897.886197306114,106568.0
62897.896195219495,106578.0
62897.90619313287,106561.0
62897.91619104625,106571.0
62897.92618895963,106529.0
62897.936186873005,106581.0
62897.946184786386,106575.0
62897.95618269977,106539.0
62897.96618061314,106575.0
62897.97617852652,106569.0
62897.9861764399,106562.0
62897.99617435328,106606.0
62898.00617226666,106553.0
62898.01617018004,106581.0
62898.02616809341,106552.0
62898.036166006794,106559.0
62898.046163920175,106573.0
62898.05616183355,106575.0
62898.06615974693,106560.0
62898.07615766031,106573.0
62898.086155573685,106583.0
62898.096153487066,106573.0
62898.10615140045,106573.0
62898.11614931382,106594.0
62898.1261472272,106537.0
62898.13614514058,106569.0
62898.14614305396,106592.0
62898.15614096734,106560.0
62898.16613888072,106585.0
62898.17613679409,106570.0
62898.186134707474,106565.0
62898.196132620855,106542.0
62898.20613053423,106537.0
62898.21612844761,106568.0
62898.22612636099,106575.0
62898.236124274365,106581.0
62898.246122187746,106566.0
62898.25612010113,106576.0
62898.2661180145,106589.0
62898.27611592788,106568.0
62898.28611384126,106607.0
62898.29611175464,106595.0
62898.30610966802,106558.0
62898.3161075814,106596.0
62898.32610549477,106586.0
62898.33610340815,106570.0
62898.346101321535,106573.0
62898.35609923491,106556.0
62898.36609714829,106542.0
62898.37609506167,106587.0
62898.38609297505,106611.0
62898.396090888426,106590.0
62898.40608880181,106558.0
62898.41608671519,106593.0
62898.42608462856,106582.0
62898.43608254194,106589.0
62898.446080455324,106546.0
62898.4560783687,106587.0
62898.46607628208,106596.0
62898.47607419546,106564.0
62898.48607210883,106600.0
62898.496070022215,106591.0
62898.506067935596,106600.0
62898.51606584897,106597.0
62898.52606376235,106616.0
62898.53606167573,106585.0
62898.546059589105,106588.0
62898.55605750249,106615.0
62898.56605541587,106582.0
62898.57605332924,106590.0
62898.58605124262,106600.0
62898.596049156,106556.0
62898.60604706938,106571.0
62898.61604498276,106570.0
62898.62604289614,106608.0
62898.63604080951,106611.0
62898.646038722894,106586.0
62898.656036636276,106599.0
62898.66603454965,106599.0
62898.67603246303,106594.0
62898.68603037641,106568.0
62898.696028289785,106602.0
62898.70602620317,106573.0
62898.71602411655,106581.0
62898.72602202992,106605.0
62898.7360199433,106585.0
62898.74601785668,106576.0
62898.75601577006,106581.0
62898.76601368344,106556.0
62898.77601159682,106560.0
62898.78600951019,106587.0
62898.796007423574,106600.0
62898.806005336955,106565.0
62898.81600325033,106574.0
62898.82600116371,106575.0
62898.83599907709,106575.0
62898.845996990465,106582.0
62898.855994903846,106533.0
62898.86599281723,106572.0
62898.8759907306,106570.0
62898.88598864398,106576.0
62898.89598655736,106599.0
62898.90598447074,106568.0
62898.91598238412,106565.0
62898.9259802975,106610.0
62898.93597821087,106580.0
62898.945976124254,106575.0
62898.955974037635,106552.0
62898.96597195102,106544.0
62898.97596986439,106557.0
62898.98596777777,106575.0
62898.99596569115,106559.0
62899.005963604526,106552.0
62899.01596151791,106597.0
62899.02595943129,106569.0
62899.03595734466,106561.0
62899.04595525804,106569.0
62899.055953171424,106564.0
62899.0659510848,106582.0
62899.07594899818,106579.0
62899.08594691156,106559.0
62899.095944824934,106575.0
62899.105942738315,106580.0
62899.115940651696,106518.0
62899.12593856507,106581.0
62899.13593647845,106590.0
62899.14593439183,106564.0
62899.155932305206,106598.0
62899.16593021859,106589.0
62899.17592813197,106554.0
62899.18592604534,106584.0
62899.19592395872,106581.0
62899.205921872104,106562.0
62899.21591978548,106610.0
62899.22591769886,106587.0
62899.23591561224,106544.0
62899.245913525614,106604.0
62899.255911438995,106561.0
62899.265909352376,106580.0
62899.27590726575,106580.0
62899.28590517913,106580.0
62899.29590309251,106584.0
62899.305901005886,106603.0
62899.31589891927,106580.0
62899.32589683265,106605.0
62899.33589474602,106615.0
62899.3458926594,106584.0
62899.355890572784,106590.0
62899.36588848616,106593.0
62899.37588639954,106574.0
62899.38588431292,106607.0
62899.395882226294,106582.0
62899.405880139675,106569.0
62899.415878053056,106595.0
62899.42587596643,106586.0
62899.43587387981,106595.0
62899.44587179319,106604.0
62899.455869706566,106564.0
62899.46586761995,106566.0
62899.47586553333,106582.0
62899.4858634467,106617.0
62899.49586136008,106571.0
62899.505859273464,106593.0
62899.51585718684,106560.0
62899.52585510022,106572.0
62899.5358530136,106583.0
62899.54585092698,106565.0
62899.555848840355,106592.0
62899.565846753736,106573.0
62899.57584466712,106592.0
62899.58584258049,106568.0
62899.59584049387,106568.0
62899.60583840725,106574.0
62899.61583632063,106542.0
62899.62583423401,106533.0
62899.63583214739,106567.0
62899.64583006076,106556.0
62899.655827974144,106573.0
62899.665825887525,106537.0
62899.6758238009,106555.0
62899.68582171428,106545.0
62899.69581962766,106535.0
62899.705817541035,106550.0
62899.715815454416,106556.0
62899.7258133678,106585.0
62899.73581128117,106569.0
62899.74580919455,106525.0
62899.75580710793,106571.0
62899.76580502131,106554.0
62899.77580293469,106563.0
62899.78580084807,106579.0
62899.79579876144,106552.0
62899.805796674824,106563.0
62899.815794588205,106529.0
62899.82579250158,106574.0
62899.83579041496,106558.0
62899.84578832834,106535.0
62899.855786241715,106576.0
62899.865784155096,106567.0
62899.87578206848,106546.0
62899.88577998185,106532.0
62899.89577789523,106583.0
62899.90577580861,106553.0
62899.91577372199,106558.0
62899.92577163537,106546.0
62899.93576954875,106546.0
62899.94576746212,106547.0
62899.955765375504,106544.0
62899.965763288885,106554.0
62899.97576120226,106585.0
62899.98575911564,106546.0
62899.99575702902,106555.0
62900.005754942395,106565.0
62900.015752855776,106566.0
62900.02575076916,106556.0
62900.03574868253,106543.0
62900.04574659591,106545.0
62900.05574450929,106556.0
62900.06574242267,106595.0
62900.07574033605,106545.0
62900.08573824943,106557.0
62900.0957361628,106547.0
62900.10573407618,106537.0
62900.115731989565,106548.0
62900.125729902946,106561.0
62900.13572781632,106531.0
62900.1457257297,106540.0
62900.15572364308,106549.0
62900.165721556456,106562.0
62900.17571946984,106545.0
62900.18571738322,106573.0
62900.19571529659,106536.0
62900.20571320997,106561.0
62900.215711123354,106573.0
62900.22570903673,106543.0
62900.23570695011,106602.0
62900.24570486349,106556.0
62900.25570277686,106590.0
62900.265700690245,106566.0
62900.275698603626,106585.0
62900.285696517,106571.0
62900.29569443038,106565.0
62900.30569234376,106590.0
62900.315690257135,106542.0
62900.32568817052,106558.0
62900.3356860839,106561.0
62900.34568399727,106583.0
62900.35568191065,106559.0
62900.36567982403,106574.0
62900.37567773741,106564.0
62900.38567565079,106573.0
62900.39567356417,106582.0
62900.40567147754,106580.0
62900.415669390924,106562.0
62900.425667304306,106584.0
62900.43566521768,106567.0
62900.44566313106,106580.0
62900.45566104444,106573.0
62900.465658957815,106519.0
62900.4756568712,106588.0
62900.48565478458,106550.0
62900.49565269795,106565.0
62900.50565061133,106576.0
62900.51564852471,106533.0
62900.52564643809,106546.0
62900.53564435147,106548.0
62900.54564226485,106539.0
62900.55564017822,106531.0
62900.565638091604,106551.0
62900.575636004985,106528.0
62900.58563391836,106517.0
62900.59563183174,106546.0
62900.60562974512,106507.0
62900.615627658495,106545.0
62900.625625571876,106514.0
62900.63562348526,106536.0
62900.64562139863,106527.0
62900.65561931201,106535.0
62900.66561722539,106528.0
62900.67561513877,106533.0
62900.68561305215,106555.0
62900.69561096553,106546.0
62900.70560887891,106547.0
62900.715606792284,106561.0
62900.725604705665,106521.0
62900.73560261905,106534.0
62900.74560053242,106521.0
62900.7555984458,106526.0
62900.76559635918,106518.0
62900.775594272556,106534.0
62900.78559218594,106534.0
62900.79559009932,106531.0
62900.80558801269,106498.0
62900.81558592607,106540.0
62900.825583839454,106557.0
62900.83558175283,106547.0
62900.84557966621,106529.0
62900.85557757959,106538.0
62900.865575492964,106532.0
62900.875573406345,106507.0
62900.885571319726,106557.0
62900.8955692331,106540.0
62900.90556714648,106523.0
62900.91556505986,106566.0
62900.925562973236,106522.0
62900.93556088662,106555.0
62900.9455588,106522.0
62900.95555671337,106539.0
62900.96555462675,106535.0
62900.975552540134,106558.0
62900.98555045351,106528.0
62900.99554836689,106537.0
62901.00554628027,106548.0
62901.015544193644,106532.0
62901.025542107025,106548.0
62901.035540020406,106576.0
62901.04553793378,106531.0
62901.05553584716,106543.0
62901.06553376054,106546.0
62901.075531673916,106533.0
62901.0855295873,106547.0
62901.09552750068,106542.0
62901.10552541405,106526.0
62901.11552332743,106565.0
62901.125521240814,106522.0
62901.13551915419,106533.0
62901.14551706757,106554.0
62901.15551498095,106573.0
62901.165512894324,106535.0
62901.175510807705,106549.0
62901.185508721086,106546.0
62901.19550663446,106539.0
62901.20550454784,106556.0
62901.21550246122,106557.0
62901.225500374596,106527.0
62901.23549828798,106542.0
62901.24549620136,106526.0
62901.25549411473,106544.0
62901.26549202811,106554.0
62901.275489941494,106534.0
62901.285487854875,106518.0
62901.29548576825,106546.0
62901.30548368163,106572.0
62901.31548159501,106563.0
62901.325479508385,106580.0
62901.335477421766,106521.0
62901.34547533515,106540.0
62901.35547324852,106549.0
62901.3654711619,106525.0
62901.37546907528,106558.0
62901.38546698866,106523.0
62901.39546490204,106497.0
62901.40546281542,106547.0
62901.41546072879,106526.0
62901.425458642174,106529.0
62901.435456555555,106539.0
62901.44545446893,106501.0
62901.45545238231,106504.0
62901.46545029569,106533.0
62901.475448209065,106552.0
62901.485446122446,106530.0
62901.49544403583,106554.0
62901.5054419492,106502.0
62901.51543986258,106530.0
62901.52543777596,106537.0
62901.53543568934,106507.0
62901.54543360272,106534.0
62901.5554315161,106560.0
62901.56542942947,106559.0
62901.575427342854,106544.0
62901.585425256235,106518.0
62901.59542316961,106503.0
62901.60542108299,106551.0
62901.61541899637,106497.0
62901.625416909745,106527.0
62901.635414823126,106511.0
62901.64541273651,106493.0
62901.65541064988,106523.0
62901.66540856326,106526.0
62901.67540647664,106501.0
62901.68540439002,106513.0
62901.6954023034,106545.0
62901.70540021678,106519.0
62901.71539813015,106519.0
62901.725396043534,106547.0
62901.735393956915,106540.0
62901.74539187029,106522.0
62901.75538978367,106548.0
62901.76538769705,106543.0
62901.775385610425,106538.0
62901.785383523806,106522.0
62901.79538143719,106504.0
62901.80537935056,106494.0
62901.81537726394,106536.0
62901.82537517732,106536.0
62901.8353730907,106522.0
62901.84537100408,106556.0
62901.85536891746,106518.0
62901.86536683084,106544.0
62901.87536474421,106521.0
62901.885362657595,106500.0
62901.895360570976,106564.0
62901.90535848435,106551.0
62901.91535639773,106509.0
62901.92535431111,106530.0
62901.935352224486,106551.0
62901.94535013787,106543.0
62901.95534805125,106519.0
62901.96534596462,106561.0
62901.975343878,106507.0
62901.985341791384,106557.0
62901.99533970476,106535.0
62902.00533761814,106541.0
62902.01533553152,106550.0
62902.02533344489,106541.0
62902.035331358275,106549.0
62902.045329271656,106529.0
62902.05532718503,106530.0
62902.06532509841,106536.0
62902.07532301179,106548.0
62902.085320925165,106526.0
62902.09531883855,106550.0
62902.10531675193,106554.0
62902.1153146653,106546.0
62902.12531257868,106530.0
62902.13531049206,106568.0
62902.14530840544,106514.0
62902.15530631882,106552.0
62902.1653042322,106554.0
62902.17530214557,106545.0
62902.185300058954,106581.0
62902.195297972336,106547.0
62902.20529588571,106535.0
62902.21529379909,106557.0
62902.22529171247,106529.0
62902.235289625845,106528.0
62902.24528753923,106532.0
62902.25528545261,106522.0
62902.26528336598,106546.0
62902.27528127936,106516.0
62902.28527919274,106535.0
62902.29527710612,106501.0
62902.3052750195,106567.0
62902.31527293288,106510.0
62902.32527084625,106508.0
62902.335268759634,106527.0
62902.345266673015,106507.0
62902.35526458639,106519.0
62902.36526249977,106525.0
62902.37526041315,106512.0
62902.385258326525,106509.0
62902.395256239906,106518.0
62902.40525415329,106537.0
62902.41525206666,106513.0
62902.42524998004,106522.0
62902.43524789342,106479.0
62902.445245806804,106498.0
62902.45524372018,106504.0
62902.46524163356,106494.0
62902.47523954694,106524.0
62902.485237460314,106514.0
62902.495235373695,106508.0
62902.50523328708,106527.0
62902.51523120045,106534.0
62902.52522911383,106514.0
62902.53522702721,106525.0
62902.545224940586,106520.0
62902.55522285397,106525.0
62902.56522076735,106510.0
62902.57521868072,106538.0
62902.5852165941,106511.0
62902.595214507484,106523.0
62902.60521242086,106495.0
62902.61521033424,106505.0
62902.62520824762,106531.0
62902.635206160994,106501.0
62902.645204074375,106515.0
62902.655201987756,106535.0
62902.66519990113,106502.0
62902.67519781451,106524.0
62902.68519572789,106528.0
62902.695193641266,106512.0
62902.70519155465,106518.0
62902.71518946803,106540.0
62902.7251873814,106527.0
62902.73518529478,106520.0
62902.745183208164,106555.0
62902.75518112154,106536.0
62902.76517903492,106527.0
62902.7751769483,106536.0
62902.785174861674,106559.0
62902.795172775055,106499.0
62902.805170688436,106538.0
62902.81516860181,106576.0
62902.82516651519,106544.0
62902.83516442857,106519.0
62902.845162341946,106516.0
62902.85516025533,106513.0
62902.86515816871,106517.0
62902.87515608208,106559.0
62902.88515399546,106534.0
62902.895151908844,106553.0
62902.90514982222,106516.0
62902.9151477356,106537.0
62902.92514564898,106530.0
62902.935143562354,106511.0
62902.945141475735,106552.0
62902.955139389116,106516.0
62902.96513730249,106508.0
62902.97513521587,106534.0
62902.98513312925,106495.0
62902.995131042626,106537.0
62903.00512895601,106543.0
62903.01512686939,106526.0
62903.02512478277,106529.0
62903.03512269614,106555.0
62903.045120609524,106543.0
62903.055118522905,106525.0
62903.06511643628,106517.0
62903.07511434966,106502.0
62903.08511226304,106535.0
62903.095110176415,106542.0
62903.105108089796,106524.0
62903.11510600318,106530.0
62903.12510391655,106531.0
62903.13510182993,106510.0
62903.14509974331,106498.0
62903.15509765669,106545.0
62903.16509557007,106531.0
62903.17509348345,106535.0
62903.18509139682,106487.0
62903.195089310204,106500.0
62903.205087223585,106523.0
62903.21508513696,106505.0
62903.22508305034,106498.0
62903.23508096372,106527.0
62903.245078877095,106515.0
62903.255076790476,106522.0
62903.26507470386,106524.0
62903.27507261723,106502.0
62903.28507053061,106518.0
62903.29506844399,106520.0
62903.30506635737,106491.0
62903.31506427075,106487.0
62903.32506218413,106512.0
62903.3350600975,106513.0
62903.345058010884,106504.0
62903.355055924265,106546.0
62903.36505383764,106466.0
62903.37505175102,106512.0
62903.3850496644,106503.0
62903.395047577775,106501.0
62903.405045491156,106539.0
62903.41504340454,106520.0
62903.42504131791,106509.0
62903.43503923129,106520.0
62903.44503714467,106509.0
62903.45503505805,106526.0
62903.46503297143,106519.0
62903.47503088481,106535.0
62903.48502879818,106496.0
62903.495026711564,106516.0
62903.505024624945,106522.0
62903.51502253832,106542.0
62903.5250204517,106485.0
62903.53501836508,106521.0
62903.545016278455,106537.0
62903.555014191836,106529.0
62903.56501210522,106509.0
62903.57501001859,106523.0
62903.58500793197,106547.0
62903.59500584535,106501.0
62903.605003758734,106520.0
62903.61500167211,106529.0
62903.62499958549,106516.0
62903.63499749887,106536.0
62903.64499541224,106511.0
62903.654993325625,106533.0
62903.664991239006,106537.0
62903.67498915238,106517.0
62903.68498706576,106486.0
62903.69498497914,106536.0
62903.704982892516,106521.0
62903.7149808059,106504.0
62903.72497871928,106511.0
62903.73497663265,106536.0
62903.74497454603,106548.0
62903.754972459414,106557.0
62903.76497037279,106526.0
62903.77496828617,106516.0
62903.78496619955,106552.0
62903.79496411292,106518.0
62903.804962026305,106515.0
62903.814959939686,106551.0
62903.82495785306,106549.0
62903.83495576644,106514.0
62903.84495367982,106530.0
62903.854951593195,106559.0
62903.86494950658,106524.0
62903.87494741996,106569.0
62903.88494533333,106551.0
62903.89494324671,106544.0
62903.90494116009,106556.0
62903.91493907347,106542.0
62903.92493698685,106549.0
62903.93493490023,106556.0
62903.9449328136,106566.0
62903.954930726984,106581.0
62903.964928640366,106560.0
62903.97492655374,106578.0
62903.98492446712,106559.0
62903.9949223805,106551.0
62904.004920293875,106552.0
62904.01491820726,106534.0
62904.02491612064,106555.0
62904.03491403401,106545.0
62904.04491194739,106568.0
62904.05490986077,106559.0
62904.06490777415,106550.0
62904.07490568753,106555.0
62904.08490360091,106519.0
62904.09490151428,106547.0
62904.104899427664,106542.0
62904.114897341045,106534.0
62904.12489525442,106542.0
62904.1348931678,106548.0
62904.14489108118,106547.0
62904.154888994555,106527.0
62904.164886907936,106546.0
62904.17488482132,106576.0
62904.1848827347,106532.0
62904.19488064807,106573.0
62904.20487856145,106519.0
62904.214876474834,106537.0
62904.22487438821,106545.0
62904.23487230159,106536.0
62904.24487021497,106581.0
62904.254868128344,106517.0
62904.264866041725,106550.0
62904.27486395511,106519.0
62904.28486186848,106530.0
62904.29485978186,106561.0
62904.30485769524,106538.0
62904.314855608616,106548.0
62904.324853522,106541.0
62904.33485143538,106557.0
62904.34484934875,106546.0
62904.35484726213,106524.0
62904.364845175514,106550.0
62904.37484308889,106533.0
62904.38484100227,106562.0
62904.39483891565,106573.0
62904.404836829024,106531.0
62904.414834742405,106567.0
62904.424832655786,106527.0
62904.43483056916,106565.0
62904.44482848254,106528.0
62904.45482639592,106531.0
62904.464824309296,106562.0
62904.47482222268,106573.0
62904.48482013606,106588.0
62904.49481804943,106574.0
62904.50481596281,106572.0
62904.514813876194,106566.0
62904.52481178957,106548.0
62904.53480970295,106533.0
62904.54480761633,106568.0
62904.554805529704,106560.0
62904.564803443085,106581.0
62904.574801356466,106545.0
62904.58479926984,106577.0
62904.59479718322,106569.0
62904.6047950966,106548.0
62904.614793009976,106541.0
62904.62479092336,106560.0
62904.63478883674,106577.0
62904.64478675011,106566.0
62904.65478466349,106580.0
62904.664782576874,106563.0
62904.67478049025,106574.0
62904.68477840363,106572.0
62904.69477631701,106543.0
62904.704774230384,106594.0
62904.714772143765,106574.0
62904.724770057146,106563.0
62904.73476797053,106545.0
62904.7447658839,106565.0
62904.75476379728,106575.0
62904.76476171066,106567.0
62904.77475962404,106578.0
62904.78475753742,106574.0
62904.7947554508,106578.0
62904.80475336417,106610.0
62904.814751277554,106583.0
62904.824749190935,106580.0
62904.83474710431,106586.0
62904.84474501769,106569.0
62904.85474293107,106586.0
62904.864740844445,106583.0
62904.874738757826,106583.0
62904.88473667121,106596.0
62904.89473458458,106586.0
62904.90473249796,106605.0
62904.91473041134,106589.0
62904.92472832472,106586.0
62904.9347262381,106601.0
62904.94472415148,106609.0
62904.95472206485,106552.0
62904.964719978234,106557.0
62904.974717891615,106581.0
62904.98471580499,106546.0
62904.99471371837,106564.0
62905.00471163175,106560.0
62905.014709545125,106532.0
62905.024707458506,106570.0
62905.03470537189,106560.0
62905.04470328526,106563.0
62905.05470119864,106571.0
62905.06469911202,106546.0
62905.0746970254,106569.0
62905.08469493878,106568.0
62905.09469285216,106556.0
62905.10469076553,106544.0
62905.114688678914,106559.0
62905.124686592295,106576.0
62905.13468450567,106550.0
62905.14468241905,106579.0
62905.15468033243,106573.0
62905.164678245805,106541.0
62905.174676159186,106568.0
62905.18467407257,106548.0
62905.19467198594,106564.0
62905.20466989932,106552.0
62905.2146678127,106581.0
62905.22466572608,106555.0
62905.23466363946,106549.0
62905.24466155284,106546.0
62905.25465946621,106549.0
62905.264657379594,106574.0
62905.274655292975,106530.0
62905.28465320635,106569.0
62905.29465111973,106577.0
62905.30464903311,106535.0
62905.314646946485,106586.0
62905.324644859866,106559.0
62905.33464277325,106558.0
62905.34464068663,106582.0
62905.3546386,106582.0
62905.36463651338,106558.0
62905.374634426764,106540.0
62905.38463234014,106590.0
62905.39463025352,106587.0
62905.4046281669,106555.0
62905.41462608027,106569.0
62905.424623993655,106563.0
62905.434621907036,106575.0
62905.44461982041,106575.0
62905.45461773379,106572.0
62905.46461564717,106583.0
62905.474613560546,106571.0
62905.48461147393,106544.0
62905.49460938731,106555.0
62905.50460730068,106538.0
62905.51460521406,106545.0
62905.524603127444,106583.0
62905.53460104082,106583.0
62905.5445989542,106572.0
62905.55459686758,106605.0
62905.56459478095,106582.0
62905.574592694335,106554.0
62905.584590607716,106600.0
62905.59458852109,106565.0
62905.60458643447,106571.0
62905.61458434785,106563.0
62905.624582261225,106551.0
62905.63458017461,106571.0
62905.64457808799,106580.0
62905.65457600136,106574.0
62905.66457391474,106583.0
62905.67457182812,106591.0
62905.6845697415,106597.0
62905.69456765488,106603.0
62905.70456556826,106565.0
62905.71456348163,106583.0
62905.724561395014,106586.0
62905.734559308396,106614.0
62905.74455722177,106576.0
62905.75455513515,106608.0
62905.76455304853,106574.0
62905.774550961905,106579.0
62905.78454887529,106554.0
62905.79454678867,106608.0
62905.80454470204,106578.0
62905.81454261542,106552.0
62905.8245405288,106596.0
62905.83453844218,106569.0
62905.84453635556,106570.0
62905.85453426894,106566.0
62905.86453218231,106546.0
62905.874530095694,106576.0
62905.884528009075,106571.0
62905.89452592246,106554.0
62905.90452383583,106581.0
62905.91452174921,106570.0
62905.92451966259,106563.0
62905.934517575966,106557.0
62905.94451548935,106533.0
62905.95451340273,106523.0
62905.9645113161,106583.0
62905.97450922948,106561.0
62905.984507142864,106559.0
62905.99450505624,106592.0
62906.00450296962,106545.0
62906.014500883,106550.0
62906.024498796374,106532.0
62906.034496709755,106544.0
62906.04449462314,106592.0
62906.05449253651,106564.0
62906.06449044989,106549.0
62906.07448836327,106539.0
62906.084486276646,106569.0
62906.09448419003,106560.0
62906.10448210341,106566.0
62906.11448001678,106586.0
62906.12447793016,106564.0
62906.134475843544,106572.0
62906.14447375692,106564.0
62906.1544716703,106548.0
62906.16446958368,106539.0
62906.174467497054,106555.0
62906.184465410435,106540.0
62906.194463323816,106522.0
62906.20446123719,106585.0
62906.21445915057,106560.0
62906.22445706395,106549.0
62906.234454977326,106542.0
62906.24445289071,106538.0
62906.25445080409,106564.0
62906.26444871746,106553.0
62906.27444663084,106535.0
62906.284444544224,106570.0
62906.2944424576,106560.0
62906.30444037098,106515.0
62906.31443828436,106555.0
62906.324436197734,106576.0
62906.334434111115,106571.0
62906.344432024496,106553.0
62906.35442993787,106559.0
62906.36442785125,106554.0
62906.37442576463,106575.0
62906.384423678006,106584.0
62906.39442159139,106575.0
62906.40441950477,106605.0
62906.41441741814,106542.0
62906.42441533152,106546.0
62906.434413244904,106568.0
62906.44441115828,106574.0
62906.45440907166,106564.0
62906.46440698504,106591.0
62906.47440489842,106577.0
62906.484402811795,106581.0
62906.494400725176,106570.0
62906.50439863856,106593.0
62906.51439655193,106606.0
62906.52439446531,106591.0
62906.53439237869,106571.0
62906.54439029207,106546.0
62906.55438820545,106537.0
62906.56438611883,106543.0
62906.5743840322,106559.0
62906.584381945584,106588.0
62906.594379858965,106552.0
62906.60437777234,106541.0
62906.61437568572,106605.0
62906.6243735991,106583.0
62906.634371512475,106581.0
62906.644369425856,106574.0
62906.65436733924,106599.0
62906.66436525261,106564.0
62906.67436316599,106568.0
62906.68436107937,106544.0
62906.69435899275,106551.0
62906.70435690613,106562.0
62906.71435481951,106541.0
62906.72435273288,106553.0
62906.734350646264,106537.0
62906.744348559645,106551.0
62906.75434647302,106545.0
62906.7643443864,106523.0
62906.77434229978,106527.0
62906.784340213155,106548.0
62906.794338126536,106567.0
62906.80433603992,106561.0
62906.81433395329,106555.0
62906.82433186667,106526.0
62906.83432978005,106523.0
62906.84432769343,106523.0
62906.85432560681,106534.0
62906.86432352019,106544.0
62906.87432143356,106563.0
62906.884319346944,106554.0
62906.894317260325,106527.0
62906.9043151737,106544.0
62906.91431308708,106527.0
62906.92431100046,106561.0
62906.934308913835,106537.0
62906.944306827216,106537.0
62906.9543047406,106502.0
62906.96430265397,106543.0
62906.97430056735,106531.0
62906.98429848073,106551.0
62906.99429639411,106528.0
62907.00429430749,106567.0
62907.01429222087,106509.0
62907.02429013424,106535.0
62907.034288047624,106549.0
62907.044285961005,106567.0
62907.054283874386,106507.0
62907.06428178776,106546.0
62907.07427970114,106557.0
62907.08427761452,106547.0
62907.094275527896,106532.0
62907.10427344128,106544.0
62907.11427135466,106553.0
62907.12426926803,106511.0
62907.13426718141,106530.0
62907.144265094794,106552.0
62907.15426300817,106552.0
62907.16426092155,106577.0
62907.17425883493,106535.0
62907.1842567483,106539.0
62907.194254661685,106521.0
62907.204252575066,106574.0
62907.21425048844,106538.0
62907.22424840182,106531.0
62907.2342463152,106548.0
62907.244244228576,106550.0
62907.25424214196,106568.0
62907.26424005534,106520.0
62907.27423796871,106547.0
62907.28423588209,106541.0
62907.294233795474,106562.0
62907.30423170885,106554.0
62907.31422962223,106564.0
62907.32422753561,106528.0
62907.33422544898,106537.0
62907.344223362365,106543.0
62907.354221275746,106548.0
62907.36421918912,106559.0
62907.3742171025,106587.0
62907.38421501588,106564.0
62907.394212929255,106559.0
62907.40421084264,106555.0
62907.41420875602,106553.0
62907.42420666939,106541.0
62907.43420458277,106546.0
62907.44420249615,106587.0
62907.45420040953,106574.0
62907.46419832291,106562.0
62907.47419623629,106557.0
62907.48419414966,106546.0
62907.494192063044,106553.0
62907.504189976426,106584.0
62907.5141878898,106567.0
62907.52418580318,106593.0
62907.53418371656,106570.0
62907.544181629935,106556.0
62907.55417954332,106561.0
62907.5641774567,106566.0
62907.57417537007,106561.0
62907.58417328345,106524.0
62907.59417119683,106552.0
62907.60416911021,106548.0
62907.61416702359,106523.0
62907.62416493697,106511.0
62907.63416285035,106522.0
62907.644160763724,106527.0
62907.654158677105,106566.0
62907.66415659049,106533.0
62907.67415450386,106522.0
62907.68415241724,106555.0
62907.69415033062,106529.0
62907.704148243996,106529.0
62907.71414615738,106528.0
62907.72414407076,106530.0
62907.73414198413,106529.0
62907.74413989751,106526.0
62907.754137810894,106530.0
62907.76413572427,106524.0
62907.77413363765,106546.0
62907.78413155103,106542.0
62907.794129464404,106520.0
62907.804127377785,106515.0
62907.81412529117,106555.0
62907.82412320454,106513.0
62907.83412111792,106537.0
62907.8441190313,106521.0
62907.854116944676,106512.0
62907.86411485806,106521.0
62907.87411277144,106530.0
62907.88411068481,106510.0
62907.89410859819,106536.0
62907.904106511574,106548.0
62907.91410442495,106530.0
62907.92410233833,106571.0
62907.93410025171,106555.0
62907.944098165084,106502.0
62907.954096078465,106556.0
62907.964093991846,106526.0
62907.97409190522,106518.0
62907.9840898186,106554.0
62907.99408773198,106513.0
