time,ppg
63011.66221398541,171802.0
63011.67232314951,171802.0
63011.68243231362,171817.0
63011.69254147773,171806.0
63011.70265064183,171788.0
63011.71275980594,171778.0
63011.72286897005,171803.0
63011.732978134154,171785.0
63011.74308729826,171784.0
63011.75319646237,171761.0
63011.763305626475,171804.0
63011.77341479058,171771.0
63011.78352395469,171815.0
63011.793633118796,171808.0
63011.8037422829,171794.0
63011.81385144701,171810.0
63011.82396061112,171818.0
63011.83406977522,171791.0
63011.84417893933,171825.0
63011.85428810344,171833.0
63011.86439726754,171801.0
63011.87450643165,171788.0
63011.88461559576,171840.0
63011.89472475986,171812.0
63011.904833923974,171806.0
63011.91494308808,171791.0
63011.92505225218,171796.0
63011.935161416295,171835.0
63011.9452705804,171815.0
63011.955379744504,171784.0
63011.96548890861,171775.0
63011.97559807272,171835.0
63011.985707236825,171838.0
63011.99581640093,171789.0
63012.00592556504,171805.0
63012.016034729146,171837.0
63012.02614389325,171811.0
63012.03625305736,171793.0
63012.04636222147,171806.0
63012.05647138557,171801.0
63012.06658054968,171830.0
63012.07668971379,171816.0
63012.08679887789,171790.0
63012.096908042,171830.0
63012.10701720611,171794.0
63012.11712637021,171781.0
63012.127235534324,171822.0
63012.13734469843,171818.0
63012.14745386253,171838.0
63012.157563026645,171832.0
63012.16767219075,171789.0
63012.177781354854,171837.0
63012.187890518966,171811.0
63012.19799968307,171819.0
63012.208108847175,171797.0
63012.21821801129,171800.0
63012.22832717539,171847.0
63012.238436339496,171830.0
63012.24854550361,171807.0
63012.25865466771,171816.0
63012.26876383182,171834.0
63012.27887299592,171821.0
63012.28898216003,171828.0
63012.29909132414,171819.0
63012.30920048824,171855.0
63012.319309652354,171832.0
63012.32941881646,171835.0
63012.33952798056,171819.0
63012.349637144674,171804.0
63012.35974630878,171834.0
63012.36985547288,171859.0
63012.379964636995,171811.0
63012.3900738011,171829.0
63012.400182965204,171839.0
63012.410292129316,171814.0
63012.42040129342,171826.0
63012.430510457525,171840.0
63012.44061962164,171847.0
63012.45072878574,171839.0
63012.460837949846,171824.0
63012.47094711396,171806.0
63012.48105627806,171887.0
63012.49116544217,171851.0
63012.50127460628,171835.0
63012.51138377038,171805.0
63012.52149293449,171855.0
63012.5316020986,171827.0
63012.541711262704,171803.0
63012.55182042681,171829.0
63012.56192959092,171776.0
63012.572038755025,171818.0
63012.58214791913,171850.0
63012.59225708323,171809.0
63012.602366247345,171798.0
63012.61247541145,171805.0
63012.622584575554,171827.0
63012.632693739666,171788.0
63012.64280290377,171813.0
63012.652912067875,171826.0
63012.66302123199,171839.0
63012.67313039609,171776.0
63012.683239560196,171812.0
63012.69334872431,171823.0
63012.70345788841,171824.0
63012.71356705252,171799.0
63012.72367621663,171809.0
63012.73378538073,171822.0
63012.74389454484,171857.0
63012.75400370895,171817.0
63012.764112873054,171821.0
63012.77422203716,171830.0
63012.78433120127,171833.0
63012.794440365375,171805.0
63012.80454952948,171800.0
63012.81465869359,171830.0
63012.824767857695,171785.0
63012.8348770218,171802.0
63012.84498618591,171806.0
63012.855095350016,171831.0
63012.86520451412,171821.0
63012.87531367823,171833.0
63012.88542284234,171818.0
63012.89553200644,171822.0
63012.905641170546,171830.0
63012.91575033466,171851.0
63012.92585949876,171795.0
63012.93596866287,171828.0
63012.94607782698,171829.0
63012.95618699108,171810.0
63012.96629615519,171807.0
63012.9764053193,171823.0
63012.986514483404,171835.0
63012.99662364751,171840.0
63013.00673281162,171837.0
63013.016841975725,171804.0
63013.02695113983,171837.0
63013.03706030394,171854.0
63013.047169468045,171855.0
63013.05727863215,171792.0
63013.06738779626,171834.0
63013.077496960366,171801.0
63013.08760612447,171855.0
63013.09771528858,171829.0
63013.10782445269,171841.0
63013.11793361679,171826.0
63013.1280427809,171860.0
63013.13815194501,171816.0
63013.14826110911,171842.0
63013.158370273224,171840.0
63013.16847943733,171858.0
63013.17858860143,171850.0
63013.18869776554,171841.0
63013.19880692965,171828.0
63013.208916093754,171841.0
63013.21902525786,171843.0
63013.22913442197,171849.0
63013.239243586075,171838.0
63013.24935275018,171870.0
63013.25946191429,171838.0
63013.269571078396,171825.0
63013.2796802425,171863.0
63013.28978940661,171848.0
63013.299898570716,171874.0
63013.31000773482,171817.0
63013.32011689893,171809.0
63013.33022606304,171808.0
63013.34033522714,171841.0
63013.35044439125,171832.0
63013.36055355536,171845.0
63013.37066271946,171845.0
63013.380771883574,171872.0
63013.39088104768,171835.0
63013.40099021178,171838.0
63013.411099375895,171810.0
63013.42120854,171801.0
63013.431317704104,171799.0
63013.441426868216,171827.0
63013.45153603232,171799.0
63013.461645196425,171823.0
63013.47175436054,171795.0
63013.48186352464,171814.0
63013.491972688746,171794.0
63013.50208185286,171805.0
63013.51219101696,171824.0
63013.52230018107,171817.0
63013.53240934517,171833.0
63013.54251850928,171801.0
63013.55262767339,171831.0
63013.56273683749,171825.0
63013.5728460016,171788.0
63013.58295516571,171818.0
63013.59306432981,171822.0
63013.603173493924,171804.0
63013.61328265803,171812.0
63013.62339182213,171789.0
63013.633500986245,171800.0
63013.64361015035,171826.0
63013.653719314454,171813.0
63013.663828478566,171798.0
63013.67393764267,171799.0
63013.684046806775,171843.0
63013.69415597089,171810.0
63013.70426513499,171796.0
63013.714374299096,171815.0
63013.72448346321,171812.0
63013.73459262731,171794.0
63013.74470179142,171812.0
63013.75481095553,171816.0
63013.76492011963,171776.0
63013.77502928374,171817.0
63013.78513844785,171837.0
63013.79524761195,171808.0
63013.80535677606,171860.0
63013.81546594016,171828.0
63013.825575104274,171790.0
63013.83568426838,171834.0
63013.84579343248,171837.0
63013.855902596595,171801.0
63013.8660117607,171821.0
63013.876120924804,171840.0
63013.886230088916,171829.0
63013.89633925302,171836.0
63013.906448417125,171817.0
63013.91655758124,171820.0
63013.92666674534,171820.0
63013.936775909446,171836.0
63013.94688507356,171820.0
63013.95699423766,171820.0
63013.96710340177,171860.0
63013.97721256588,171820.0
63013.98732172998,171869.0
63013.99743089409,171802.0
63014.0075400582,171820.0
63014.0176492223,171834.0
63014.02775838641,171821.0
63014.03786755052,171832.0
63014.047976714624,171848.0
63014.05808587873,171840.0
63014.06819504284,171831.0
63014.078304206945,171815.0
63014.08841337105,171841.0
63014.09852253516,171859.0
63014.108631699266,171847.0
63014.11874086337,171833.0
63014.12885002748,171853.0
63014.13895919159,171837.0
63014.14906835569,171834.0
63014.159177519796,171825.0
63014.16928668391,171858.0
63014.17939584801,171836.0
63014.18950501212,171829.0
63014.19961417623,171866.0
63014.20972334033,171831.0
63014.21983250444,171822.0
63014.22994166855,171833.0
63014.240050832654,171820.0
63014.25015999676,171834.0
63014.26026916087,171798.0
63014.270378324974,171799.0
63014.28048748908,171755.0
63014.29059665319,171815.0
63014.300705817295,171796.0
63014.3108149814,171793.0
63014.32092414551,171794.0
63014.331033309616,171803.0
63014.34114247372,171793.0
63014.35125163783,171808.0
63014.36136080194,171773.0
63014.37146996604,171811.0
63014.38157913015,171779.0
63014.39168829426,171799.0
63014.40179745836,171770.0
63014.411906622474,171771.0
63014.42201578658,171823.0
63014.43212495068,171810.0
63014.44223411479,171812.0
63014.4523432789,171791.0
63014.462452443004,171792.0
63014.47256160711,171757.0
63014.48267077122,171807.0
63014.492779935325,171822.0
63014.50288909943,171816.0
63014.51299826354,171813.0
63014.523107427645,171756.0
63014.53321659175,171785.0
63014.54332575586,171800.0
63014.553434919966,171832.0
63014.56354408407,171796.0
63014.57365324818,171820.0
63014.58376241229,171794.0
63014.59387157639,171806.0
63014.6039807405,171807.0
63014.61408990461,171771.0
63014.62419906871,171795.0
63014.634308232824,171836.0
63014.64441739693,171796.0
63014.65452656103,171837.0
63014.664635725145,171803.0
63014.67474488925,171809.0
63014.684854053354,171813.0
63014.694963217466,171781.0
63014.70507238157,171797.0
63014.715181545675,171799.0
63014.725290709786,171801.0
63014.73539987389,171836.0
63014.745509037995,171797.0
63014.75561820211,171826.0
63014.76572736621,171811.0
63014.775836530316,171815.0
63014.78594569442,171798.0
63014.79605485853,171818.0
63014.80616402264,171817.0
63014.81627318674,171822.0
63014.82638235085,171798.0
63014.83649151496,171816.0
63014.84660067906,171829.0
63014.856709843174,171823.0
63014.86681900728,171794.0
63014.87692817138,171815.0
63014.887037335495,171786.0
63014.8971464996,171805.0
63014.907255663704,171833.0
63014.917364827816,171811.0
63014.92747399192,171842.0
63014.937583156025,171822.0
63014.94769232014,171807.0
63014.95780148424,171787.0
63014.967910648345,171802.0
63014.97801981246,171841.0
63014.98812897656,171854.0
63014.998238140666,171839.0
63015.00834730478,171852.0
63015.01845646888,171817.0
63015.02856563299,171806.0
63015.0386747971,171788.0
63015.0487839612,171799.0
63015.05889312531,171795.0
63015.06900228941,171788.0
63015.079111453524,171777.0
63015.08922061763,171752.0
63015.09932978173,171782.0
63015.109438945845,171779.0
63015.11954810995,171780.0
63015.129657274054,171743.0
63015.139766438166,171790.0
63015.14987560227,171796.0
63015.159984766375,171792.0
63015.17009393049,171760.0
63015.18020309459,171774.0
63015.190312258695,171833.0
63015.20042142281,171774.0
63015.21053058691,171775.0
63015.220639751016,171774.0
63015.23074891513,171747.0
63015.24085807923,171797.0
63015.25096724334,171765.0
63015.26107640745,171775.0
63015.27118557155,171783.0
63015.28129473566,171756.0
63015.29140389977,171783.0
63015.301513063874,171782.0
63015.31162222798,171780.0
63015.32173139209,171760.0
63015.331840556195,171753.0
63015.3419497203,171764.0
63015.35205888441,171798.0
63015.362168048516,171793.0
63015.37227721262,171766.0
63015.382386376725,171786.0
63015.39249554084,171783.0
63015.40260470494,171756.0
63015.412713869046,171763.0
63015.42282303316,171763.0
63015.43293219726,171783.0
63015.443041361366,171810.0
63015.45315052548,171787.0
63015.46325968958,171730.0
63015.47336885369,171776.0
63015.4834780178,171756.0
63015.4935871819,171811.0
63015.50369634601,171770.0
63015.51380551012,171789.0
63015.523914674224,171771.0
63015.53402383833,171815.0
63015.54413300244,171792.0
63015.554242166545,171801.0
63015.56435133065,171778.0
63015.57446049476,171781.0
63015.584569658866,171768.0
63015.59467882297,171766.0
63015.60478798708,171774.0
63015.61489715119,171816.0
63015.62500631529,171822.0
63015.6351154794,171792.0
63015.64522464351,171800.0
63015.65533380761,171791.0
63015.665442971724,171813.0
63015.67555213583,171796.0
63015.68566129993,171794.0
63015.69577046404,171816.0
63015.70587962815,171806.0
63015.71598879225,171783.0
63015.72609795636,171755.0
63015.73620712047,171765.0
63015.746316284574,171785.0
63015.75642544868,171808.0
63015.76653461279,171811.0
63015.776643776895,171761.0
63015.786752941,171828.0
63015.79686210511,171795.0
63015.806971269216,171804.0
63015.81708043332,171775.0
63015.82718959743,171752.0
63015.83729876154,171820.0
63015.84740792564,171784.0
63015.85751708975,171748.0
63015.86762625386,171758.0
63015.87773541796,171767.0
63015.887844582074,171770.0
63015.89795374618,171742.0
63015.90806291028,171780.0
63015.918172074395,171757.0
63015.9282812385,171756.0
63015.9383904026,171758.0
63015.948499566715,171744.0
63015.95860873082,171765.0
63015.968717894924,171750.0
63015.978827059036,171746.0
63015.98893622314,171746.0
63015.999045387245,171754.0
63016.00915455135,171736.0
63016.01926371546,171716.0
63016.029372879566,171732.0
63016.03948204367,171737.0
63016.04959120778,171748.0
63016.05970037189,171730.0
63016.06980953599,171724.0
63016.0799187001,171739.0
63016.09002786421,171738.0
63016.10013702831,171753.0
63016.110246192424,171740.0
63016.12035535653,171723.0
63016.13046452063,171763.0
63016.140573684745,171746.0
63016.15068284885,171733.0
63016.16079201295,171707.0
63016.170901177065,171711.0
63016.18101034117,171751.0
63016.191119505274,171802.0
63016.201228669386,171754.0
63016.21133783349,171756.0
63016.221446997595,171755.0
63016.23155616171,171735.0
63016.24166532581,171766.0
63016.251774489916,171785.0
63016.26188365403,171766.0
63016.27199281813,171778.0
63016.28210198224,171767.0
63016.29221114635,171789.0
63016.30232031045,171762.0
63016.31242947456,171746.0
63016.32253863866,171726.0
63016.332647802774,171745.0
63016.34275696688,171764.0
63016.35286613098,171770.0
63016.362975295095,171771.0
63016.3730844592,171732.0
63016.383193623304,171774.0
63016.393302787415,171780.0
63016.40341195152,171766.0
63016.413521115624,171766.0
63016.423630279736,171769.0
63016.43373944384,171748.0
63016.443848607945,171804.0
63016.45395777206,171760.0
63016.46406693616,171766.0
63016.474176100266,171744.0
63016.48428526438,171795.0
63016.49439442848,171752.0
63016.50450359259,171756.0
63016.5146127567,171779.0
63016.5247219208,171809.0
63016.53483108491,171784.0
63016.54494024902,171750.0
63016.555049413124,171786.0
63016.56515857723,171764.0
63016.57526774134,171796.0
63016.585376905445,171770.0
63016.59548606955,171781.0
63016.60559523366,171806.0
63016.615704397766,171741.0
63016.62581356187,171757.0
63016.635922725975,171794.0
63016.646031890086,171784.0
63016.65614105419,171823.0
63016.666250218295,171747.0
63016.67635938241,171779.0
63016.68646854651,171768.0
63016.696577710616,171805.0
63016.70668687473,171751.0
63016.71679603883,171776.0
63016.72690520294,171736.0
63016.73701436705,171785.0
63016.74712353115,171747.0
63016.75723269526,171740.0
63016.76734185937,171721.0
63016.777451023474,171764.0
63016.78756018758,171751.0
63016.79766935169,171696.0
63016.807778515795,171709.0
63016.8178876799,171710.0
63016.82799684401,171711.0
63016.838106008116,171731.0
63016.84821517222,171715.0
63016.85832433633,171710.0
63016.86843350044,171749.0
63016.87854266454,171759.0
63016.88865182865,171735.0
63016.89876099276,171714.0
63016.90887015686,171735.0
63016.91897932097,171704.0
63016.92908848508,171686.0
63016.93919764918,171713.0
63016.94930681329,171720.0
63016.9594159774,171748.0
63016.9695251415,171742.0
63016.97963430561,171750.0
63016.98974346972,171732.0
63016.999852633824,171746.0
63017.00996179793,171733.0
63017.02007096204,171715.0
63017.030180126145,171741.0
63017.04028929025,171749.0
63017.05039845436,171732.0
63017.060507618466,171717.0
63017.07061678257,171736.0
63017.08072594668,171742.0
63017.09083511079,171729.0
63017.10094427489,171722.0
63017.111053439,171745.0
63017.12116260311,171768.0
63017.13127176721,171734.0
63017.14138093132,171722.0
63017.15149009543,171717.0
63017.16159925953,171707.0
63017.171708423644,171745.0
63017.18181758775,171759.0
63017.19192675185,171732.0
63017.202035915965,171721.0
63017.21214508007,171743.0
63017.222254244174,171738.0
63017.232363408286,171726.0
63017.24247257239,171775.0
63017.252581736495,171738.0
63017.2626909006,171746.0
63017.27280006471,171715.0
63017.282909228816,171771.0
63017.29301839292,171755.0
63017.30312755703,171758.0
63017.31323672114,171738.0
63017.32334588524,171713.0
63017.33345504935,171748.0
63017.34356421346,171752.0
63017.35367337756,171743.0
63017.36378254167,171763.0
63017.37389170578,171745.0
63017.38400086988,171756.0
63017.394110033994,171786.0
63017.4042191981,171767.0
63017.4143283622,171778.0
63017.424437526315,171750.0
63017.43454669042,171735.0
63017.444655854524,171756.0
63017.454765018636,171734.0
63017.46487418274,171730.0
63017.474983346845,171738.0
63017.48509251096,171748.0
63017.49520167506,171754.0
63017.505310839166,171756.0
63017.51542000328,171752.0
63017.52552916738,171778.0
63017.53563833149,171779.0
63017.5457474956,171770.0
63017.5558566597,171785.0
63017.56596582381,171764.0
63017.57607498791,171758.0
63017.58618415202,171786.0
63017.59629331613,171745.0
63017.60640248023,171758.0
63017.616511644344,171787.0
63017.62662080845,171741.0
63017.63672997255,171696.0
63017.646839136665,171736.0
63017.65694830077,171696.0
63017.667057464874,171723.0
63017.677166628986,171707.0
63017.68727579309,171684.0
63017.697384957195,171749.0
63017.70749412131,171700.0
63017.71760328541,171716.0
63017.727712449516,171742.0
63017.73782161363,171723.0
63017.74793077773,171720.0
63017.75803994184,171711.0
63017.76814910595,171723.0
63017.77825827005,171702.0
63017.78836743416,171711.0
63017.79847659827,171725.0
63017.808585762374,171705.0
63017.81869492648,171710.0
63017.82880409059,171735.0
63017.838913254694,171721.0
63017.8490224188,171708.0
63017.85913158291,171750.0
63017.869240747015,171689.0
63017.87934991112,171724.0
63017.889459075224,171707.0
63017.899568239336,171729.0
63017.90967740344,171728.0
63017.919786567545,171716.0
63017.92989573166,171714.0
63017.94000489576,171715.0
63017.950114059866,171702.0
63017.96022322398,171719.0
63017.97033238808,171715.0
63017.98044155219,171732.0
63017.9905507163,171729.0
63018.0006598804,171695.0
63018.01076904451,171743.0
63018.02087820862,171711.0
63018.030987372724,171746.0
63018.04109653683,171724.0
63018.05120570094,171718.0
63018.061314865045,171741.0
63018.07142402915,171714.0
63018.08153319326,171751.0
63018.091642357365,171733.0
63018.10175152147,171709.0
63018.11186068558,171756.0
63018.121969849686,171762.0
63018.13207901379,171714.0
63018.1421881779,171720.0
63018.15229734201,171736.0
63018.16240650611,171735.0
63018.17251567022,171741.0
63018.18262483433,171730.0
63018.19273399843,171749.0
63018.20284316254,171753.0
63018.21295232665,171748.0
63018.22306149075,171750.0
63018.23317065486,171719.0
63018.24327981897,171772.0
63018.253388983074,171754.0
63018.26349814718,171742.0
63018.27360731129,171719.0
63018.283716475395,171753.0
63018.2938256395,171738.0
63018.30393480361,171735.0
63018.314043967715,171716.0
63018.32415313182,171724.0
63018.33426229593,171757.0
63018.344371460036,171760.0
63018.35448062414,171729.0
63018.36458978825,171756.0
63018.37469895236,171770.0
63018.38480811646,171777.0
63018.39491728057,171747.0
63018.40502644468,171746.0
63018.41513560878,171755.0
63018.425244772894,171774.0
63018.435353937,171726.0
63018.4454631011,171751.0
63018.455572265215,171776.0
63018.46568142932,171743.0
63018.475790593424,171750.0
63018.485899757536,171746.0
63018.49600892164,171768.0
63018.506118085745,171758.0
63018.51622724985,171752.0
63018.52633641396,171718.0
63018.536445578065,171745.0
63018.54655474217,171720.0
63018.55666390628,171696.0
63018.566773070386,171712.0
63018.57688223449,171700.0
63018.5869913986,171712.0
63018.59710056271,171731.0
63018.60720972681,171700.0
63018.61731889092,171716.0
63018.62742805503,171715.0
63018.63753721913,171727.0
63018.647646383244,171723.0
63018.65775554735,171702.0
63018.66786471145,171687.0
63018.677973875565,171717.0
63018.68808303967,171690.0
63018.698192203774,171701.0
63018.708301367886,171709.0
63018.71841053199,171697.0
63018.728519696095,171690.0
63018.73862886021,171692.0
63018.74873802431,171718.0
63018.758847188416,171728.0
63018.76895635253,171724.0
63018.77906551663,171711.0
63018.789174680736,171714.0
63018.79928384485,171751.0
63018.80939300895,171719.0
63018.81950217306,171679.0
63018.82961133716,171714.0
63018.83972050127,171704.0
63018.84982966538,171739.0
63018.85993882948,171697.0
63018.870047993594,171711.0
63018.8801571577,171717.0
63018.8902663218,171703.0
63018.900375485915,171730.0
63018.91048465002,171708.0
63018.920593814124,171729.0
63018.930702978236,171753.0
63018.94081214234,171703.0
63018.950921306445,171709.0
63018.96103047056,171730.0
63018.97113963466,171736.0
63018.981248798766,171718.0
63018.99135796288,171693.0
63019.00146712698,171717.0
63019.01157629109,171746.0
63019.0216854552,171747.0
63019.0317946193,171696.0
63019.04190378341,171739.0
63019.05201294752,171746.0
63019.06212211162,171758.0
63019.07223127573,171684.0
63019.08234043984,171732.0
63019.092449603944,171695.0
63019.10255876805,171724.0
63019.11266793216,171713.0
63019.122777096265,171745.0
63019.13288626037,171723.0
63019.142995424474,171750.0
63019.153104588586,171725.0
63019.16321375269,171756.0
63019.173322916795,171739.0
63019.18343208091,171742.0
63019.19354124501,171719.0
63019.203650409116,171751.0
63019.21375957323,171731.0
63019.22386873733,171753.0
63019.23397790144,171771.0
63019.24408706555,171753.0
63019.25419622965,171754.0
63019.26430539376,171756.0
63019.27441455787,171773.0
63019.28452372197,171720.0
63019.29463288608,171755.0
63019.30474205019,171759.0
63019.314851214294,171778.0
63019.3249603784,171733.0
63019.33506954251,171727.0
63019.345178706615,171724.0
63019.35528787072,171774.0
63019.36539703483,171761.0
63019.375506198936,171772.0
63019.38561536304,171757.0
63019.39572452715,171756.0
63019.40583369126,171745.0
63019.41594285536,171744.0
63019.42605201947,171740.0
63019.43616118358,171726.0
63019.44627034768,171713.0
63019.45637951179,171750.0
63019.4664886759,171691.0
63019.47659784,171717.0
63019.48670700411,171710.0
63019.49681616822,171725.0
63019.50692533232,171665.0
63019.51703449643,171717.0
63019.52714366054,171740.0
63019.537252824644,171707.0
63019.54736198875,171752.0
63019.55747115286,171714.0
63019.567580316965,171748.0
63019.57768948107,171727.0
63019.58779864518,171687.0
63019.597907809286,171674.0
63019.60801697339,171684.0
63019.6181261375,171705.0
63019.62823530161,171733.0
63019.63834446571,171689.0
63019.64845362982,171713.0
63019.65856279393,171716.0
63019.66867195803,171718.0
63019.678781122144,171695.0
63019.68889028625,171688.0
63019.69899945035,171688.0
63019.709108614465,171722.0
63019.71921777857,171699.0
63019.729326942674,171709.0
63019.739436106785,171746.0
63019.74954527089,171709.0
63019.759654434994,171693.0
63019.7697635991,171707.0
63019.77987276321,171738.0
63019.789981927315,171709.0
63019.80009109142,171726.0
63019.81020025553,171745.0
63019.820309419636,171744.0
63019.83041858374,171715.0
63019.84052774785,171738.0
63019.85063691196,171738.0
63019.86074607606,171732.0
63019.87085524017,171747.0
63019.88096440428,171730.0
63019.89107356838,171712.0
63019.901182732494,171724.0
63019.9112918966,171738.0
63019.9214010607,171714.0
63019.931510224815,171710.0
63019.94161938892,171717.0
63019.951728553024,171733.0
63019.961837717135,171745.0
63019.97194688124,171713.0
63019.982056045345,171728.0
63019.992165209456,171745.0
63020.00227437356,171763.0
63020.012383537665,171740.0
63020.02249270178,171692.0
63020.03260186588,171746.0
63020.042711029986,171703.0
63020.0528201941,171747.0
63020.0629293582,171737.0
63020.07303852231,171749.0
63020.08314768641,171734.0
63020.09325685052,171732.0
63020.10336601463,171736.0
63020.11347517873,171783.0
63020.123584342844,171744.0
63020.13369350695,171771.0
63020.14380267105,171746.0
63020.153911835165,171738.0
63020.16402099927,171740.0
63020.174130163374,171755.0
63020.184239327486,171758.0
63020.19434849159,171742.0
63020.204457655695,171762.0
63020.214566819806,171753.0
63020.22467598391,171732.0
63020.234785148015,171736.0
63020.24489431213,171775.0
63020.25500347623,171759.0
63020.265112640336,171784.0
63020.27522180445,171730.0
63020.28533096855,171755.0
63020.29544013266,171747.0
63020.30554929677,171796.0
63020.31565846087,171741.0
63020.32576762498,171767.0
63020.33587678909,171722.0
63020.345985953194,171768.0
63020.3560951173,171782.0
63020.36620428141,171752.0
63020.376313445515,171742.0
63020.38642260962,171707.0
63020.396531773724,171694.0
63020.406640937836,171702.0
63020.41675010194,171712.0
63020.426859266045,171732.0
63020.43696843016,171729.0
63020.44707759426,171726.0
63020.457186758365,171711.0
63020.46729592248,171727.0
63020.47740508658,171677.0
63020.487514250686,171704.0
63020.4976234148,171722.0
63020.5077325789,171745.0
63020.51784174301,171705.0
63020.52795090712,171697.0
63020.53806007122,171695.0
63020.54816923533,171678.0
63020.55827839944,171735.0
63020.568387563544,171702.0
63020.57849672765,171727.0
63020.58860589176,171715.0
63020.598715055865,171718.0
63020.60882421997,171707.0
63020.61893338408,171722.0
63020.629042548186,171716.0
63020.63915171229,171722.0
63020.6492608764,171748.0
63020.65937004051,171723.0
63020.66947920461,171701.0
63020.67958836872,171716.0
63020.68969753283,171703.0
63020.69980669693,171724.0
63020.709915861036,171694.0
63020.72002502515,171724.0
63020.73013418925,171757.0
63020.74024335336,171731.0
63020.75035251747,171752.0
63020.76046168157,171721.0
63020.77057084568,171748.0
63020.78068000979,171744.0
63020.790789173894,171707.0
63020.800898338,171734.0
63020.81100750211,171755.0
63020.821116666215,171734.0
63020.83122583032,171729.0
63020.84133499443,171727.0
63020.851444158536,171719.0
63020.86155332264,171738.0
63020.87166248675,171744.0
63020.88177165086,171751.0
63020.89188081496,171711.0
63020.90198997907,171730.0
63020.91209914318,171746.0
63020.92220830728,171748.0
63020.93231747139,171761.0
63020.9424266355,171731.0
63020.9525357996,171735.0
63020.962644963714,171721.0
63020.97275412782,171775.0
63020.98286329192,171749.0
63020.992972456035,171765.0
63021.00308162014,171770.0
63021.013190784244,171746.0
63021.02329994835,171764.0
63021.03340911246,171759.0
63021.043518276565,171766.0
63021.05362744067,171751.0
63021.06373660478,171740.0
63021.073845768886,171759.0
63021.08395493299,171753.0
63021.0940640971,171773.0
63021.10417326121,171772.0
63021.11428242531,171769.0
63021.12439158942,171759.0
63021.13450075353,171791.0
63021.14460991763,171768.0
63021.154719081744,171759.0
63021.16482824585,171756.0
63021.17493740995,171767.0
63021.185046574064,171776.0
63021.19515573817,171783.0
63021.20526490227,171778.0
63021.215374066385,171754.0
63021.22548323049,171795.0
63021.235592394594,171773.0
63021.245701558706,171756.0
63021.25581072281,171773.0
63021.265919886915,171776.0
63021.27602905103,171737.0
63021.28613821513,171748.0
63021.296247379236,171745.0
63021.30635654335,171756.0
63021.31646570745,171737.0
63021.32657487156,171734.0
63021.33668403566,171704.0
63021.34679319977,171757.0
63021.35690236388,171745.0
63021.36701152798,171730.0
63021.377120692094,171716.0
63021.3872298562,171756.0
63021.3973390203,171749.0
63021.407448184415,171751.0
63021.41755734852,171774.0
63021.42766651262,171728.0
63021.437775676735,171743.0
63021.44788484084,171746.0
63021.457994004944,171739.0
63021.468103169056,171756.0
63021.47821233316,171789.0
63021.488321497265,171745.0
63021.49843066138,171742.0
63021.50853982548,171751.0
63021.518648989586,171756.0
63021.5287581537,171760.0
63021.5388673178,171730.0
63021.54897648191,171749.0
63021.55908564602,171767.0
63021.56919481012,171767.0
63021.57930397423,171738.0
63021.58941313834,171734.0
63021.599522302444,171779.0
63021.60963146655,171723.0
63021.61974063066,171758.0
63021.629849794765,171744.0
63021.63995895887,171732.0
63021.65006812297,171757.0
63021.660177287085,171738.0
63021.67028645119,171743.0
63021.680395615294,171729.0
63021.690504779406,171755.0
63021.70061394351,171766.0
63021.710723107615,171750.0
63021.72083227173,171785.0
63021.73094143583,171798.0
63021.741050599936,171748.0
63021.75115976405,171761.0
63021.76126892815,171769.0
63021.77137809226,171788.0
63021.78148725637,171777.0
63021.79159642047,171761.0
63021.80170558458,171774.0
63021.81181474869,171778.0
63021.821923912794,171787.0
63021.8320330769,171748.0
63021.84214224101,171748.0
63021.852251405115,171791.0
63021.86236056922,171794.0
63021.87246973333,171754.0
63021.882578897435,171752.0
63021.89268806154,171798.0
63021.90279722565,171775.0
63021.912906389756,171760.0
63021.92301555386,171755.0
63021.93312471797,171808.0
63021.94323388208,171782.0
63021.95334304618,171748.0
63021.963452210286,171769.0
63021.9735613744,171802.0
63021.9836705385,171788.0
63021.99377970261,171760.0
63022.00388886672,171772.0
63022.01399803082,171779.0
63022.02410719493,171783.0
63022.03421635904,171790.0
63022.044325523144,171796.0
63022.05443468725,171788.0
63022.06454385136,171803.0
63022.074653015465,171777.0
63022.08476217957,171757.0
63022.09487134368,171747.0
63022.104980507786,171814.0
63022.11508967189,171796.0
63022.125198836,171771.0
63022.135308000106,171798.0
63022.14541716421,171756.0
63022.15552632832,171773.0
63022.16563549243,171755.0
63022.17574465653,171757.0
63022.18585382064,171761.0
63022.19596298475,171763.0
63022.20607214885,171794.0
63022.216181312964,171752.0
63022.22629047707,171791.0
63022.23639964117,171758.0
63022.246508805285,171786.0
63022.25661796939,171736.0
63022.266727133494,171761.0
63022.2768362976,171770.0
63022.28694546171,171778.0
63022.297054625815,171732.0
63022.30716378992,171764.0
63022.31727295403,171767.0
63022.327382118136,171779.0
63022.33749128224,171741.0
63022.34760044635,171796.0
63022.35770961046,171778.0
63022.36781877456,171792.0
63022.37792793867,171788.0
63022.38803710278,171758.0
63022.39814626688,171768.0
63022.40825543099,171732.0
63022.4183645951,171793.0
63022.4284737592,171745.0
63022.438582923314,171740.0
63022.44869208742,171770.0
63022.45880125152,171736.0
63022.468910415635,171748.0
63022.47901957974,171749.0
63022.489128743844,171771.0
63022.499237907956,171753.0
63022.50934707206,171758.0
63022.519456236165,171772.0
63022.52956540028,171774.0
63022.53967456438,171796.0
63022.549783728486,171739.0
63022.5598928926,171767.0
63022.5700020567,171781.0
63022.58011122081,171765.0
63022.59022038491,171793.0
63022.60032954902,171766.0
63022.61043871313,171790.0
63022.62054787723,171772.0
63022.63065704134,171782.0
63022.64076620545,171792.0
63022.65087536955,171803.0
63022.660984533664,171769.0
63022.67109369777,171797.0
63022.68120286187,171735.0
63022.691312025985,171781.0
63022.70142119009,171788.0
63022.711530354194,171816.0
63022.721639518306,171802.0
63022.73174868241,171792.0
63022.741857846515,171765.0
63022.75196701063,171818.0
63022.76207617473,171793.0
63022.772185338836,171806.0
63022.78229450295,171804.0
63022.79240366705,171804.0
63022.80251283116,171834.0
63022.81262199527,171773.0
63022.82273115937,171774.0
63022.83284032348,171804.0
63022.84294948759,171823.0
63022.85305865169,171787.0
63022.8631678158,171797.0
63022.87327697991,171829.0
63022.883386144014,171833.0
63022.89349530812,171764.0
63022.90360447222,171815.0
63022.913713636335,171797.0
63022.92382280044,171832.0
63022.933931964544,171785.0
63022.944041128656,171749.0
63022.95415029276,171775.0
63022.964259456865,171799.0
63022.97436862098,171774.0
63022.98447778508,171797.0
63022.994586949186,171760.0
63023.0046961133,171792.0
63023.0148052774,171787.0
63023.02491444151,171769.0
63023.03502360562,171742.0
63023.04513276972,171775.0
63023.05524193383,171790.0
63023.06535109794,171753.0
63023.07546026204,171756.0
63023.08556942615,171757.0
63023.09567859026,171730.0
63023.105787754364,171752.0
63023.11589691847,171764.0
63023.12600608258,171762.0
63023.136115246685,171751.0
63023.14622441079,171776.0
63023.1563335749,171774.0
63023.166442739006,171774.0
63023.17655190311,171764.0
63023.18666106722,171773.0
63023.19677023133,171753.0
63023.20687939543,171736.0
63023.216988559536,171809.0
63023.22709772365,171757.0
63023.23720688775,171751.0
63023.24731605186,171747.0
63023.25742521597,171777.0
63023.26753438007,171777.0
63023.27764354418,171766.0
63023.28775270829,171761.0
63023.297861872394,171781.0
63023.3079710365,171792.0
63023.31808020061,171776.0
63023.328189364714,171761.0
63023.33829852882,171745.0
63023.34840769293,171820.0
63023.358516857035,171767.0
63023.36862602114,171767.0
63023.37873518525,171798.0
63023.388844349356,171788.0
63023.39895351346,171780.0
63023.40906267757,171758.0
63023.41917184168,171767.0
63023.42928100578,171792.0
63023.43939016989,171777.0
63023.449499334,171802.0
63023.4596084981,171749.0
63023.469717662214,171814.0
63023.47982682632,171760.0
63023.48993599042,171776.0
63023.500045154535,171769.0
63023.51015431864,171779.0
63023.520263482744,171787.0
63023.53037264685,171790.0
63023.54048181096,171769.0
63023.550590975065,171765.0
63023.56070013917,171785.0
63023.57080930328,171801.0
63023.580918467385,171801.0
63023.59102763149,171799.0
63023.6011367956,171785.0
63023.611245959706,171798.0
63023.62135512381,171774.0
63023.63146428792,171758.0
63023.64157345203,171780.0
63023.65168261613,171758.0
63023.66179178024,171772.0
63023.67190094435,171804.0
63023.68201010845,171793.0
63023.692119272564,171783.0
63023.70222843667,171812.0
63023.71233760077,171787.0
63023.722446764885,171786.0
63023.73255592899,171778.0
63023.742665093094,171778.0
63023.752774257206,171757.0
63023.76288342131,171753.0
63023.772992585415,171779.0
63023.78310174953,171765.0
63023.79321091363,171753.0
63023.803320077735,171729.0
63023.81342924185,171741.0
63023.82353840595,171772.0
63023.833647570056,171759.0
63023.84375673416,171775.0
63023.85386589827,171747.0
63023.86397506238,171760.0
63023.87408422648,171733.0
63023.88419339059,171700.0
63023.8943025547,171729.0
63023.9044117188,171715.0
63023.914520882914,171737.0
63023.92463004702,171731.0
63023.93473921112,171754.0
63023.944848375235,171730.0
63023.95495753934,171772.0
63023.965066703444,171752.0
63023.975175867556,171751.0
63023.98528503166,171738.0
63023.995394195765,171766.0
63024.00550335988,171732.0
63024.01561252398,171746.0
63024.025721688085,171744.0
63024.0358308522,171712.0
63024.0459400163,171754.0
63024.056049180406,171761.0
63024.06615834452,171725.0
63024.07626750862,171775.0
63024.08637667273,171731.0
63024.09648583684,171733.0
63024.10659500094,171767.0
63024.11670416505,171788.0
63024.12681332916,171741.0
63024.136922493264,171742.0
63024.14703165737,171716.0
63024.15714082147,171737.0
63024.167249985585,171777.0
63024.17735914969,171742.0
63024.187468313794,171758.0
63024.197577477906,171760.0
63024.20768664201,171729.0
63024.217795806115,171741.0
63024.22790497023,171759.0
63024.23801413433,171789.0
63024.248123298436,171759.0
63024.25823246255,171800.0
63024.26834162665,171771.0
63024.278450790756,171749.0
63024.28855995487,171731.0
63024.29866911897,171772.0
63024.30877828308,171763.0
63024.31888744719,171758.0
63024.32899661129,171765.0
63024.3391057754,171760.0
63024.34921493951,171770.0
63024.359324103614,171780.0
63024.36943326772,171789.0
63024.37954243183,171760.0
63024.389651595935,171785.0
63024.39976076004,171751.0
63024.40986992415,171766.0
63024.419979088256,171768.0
63024.43008825236,171767.0
63024.44019741647,171758.0
63024.45030658058,171767.0
63024.46041574468,171794.0
63024.470524908786,171780.0
63024.4806340729,171766.0
63024.490743237,171758.0
63024.50085240111,171789.0
63024.51096156522,171770.0
63024.52107072932,171759.0
63024.53117989343,171734.0
63024.54128905754,171714.0
63024.55139822164,171748.0
63024.56150738575,171724.0
63024.57161654986,171712.0
63024.581725713964,171707.0
63024.59183487807,171694.0
63024.60194404218,171723.0
63024.612053206285,171714.0
63024.62216237039,171738.0
63024.6322715345,171700.0
63024.642380698606,171719.0
63024.65248986271,171750.0
63024.66259902682,171717.0
63024.67270819093,171704.0
63024.68281735503,171696.0
63024.69292651914,171680.0
63024.70303568325,171723.0
63024.71314484735,171683.0
63024.723254011464,171722.0
63024.73336317557,171711.0
63024.74347233967,171747.0
63024.753581503785,171706.0
63024.76369066789,171733.0
63024.77379983199,171736.0
63024.7839089961,171736.0
63024.79401816021,171717.0
63024.804127324314,171733.0
63024.81423648842,171773.0
63024.82434565253,171714.0
63024.834454816635,171749.0
63024.84456398074,171725.0
63024.85467314485,171729.0
63024.864782308956,171743.0
63024.87489147306,171739.0
63024.88500063717,171715.0
63024.89510980128,171727.0
63024.90521896538,171735.0
63024.91532812949,171708.0
63024.9254372936,171749.0
63024.9355464577,171713.0
63024.945655621814,171679.0
63024.95576478592,171748.0
63024.96587395002,171698.0
63024.975983114135,171714.0
63024.98609227824,171730.0
63024.99620144234,171718.0
63025.006310606455,171729.0
63025.01641977056,171733.0
63025.026528934664,171751.0
63025.036638098776,171718.0
63025.04674726288,171701.0
63025.056856426985,171737.0
63025.0669655911,171746.0
63025.0770747552,171760.0
63025.087183919306,171690.0
63025.09729308341,171725.0
63025.10740224752,171714.0
63025.11751141163,171706.0
63025.12762057573,171766.0
63025.13772973984,171752.0
63025.14783890395,171750.0
63025.15794806805,171773.0
63025.168057232164,171756.0
63025.17816639627,171746.0
63025.18827556037,171725.0
63025.198384724485,171751.0
63025.20849388859,171765.0
63025.218603052694,171746.0
63025.228712216805,171713.0
63025.23882138091,171755.0
63025.248930545014,171733.0
63025.259039709126,171758.0
63025.26914887323,171739.0
63025.279258037335,171746.0
63025.28936720145,171754.0
63025.29947636555,171718.0
63025.309585529656,171742.0
63025.31969469377,171749.0
63025.32980385787,171736.0
63025.33991302198,171685.0
63025.35002218609,171667.0
63025.36013135019,171662.0
63025.3702405143,171712.0
63025.38034967841,171708.0
63025.390458842514,171699.0
63025.40056800662,171677.0
63025.41067717072,171713.0
63025.420786334835,171686.0
63025.43089549894,171694.0
63025.441004663044,171731.0
63025.451113827155,171672.0
63025.46122299126,171664.0
63025.471332155365,171699.0
63025.481441319476,171659.0
63025.49155048358,171708.0
63025.501659647685,171710.0
63025.5117688118,171690.0
63025.5218779759,171665.0
63025.531987140006,171686.0
63025.54209630412,171719.0
63025.55220546822,171698.0
63025.56231463233,171670.0
63025.57242379644,171698.0
63025.58253296054,171726.0
63025.59264212465,171710.0
63025.60275128876,171677.0
63025.612860452864,171663.0
63025.62296961697,171707.0
63025.63307878108,171690.0
63025.643187945185,171704.0
63025.65329710929,171698.0
63025.6634062734,171695.0
63025.673515437506,171694.0
63025.68362460161,171703.0
63025.69373376572,171678.0
63025.703842929826,171665.0
63025.71395209393,171735.0
63025.724061258035,171702.0
63025.73417042215,171679.0
63025.74427958625,171690.0
63025.754388750356,171736.0
63025.76449791447,171705.0
63025.77460707857,171670.0
63025.78471624268,171706.0
63025.79482540679,171710.0
63025.80493457089,171707.0
63025.815043735,171745.0
63025.82515289911,171691.0
63025.835262063214,171741.0
63025.84537122732,171709.0
63025.85548039143,171689.0
63025.865589555535,171696.0
63025.87569871964,171718.0
63025.88580788375,171729.0
63025.895917047856,171711.0
63025.90602621196,171690.0
63025.91613537607,171711.0
63025.92624454018,171708.0
63025.93635370428,171700.0
63025.94646286839,171700.0
63025.9565720325,171695.0
63025.9666811966,171726.0
63025.97679036071,171739.0
63025.98689952482,171727.0
63025.99700868892,171704.0
63026.007117853034,171725.0
63026.01722701714,171764.0
63026.02733618124,171700.0
63026.03744534535,171719.0
63026.04755450946,171741.0
63026.057663673564,171711.0
63026.06777283767,171758.0
63026.07788200178,171723.0
63026.087991165885,171740.0
63026.09810032999,171724.0
63026.1082094941,171758.0
63026.118318658206,171713.0
63026.12842782231,171745.0
63026.13853698642,171714.0
63026.14864615053,171726.0
63026.15875531463,171657.0
63026.16886447874,171684.0
63026.17897364285,171678.0
63026.18908280695,171678.0
63026.19919197106,171651.0
63026.20930113517,171655.0
63026.21941029927,171670.0
63026.229519463384,171674.0
63026.23962862749,171652.0
63026.24973779159,171682.0
63026.259846955705,171677.0
63026.26995611981,171718.0
63026.280065283914,171695.0
63026.290174448026,171646.0
63026.30028361213,171679.0
63026.310392776235,171658.0
63026.32050194035,171707.0
63026.33061110445,171674.0
63026.340720268556,171670.0
63026.35082943266,171664.0
63026.36093859677,171641.0
63026.37104776088,171689.0
63026.38115692498,171677.0
63026.39126608909,171672.0
63026.4013752532,171675.0
63026.4114844173,171656.0
63026.42159358141,171653.0
63026.43170274552,171664.0
63026.44181190962,171669.0
63026.451921073734,171682.0
63026.46203023784,171683.0
63026.47213940194,171644.0
63026.482248566055,171671.0
63026.49235773016,171706.0
63026.502466894264,171658.0
63026.512576058376,171678.0
63026.52268522248,171671.0
63026.532794386585,171702.0
63026.5429035507,171662.0
63026.5530127148,171663.0
63026.563121878906,171701.0
63026.57323104302,171692.0
63026.58334020712,171678.0
63026.59344937123,171687.0
63026.60355853534,171677.0
63026.61366769944,171706.0
63026.62377686355,171688.0
63026.63388602766,171687.0
63026.643995191764,171699.0
63026.65410435587,171710.0
63026.66421351997,171695.0
63026.674322684084,171696.0
63026.68443184819,171655.0
63026.69454101229,171712.0
63026.704650176405,171678.0
63026.71475934051,171684.0
63026.724868504614,171707.0
63026.734977668726,171687.0
63026.74508683283,171709.0
63026.755195996935,171695.0
63026.76530516105,171689.0
63026.77541432515,171701.0
63026.785523489256,171738.0
63026.79563265337,171713.0
63026.80574181747,171679.0
63026.81585098158,171700.0
63026.82596014569,171727.0
63026.83606930979,171711.0
63026.8461784739,171712.0
63026.85628763801,171714.0
63026.866396802114,171723.0
63026.87650596622,171708.0
63026.88661513033,171702.0
63026.896724294435,171702.0
63026.90683345854,171700.0
63026.91694262265,171739.0
63026.927051786755,171713.0
63026.93716095086,171700.0
63026.94727011497,171754.0
63026.957379279076,171698.0
63026.96748844318,171723.0
63026.977597607285,171694.0
63026.9877067714,171709.0
63026.9978159355,171719.0
63027.007925099606,171708.0
63027.01803426372,171710.0
63027.02814342782,171697.0
63027.03825259193,171694.0
63027.04836175604,171683.0
63027.05847092014,171650.0
63027.06858008425,171687.0
63027.07868924836,171671.0
63027.088798412464,171658.0
63027.09890757657,171640.0
63027.10901674068,171634.0
63027.119125904785,171686.0
63027.12923506889,171668.0
63027.139344233,171660.0
63027.149453397105,171641.0
63027.15956256121,171687.0
63027.16967172532,171671.0
63027.179780889426,171652.0
63027.18989005353,171626.0
63027.19999921764,171645.0
63027.21010838175,171647.0
63027.22021754585,171699.0
63027.23032670996,171603.0
63027.24043587407,171612.0
63027.25054503817,171644.0
63027.260654202284,171654.0
63027.27076336639,171662.0
63027.28087253049,171672.0
63027.2909816946,171654.0
63027.30109085871,171632.0
63027.311200022814,171636.0
63027.32130918692,171662.0
63027.33141835103,171643.0
63027.341527515135,171665.0
63027.35163667924,171606.0
63027.36174584335,171639.0
63027.371855007455,171634.0
63027.38196417156,171650.0
63027.39207333567,171660.0
63027.402182499776,171615.0
63027.41229166388,171647.0
63027.42240082799,171662.0
63027.4325099921,171660.0
63027.4426191562,171672.0
63027.45272832031,171691.0
63027.46283748442,171673.0
63027.47294664852,171682.0
63027.483055812634,171653.0
63027.49316497674,171663.0
63027.50327414084,171655.0
63027.513383304955,171650.0
63027.52349246906,171698.0
63027.533601633164,171648.0
63027.543710797276,171670.0
63027.55381996138,171683.0
63027.563929125485,171657.0
63027.5740382896,171646.0
63027.5841474537,171691.0
63027.594256617806,171685.0
63027.60436578191,171710.0
63027.61447494602,171704.0
63027.624584110126,171675.0
63027.63469327423,171655.0
63027.64480243834,171689.0
63027.65491160245,171714.0
63027.66502076655,171700.0
63027.67512993066,171684.0
63027.68523909477,171680.0
63027.69534825887,171679.0
63027.705457422984,171668.0
63027.71556658709,171691.0
63027.72567575119,171672.0
63027.735784915305,171718.0
63027.74589407941,171686.0
63027.756003243514,171656.0
63027.766112407626,171675.0
63027.77622157173,171694.0
63027.786330735835,171714.0
63027.79643989995,171688.0
63027.80654906405,171680.0
63027.816658228156,171722.0
63027.82676739227,171672.0
63027.83687655637,171704.0
63027.84698572048,171682.0
63027.85709488459,171679.0
63027.86720404869,171722.0
63027.8773132128,171716.0
63027.88742237691,171695.0
63027.89753154101,171685.0
63027.90764070512,171661.0
63027.91774986922,171677.0
63027.927859033334,171697.0
63027.93796819744,171666.0
63027.94807736154,171679.0
63027.958186525655,171661.0
63027.96829568976,171632.0
63027.978404853864,171649.0
63027.988514017976,171672.0
63027.99862318208,171654.0
63028.008732346185,171671.0
63028.0188415103,171621.0
63028.0289506744,171652.0
63028.039059838506,171648.0
63028.04916900262,171656.0
63028.05927816672,171624.0
63028.06938733083,171684.0
63028.07949649494,171651.0
63028.08960565904,171618.0
63028.09971482315,171629.0
63028.10982398726,171639.0
63028.11993315136,171644.0
63028.13004231547,171653.0
63028.14015147958,171630.0
63028.150260643684,171659.0
63028.16036980779,171682.0
63028.1704789719,171644.0
63028.180588136005,171631.0
63028.19069730011,171657.0
63028.20080646422,171619.0
63028.210915628326,171654.0
63028.22102479243,171668.0
63028.231133956535,171664.0
63028.24124312065,171664.0
63028.25135228475,171646.0
63028.261461448856,171633.0
63028.27157061297,171644.0
63028.28167977707,171674.0
63028.29178894118,171616.0
63028.30189810529,171662.0
63028.31200726939,171655.0
63028.3221164335,171648.0
63028.33222559761,171658.0
63028.34233476171,171649.0
63028.35244392582,171649.0
63028.36255308993,171651.0
63028.372662254034,171667.0
63028.38277141814,171698.0
63028.39288058225,171658.0
63028.402989746355,171693.0
63028.41309891046,171668.0
63028.42320807457,171665.0
63028.433317238676,171658.0
63028.44342640278,171656.0
63028.45353556689,171682.0
63028.463644731,171700.0
63028.4737538951,171641.0
63028.48386305921,171677.0
63028.49397222332,171682.0
63028.50408138742,171674.0
63028.514190551534,171652.0
63028.52429971564,171673.0
63028.53440887974,171708.0
63028.54451804385,171691.0
63028.55462720796,171678.0
63028.56473637206,171680.0
63028.57484553617,171697.0
63028.58495470028,171688.0
63028.595063864384,171662.0
63028.60517302849,171651.0
63028.6152821926,171678.0
63028.625391356705,171691.0
63028.63550052081,171677.0
63028.64560968492,171693.0
63028.655718849026,171703.0
63028.66582801313,171704.0
63028.67593717724,171709.0
63028.68604634135,171698.0
63028.69615550545,171685.0
63028.70626466956,171703.0
63028.71637383367,171712.0
63028.72648299777,171667.0
63028.736592161884,171726.0
63028.74670132599,171707.0
63028.75681049009,171702.0
63028.766919654205,171675.0
63028.77702881831,171660.0
63028.787137982414,171687.0
63028.797247146525,171699.0
63028.80735631063,171671.0
63028.817465474734,171668.0
63028.827574638846,171665.0
63028.83768380295,171695.0
63028.847792967055,171653.0
63028.85790213116,171630.0
63028.86801129527,171666.0
63028.878120459376,171632.0
63028.88822962348,171628.0
63028.89833878759,171616.0
63028.9084479517,171658.0
63028.9185571158,171639.0
63028.92866627991,171678.0
63028.93877544402,171631.0
63028.94888460812,171657.0
63028.958993772234,171669.0
63028.96910293634,171672.0
63028.97921210044,171643.0
63028.989321264555,171659.0
63028.99943042866,171672.0
63029.009539592764,171662.0
63029.019648756876,171626.0
63029.02975792098,171664.0
63029.039867085085,171672.0
63029.049976249196,171693.0
63029.0600854133,171679.0
63029.070194577405,171648.0
63029.08030374152,171682.0
63029.09041290562,171698.0
63029.100522069726,171660.0
63029.11063123384,171628.0
63029.12074039794,171672.0
63029.13084956205,171648.0
63029.14095872616,171701.0
63029.15106789026,171638.0
63029.16117705437,171675.0
63029.17128621847,171644.0
63029.181395382584,171683.0
63029.19150454669,171651.0
63029.20161371079,171667.0
63029.211722874905,171685.0
63029.22183203901,171648.0
63029.231941203114,171643.0
63029.242050367226,171672.0
63029.25215953133,171682.0
63029.262268695435,171696.0
63029.27237785955,171717.0
63029.28248702365,171695.0
63029.292596187755,171661.0
63029.30270535187,171677.0
63029.31281451597,171696.0
63029.322923680076,171694.0
63029.33303284419,171715.0
63029.34314200829,171662.0
63029.3532511724,171693.0
63029.36336033651,171641.0
63029.37346950061,171688.0
63029.38357866472,171666.0
63029.39368782883,171718.0
63029.403796992934,171692.0
63029.41390615704,171699.0
63029.42401532115,171682.0
63029.434124485255,171736.0
63029.44423364936,171715.0
63029.454342813464,171699.0
63029.464451977576,171689.0
63029.47456114168,171726.0
63029.484670305785,171722.0
63029.4947794699,171672.0
63029.504888634,171694.0
63029.514997798105,171715.0
63029.52510696222,171686.0
63029.53521612632,171711.0
63029.545325290426,171703.0
63029.55543445454,171717.0
63029.56554361864,171749.0
63029.57565278275,171715.0
63029.58576194686,171706.0
63029.59587111096,171719.0
63029.60598027507,171734.0
63029.61608943918,171722.0
63029.626198603284,171680.0
63029.63630776739,171700.0
63029.6464169315,171744.0
63029.656526095605,171711.0
63029.66663525971,171695.0
63029.67674442382,171678.0
63029.686853587926,171722.0
63029.69696275203,171679.0
63029.70707191614,171675.0
63029.71718108025,171646.0
63029.72729024435,171650.0
63029.73739940846,171684.0
63029.74750857257,171675.0
63029.75761773667,171653.0
63029.76772690078,171655.0
63029.77783606489,171689.0
63029.78794522899,171683.0
63029.7980543931,171667.0
63029.80816355721,171679.0
63029.81827272131,171694.0
63029.82838188542,171684.0
63029.83849104953,171683.0
63029.848600213634,171692.0
63029.85870937774,171708.0
63029.86881854185,171688.0
63029.878927705955,171679.0
63029.88903687006,171662.0
63029.89914603417,171693.0
63029.909255198276,171674.0
63029.91936436238,171692.0
63029.92947352649,171657.0
63029.9395826906,171696.0
63029.9496918547,171689.0
63029.95980101881,171680.0
63029.96991018292,171657.0
63029.98001934702,171646.0
63029.990128511134,171684.0
63030.00023767524,171711.0
63030.01034683934,171692.0
63030.020456003454,171669.0
63030.03056516756,171694.0
63030.04067433166,171640.0
63030.050783495775,171680.0
63030.06089265988,171697.0
63030.071001823984,171693.0
63030.08111098809,171703.0
63030.0912201522,171711.0
63030.101329316305,171705.0
63030.11143848041,171710.0
63030.12154764452,171706.0
63030.131656808626,171702.0
63030.14176597273,171703.0
63030.15187513684,171683.0
63030.16198430095,171696.0
63030.17209346505,171680.0
63030.18220262916,171678.0
63030.19231179327,171703.0
63030.20242095737,171704.0
63030.212530121484,171697.0
63030.22263928559,171691.0
63030.23274844969,171726.0
63030.242857613805,171729.0
63030.25296677791,171739.0
63030.26307594201,171735.0
63030.273185106125,171736.0
63030.28329427023,171721.0
63030.293403434334,171750.0
63030.303512598446,171708.0
63030.31362176255,171697.0
63030.323730926655,171717.0
63030.33384009077,171720.0
63030.34394925487,171700.0
63030.354058418976,171721.0
63030.36416758309,171728.0
63030.37427674719,171703.0
63030.3843859113,171730.0
63030.39449507541,171705.0
63030.40460423951,171728.0
63030.41471340362,171726.0
63030.42482256772,171721.0
63030.434931731834,171704.0
63030.44504089594,171721.0
63030.45515006004,171753.0
63030.465259224155,171723.0
63030.47536838826,171722.0
63030.48547755236,171732.0
63030.495586716475,171688.0
63030.50569588058,171742.0
63030.515805044684,171700.0
63030.525914208796,171678.0
63030.5360233729,171711.0
63030.546132537005,171677.0
63030.55624170112,171692.0
63030.56635086522,171668.0
63030.576460029326,171678.0
63030.58656919344,171647.0
63030.59667835754,171700.0
63030.60678752165,171709.0
63030.61689668576,171684.0
63030.62700584986,171678.0
63030.63711501397,171656.0
63030.64722417808,171663.0
63030.657333342184,171682.0
63030.66744250629,171724.0
63030.6775516704,171711.0
63030.687660834505,171701.0
63030.69776999861,171693.0
63030.707879162714,171705.0
63030.717988326825,171695.0
63030.72809749093,171727.0
63030.738206655034,171696.0
63030.748315819146,171676.0
63030.75842498325,171716.0
63030.768534147355,171688.0
63030.77864331147,171696.0
63030.78875247557,171679.0
63030.798861639676,171697.0
63030.80897080379,171696.0
63030.81907996789,171700.0
63030.829189132,171674.0
63030.83929829611,171708.0
63030.84940746021,171665.0
63030.85951662432,171678.0
63030.86962578843,171680.0
63030.879734952534,171701.0
63030.88984411664,171719.0
63030.89995328075,171692.0
63030.910062444855,171695.0
63030.92017160896,171680.0
63030.93028077307,171695.0
63030.940389937175,171729.0
63030.95049910128,171710.0
63030.96060826539,171732.0
63030.970717429496,171717.0
63030.9808265936,171671.0
63030.99093575771,171707.0
63031.00104492182,171709.0
63031.01115408592,171697.0
63031.021263250026,171693.0
63031.03137241414,171719.0
63031.04148157824,171742.0
63031.05159074235,171697.0
63031.06169990646,171728.0
63031.07180907056,171736.0
63031.08191823467,171723.0
63031.09202739878,171731.0
63031.102136562884,171770.0
63031.11224572699,171723.0
63031.1223548911,171745.0
63031.132464055205,171695.0
63031.14257321931,171724.0
63031.15268238342,171736.0
63031.162791547526,171698.0
63031.17290071163,171754.0
63031.18300987574,171699.0
63031.193119039846,171752.0
63031.20322820395,171776.0
63031.21333736806,171716.0
63031.22344653217,171743.0
63031.23355569627,171724.0
63031.24366486038,171750.0
63031.25377402449,171702.0
63031.26388318859,171758.0
63031.273992352704,171732.0
63031.28410151681,171732.0
63031.29421068091,171743.0
63031.304319845025,171716.0
63031.31442900913,171715.0
63031.324538173234,171712.0
63031.33464733734,171738.0
63031.34475650145,171694.0
63031.354865665555,171694.0
63031.36497482966,171672.0
63031.37508399377,171703.0
63031.385193157876,171724.0
63031.39530232198,171692.0
63031.40541148609,171703.0
63031.4155206502,171694.0
63031.4256298143,171689.0
63031.43573897841,171658.0
63031.44584814252,171701.0
63031.45595730662,171710.0
63031.46606647073,171693.0
63031.47617563484,171673.0
63031.48628479894,171696.0
63031.496393963054,171694.0
63031.50650312716,171694.0
63031.51661229126,171695.0
63031.526721455375,171715.0
63031.53683061948,171687.0
63031.546939783584,171681.0
63031.557048947696,171738.0
63031.5671581118,171706.0
63031.577267275905,171719.0
63031.58737644002,171697.0
63031.59748560412,171687.0
63031.607594768226,171710.0
63031.61770393234,171722.0
63031.62781309644,171722.0
63031.63792226055,171679.0
63031.64803142465,171703.0
63031.65814058876,171703.0
63031.66824975287,171710.0
63031.67835891697,171733.0
63031.68846808108,171723.0
63031.69857724519,171692.0
63031.70868640929,171746.0
63031.718795573404,171699.0
63031.72890473751,171731.0
63031.73901390161,171701.0
63031.749123065725,171738.0
63031.75923222983,171731.0
63031.769341393934,171715.0
63031.779450558046,171730.0
63031.78955972215,171714.0
63031.799668886255,171716.0
63031.80977805037,171718.0
63031.81988721447,171733.0
63031.829996378576,171739.0
63031.84010554269,171721.0
63031.85021470679,171737.0
63031.8603238709,171743.0
63031.87043303501,171763.0
63031.88054219911,171726.0
63031.89065136322,171721.0
63031.90076052733,171757.0
63031.91086969143,171748.0
63031.92097885554,171744.0
63031.93108801965,171714.0
63031.941197183754,171756.0
63031.95130634786,171715.0
63031.96141551196,171789.0
63031.971524676075,171741.0
63031.98163384018,171750.0
63031.991743004284,171740.0
63032.001852168396,171745.0
63032.0119613325,171743.0
63032.022070496605,171770.0
63032.03217966072,171730.0
63032.04228882482,171771.0
63032.052397988926,171739.0
63032.06250715304,171761.0
63032.07261631714,171779.0
63032.08272548125,171800.0
63032.09283464536,171744.0
63032.10294380946,171768.0
63032.11305297357,171742.0
63032.12316213768,171763.0
63032.133271301784,171791.0
63032.14338046589,171739.0
63032.15348963,171757.0
63032.163598794104,171790.0
63032.17370795821,171751.0
63032.18381712232,171723.0
63032.193926286425,171741.0
63032.20403545053,171723.0
63032.21414461464,171754.0
63032.224253778746,171715.0
63032.23436294285,171727.0
63032.24447210696,171740.0
63032.25458127107,171758.0
63032.26469043517,171740.0
63032.274799599276,171734.0
63032.28490876339,171730.0
63032.29501792749,171745.0
63032.3051270916,171744.0
63032.31523625571,171740.0
63032.32534541981,171726.0
63032.33545458392,171766.0
63032.34556374803,171755.0
63032.355672912134,171746.0
63032.36578207624,171726.0
63032.37589124035,171777.0
63032.386000404455,171755.0
63032.39610956856,171738.0
63032.40621873267,171736.0
63032.416327896775,171755.0
63032.42643706088,171778.0
63032.43654622499,171728.0
63032.446655389096,171736.0
63032.4567645532,171717.0
63032.46687371731,171787.0
63032.47698288142,171756.0
63032.48709204552,171724.0
63032.49720120963,171774.0
63032.50731037374,171774.0
63032.51741953784,171746.0
63032.527528701954,171730.0
63032.53763786606,171740.0
63032.54774703016,171772.0
63032.557856194275,171785.0
63032.56796535838,171760.0
63032.578074522484,171743.0
63032.58818368659,171769.0
63032.5982928507,171747.0
63032.608402014805,171758.0
63032.61851117891,171774.0
63032.62862034302,171775.0
63032.638729507125,171784.0
63032.64883867123,171775.0
63032.65894783534,171777.0
63032.669056999446,171779.0
63032.67916616355,171753.0
63032.68927532766,171772.0
63032.69938449177,171719.0
63032.70949365587,171727.0
63032.71960281998,171787.0
63032.72971198409,171778.0
63032.73982114819,171786.0
63032.749930312304,171774.0
63032.76003947641,171784.0
63032.77014864051,171779.0
63032.780257804625,171741.0
63032.79036696873,171742.0
63032.800476132834,171806.0
63032.810585296946,171784.0
63032.82069446105,171763.0
63032.830803625155,171761.0
63032.84091278927,171754.0
63032.85102195337,171775.0
63032.861131117475,171779.0
63032.87124028159,171802.0
63032.88134944569,171762.0
63032.891458609796,171786.0
63032.9015677739,171747.0
63032.91167693801,171785.0
63032.92178610212,171791.0
63032.93189526622,171753.0
63032.94200443033,171756.0
63032.95211359444,171729.0
63032.96222275854,171717.0
63032.972331922654,171753.0
63032.98244108676,171753.0
63032.99255025086,171757.0
63033.002659414975,171718.0
63033.01276857908,171761.0
63033.022877743184,171762.0
63033.032986907296,171720.0
63033.0430960714,171751.0
63033.053205235505,171717.0
63033.06331439962,171769.0
63033.07342356372,171766.0
63033.083532727826,171745.0
63033.09364189194,171778.0
63033.10375105604,171786.0
63033.113860220146,171771.0
63033.12396938426,171754.0
63033.13407854836,171767.0
63033.14418771247,171765.0
63033.15429687658,171776.0
63033.16440604068,171761.0
63033.17451520479,171772.0
63033.1846243689,171780.0
63033.194733533004,171784.0
63033.20484269711,171777.0
63033.21495186121,171756.0
63033.225061025325,171763.0
63033.23517018943,171766.0
63033.245279353534,171753.0
63033.255388517646,171719.0
63033.26549768175,171756.0
63033.275606845855,171777.0
63033.28571600997,171761.0
63033.29582517407,171747.0
63033.305934338176,171772.0
63033.31604350229,171757.0
63033.32615266639,171746.0
63033.3362618305,171746.0
63033.34637099461,171761.0
63033.35648015871,171777.0
63033.36658932282,171818.0
63033.37669848693,171756.0
63033.38680765103,171732.0
63033.39691681514,171769.0
63033.40702597925,171776.0
63033.417135143354,171809.0
63033.42724430746,171770.0
63033.43735347157,171792.0
63033.447462635675,171787.0
63033.45757179978,171775.0
63033.46768096389,171775.0
63033.477790127996,171789.0
63033.4878992921,171793.0
63033.49800845621,171792.0
63033.50811762032,171741.0
63033.51822678442,171779.0
63033.528335948526,171783.0
63033.53844511264,171804.0
63033.54855427674,171782.0
63033.55866344085,171786.0
63033.56877260496,171761.0
63033.57888176906,171808.0
63033.58899093317,171794.0
63033.59910009728,171782.0
63033.60920926138,171764.0
63033.61931842549,171782.0
63033.6294275896,171769.0
63033.639536753704,171726.0
63033.64964591781,171741.0
63033.65975508192,171775.0
63033.669864246025,171749.0
63033.67997341013,171749.0
63033.69008257424,171727.0
63033.700191738346,171748.0
63033.71030090245,171740.0
63033.72041006656,171752.0
63033.73051923067,171738.0
63033.74062839477,171768.0
63033.75073755888,171725.0
63033.76084672299,171728.0
63033.77095588709,171735.0
63033.781065051204,171742.0
63033.79117421531,171776.0
63033.80128337941,171784.0
63033.811392543525,171756.0
63033.82150170763,171713.0
63033.83161087173,171763.0
63033.84172003584,171733.0
63033.85182919995,171757.0
63033.861938364054,171742.0
63033.87204752816,171758.0
63033.88215669227,171776.0
63033.892265856375,171760.0
63033.90237502048,171686.0
63033.91248418459,171704.0
63033.922593348696,171770.0
63033.9327025128,171746.0
63033.94281167691,171765.0
63033.95292084102,171780.0
63033.96303000512,171746.0
63033.97313916923,171756.0
63033.98324833334,171746.0
63033.99335749744,171738.0
63034.003466661554,171735.0
63034.01357582566,171763.0
63034.02368498976,171783.0
63034.033794153875,171761.0
63034.04390331798,171757.0
63034.05401248208,171738.0
63034.064121646195,171728.0
63034.0742308103,171797.0
63034.084339974404,171761.0
63034.094449138516,171765.0
63034.10455830262,171754.0
63034.114667466725,171785.0
63034.12477663084,171774.0
63034.13488579494,171769.0
63034.144994959046,171747.0
63034.15510412315,171729.0
63034.16521328726,171748.0
63034.17532245137,171794.0
63034.18543161547,171749.0
63034.19554077958,171737.0
63034.20564994369,171745.0
63034.21575910779,171770.0
63034.225868271904,171776.0
63034.23597743601,171774.0
63034.24608660011,171774.0
63034.256195764225,171780.0
63034.26630492833,171779.0
63034.276414092434,171800.0
63034.286523256545,171764.0
63034.29663242065,171795.0
63034.306741584754,171783.0
63034.316850748866,171764.0
63034.32695991297,171743.0
63034.337069077075,171713.0
63034.34717824119,171744.0
63034.35728740529,171756.0
63034.367396569396,171718.0
63034.37750573351,171709.0
63034.38761489761,171731.0
63034.39772406172,171733.0
63034.40783322583,171745.0
63034.41794238993,171723.0
63034.42805155404,171728.0
63034.43816071815,171703.0
63034.448269882254,171677.0
63034.45837904636,171733.0
63034.46848821046,171716.0
63034.478597374575,171707.0
63034.48870653868,171715.0
63034.498815702784,171751.0
63034.508924866896,171737.0
63034.519034031,171709.0
63034.529143195105,171733.0
63034.539252359216,171733.0
63034.54936152332,171736.0
63034.559470687425,171726.0
63034.56957985154,171759.0
63034.57968901564,171712.0
63034.589798179746,171696.0
63034.59990734386,171727.0
63034.61001650796,171702.0
63034.62012567207,171726.0
63034.63023483618,171746.0
63034.64034400028,171723.0
63034.65045316439,171740.0
63034.6605623285,171748.0
63034.670671492604,171695.0
63034.68078065671,171735.0
63034.69088982082,171701.0
63034.700998984925,171703.0
63034.71110814903,171757.0
63034.72121731314,171717.0
63034.731326477246,171747.0
63034.74143564135,171729.0
63034.75154480546,171719.0
63034.76165396957,171737.0
63034.77176313367,171720.0
63034.781872297775,171726.0
63034.79198146189,171717.0
63034.80209062599,171741.0
63034.812199790096,171720.0
63034.82230895421,171734.0
63034.83241811831,171765.0
63034.84252728242,171754.0
63034.85263644653,171722.0
63034.86274561063,171720.0
63034.87285477474,171715.0
63034.88296393885,171739.0
63034.893073102954,171726.0
63034.90318226706,171707.0
63034.91329143117,171755.0
63034.923400595275,171733.0
63034.93350975938,171717.0
63034.94361892349,171712.0
63034.953728087596,171724.0
63034.9638372517,171778.0
63034.97394641581,171719.0
63034.98405557992,171731.0
63034.99416474402,171734.0
63035.00427390813,171763.0
63035.01438307224,171734.0
63035.02449223634,171750.0
63035.03460140045,171740.0
63035.04471056456,171737.0
63035.05481972866,171735.0
63035.064928892774,171727.0
63035.07503805688,171749.0
63035.08514722098,171726.0
63035.09525638509,171714.0
63035.1053655492,171657.0
63035.115474713304,171697.0
63035.12558387741,171709.0
63035.13569304152,171692.0
63035.145802205625,171700.0
63035.15591136973,171706.0
63035.16602053384,171697.0
63035.176129697946,171695.0
63035.18623886205,171676.0
63035.19634802616,171664.0
63035.20645719027,171670.0
63035.21656635437,171705.0
63035.22667551848,171720.0
63035.23678468259,171666.0
63035.24689384669,171688.0
63035.2570030108,171688.0
63035.26711217491,171677.0
63035.27722133901,171664.0
63035.287330503124,171677.0
63035.29743966723,171701.0
63035.30754883133,171716.0
63035.317657995445,171683.0
63035.32776715955,171690.0
63035.337876323654,171701.0
63035.347985487766,171697.0
63035.35809465187,171686.0
63035.368203815975,171681.0
63035.37831298009,171672.0
63035.38842214419,171672.0
63035.398531308296,171698.0
63035.4086404724,171677.0
63035.41874963651,171718.0
63035.42885880062,171701.0
63035.43896796472,171681.0
63035.44907712883,171654.0
63035.45918629294,171697.0
63035.46929545704,171705.0
63035.479404621154,171725.0
63035.48951378526,171695.0
63035.49962294936,171715.0
63035.509732113474,171709.0
63035.51984127758,171740.0
63035.52995044168,171690.0
63035.540059605795,171701.0
63035.5501687699,171712.0
63035.560277934004,171721.0
63035.570387098116,171681.0
63035.58049626222,171726.0
63035.590605426325,171725.0
63035.60071459044,171719.0
63035.61082375454,171691.0
63035.620932918646,171699.0
63035.63104208276,171727.0
63035.64115124686,171755.0
63035.65126041097,171722.0
63035.66136957508,171684.0
63035.67147873918,171724.0
63035.68158790329,171723.0
63035.6916970674,171725.0
63035.701806231504,171689.0
63035.71191539561,171714.0
63035.72202455971,171701.0
63035.732133723825,171738.0
63035.74224288793,171692.0
63035.75235205203,171696.0
63035.762461216145,171707.0
63035.77257038025,171760.0
63035.782679544354,171710.0
63035.792788708466,171724.0
63035.80289787257,171727.0
63035.813007036675,171723.0
63035.82311620079,171681.0
63035.83322536489,171710.0
63035.843334528996,171705.0
63035.85344369311,171703.0
63035.86355285721,171677.0
63035.87366202132,171662.0
63035.88377118543,171679.0
63035.89388034953,171708.0
63035.90398951364,171667.0
63035.91409867775,171606.0
63035.924207841854,171665.0
63035.93431700596,171666.0
63035.94442617007,171653.0
63035.954535334175,171656.0
63035.96464449828,171679.0
63035.97475366239,171676.0
63035.984862826495,171698.0
63035.9949719906,171665.0
63036.00508115471,171668.0
63036.015190318816,171628.0
63036.02529948292,171692.0
63036.035408647025,171670.0
63036.04551781114,171629.0
63036.05562697524,171655.0
63036.065736139346,171680.0
63036.07584530346,171650.0
63036.08595446756,171669.0
63036.09606363167,171671.0
63036.10617279578,171685.0
63036.11628195988,171680.0
63036.12639112399,171665.0
63036.1365002881,171675.0
63036.146609452204,171701.0
63036.15671861631,171667.0
63036.16682778042,171660.0
63036.176936944525,171651.0
63036.18704610863,171688.0
63036.19715527274,171668.0
63036.207264436845,171635.0
63036.21737360095,171685.0
63036.22748276506,171648.0
63036.237591929166,171705.0
63036.24770109327,171674.0
63036.25781025738,171677.0
63036.26791942149,171655.0
63036.27802858559,171670.0
63036.2881377497,171686.0
63036.29824691381,171689.0
63036.30835607791,171695.0
63036.318465242024,171665.0
63036.32857440613,171709.0
63036.33868357023,171685.0
63036.34879273434,171698.0
63036.35890189845,171700.0
63036.369011062554,171707.0
63036.37912022666,171689.0
63036.38922939077,171648.0
63036.399338554875,171692.0
63036.40944771898,171711.0
63036.41955688309,171692.0
63036.429666047195,171700.0
63036.4397752113,171694.0
63036.44988437541,171695.0
63036.459993539516,171687.0
63036.47010270362,171670.0
63036.48021186773,171677.0
63036.49032103184,171721.0
63036.50043019594,171701.0
63036.51053936005,171700.0
63036.52064852416,171719.0
63036.53075768826,171721.0
63036.540866852374,171703.0
63036.55097601648,171693.0
63036.56108518058,171666.0
63036.571194344695,171689.0
63036.5813035088,171663.0
63036.591412672904,171705.0
63036.601521837016,171706.0
63036.61163100112,171722.0
63036.621740165225,171719.0
63036.63184932934,171704.0
63036.64195849344,171697.0
63036.652067657546,171695.0
63036.66217682165,171695.0
63036.67228598576,171685.0
63036.682395149866,171672.0
63036.69250431397,171680.0
63036.70261347808,171643.0
63036.71272264219,171643.0
63036.72283180629,171620.0
63036.7329409704,171625.0
63036.74305013451,171666.0
63036.75315929861,171656.0
63036.763268462724,171659.0
63036.77337762683,171619.0
63036.78348679093,171629.0
63036.793595955045,171645.0
63036.80370511915,171657.0
63036.813814283254,171642.0
63036.823923447366,171687.0
63036.83403261147,171652.0
63036.844141775575,171667.0
63036.85425093969,171635.0
63036.86436010379,171626.0
63036.874469267896,171655.0
63036.88457843201,171680.0
63036.89468759611,171642.0
63036.90479676022,171686.0
63036.91490592433,171651.0
63036.92501508843,171675.0
63036.93512425254,171681.0
63036.94523341665,171654.0
63036.95534258075,171651.0
63036.96545174486,171665.0
63036.97556090896,171630.0
63036.985670073074,171624.0
63036.99577923718,171674.0
63037.00588840128,171663.0
63037.015997565395,171648.0
63037.0261067295,171634.0
63037.036215893604,171673.0
63037.046325057716,171670.0
63037.05643422182,171660.0
63037.066543385925,171646.0
63037.07665255004,171639.0
63037.08676171414,171679.0
63037.096870878246,171691.0
63037.10698004236,171689.0
63037.11708920646,171652.0
63037.12719837057,171668.0
63037.13730753468,171681.0
63037.14741669878,171693.0
63037.15752586289,171694.0
63037.167635027,171686.0
63037.1777441911,171693.0
63037.18785335521,171692.0
63037.19796251932,171680.0
63037.208071683424,171677.0
63037.21818084753,171693.0
63037.22829001164,171684.0
63037.238399175745,171663.0
63037.24850833985,171677.0
63037.25861750396,171680.0
63037.268726668066,171675.0
63037.27883583217,171682.0
63037.288944996275,171700.0
63037.29905416039,171721.0
63037.30916332449,171710.0
63037.319272488596,171680.0
63037.32938165271,171691.0
63037.33949081681,171679.0
63037.34959998092,171711.0
63037.35970914503,171680.0
63037.36981830913,171678.0
63037.37992747324,171700.0
63037.39003663735,171724.0
63037.40014580145,171665.0
63037.41025496556,171692.0
63037.42036412967,171695.0
63037.430473293774,171686.0
63037.44058245788,171708.0
63037.45069162199,171710.0
63037.460800786095,171685.0
63037.4709099502,171697.0
63037.48101911431,171719.0
63037.491128278416,171663.0
63037.50123744252,171680.0
63037.51134660663,171686.0
63037.52145577074,171650.0
63037.53156493484,171690.0
63037.54167409895,171653.0
63037.55178326306,171634.0
63037.56189242716,171667.0
63037.572001591274,171659.0
63037.58211075538,171645.0
63037.59221991948,171647.0
63037.60232908359,171638.0
63037.6124382477,171633.0
63037.622547411804,171656.0
63037.63265657591,171660.0
63037.64276574002,171683.0
63037.652874904124,171638.0
63037.66298406823,171630.0
63037.67309323234,171654.0
63037.683202396445,171653.0
63037.69331156055,171647.0
63037.70342072466,171649.0
63037.713529888766,171630.0
63037.72363905287,171666.0
63037.73374821698,171662.0
63037.74385738109,171659.0
63037.75396654519,171667.0
63037.7640757093,171631.0
63037.77418487341,171648.0
63037.78429403751,171678.0
63037.794403201624,171645.0
63037.80451236573,171668.0
63037.81462152983,171641.0
63037.824730693945,171647.0
63037.83483985805,171657.0
63037.844949022154,171646.0
63037.855058186266,171632.0
63037.86516735037,171617.0
63037.875276514475,171645.0
63037.885385678586,171645.0
63037.89549484269,171630.0
63037.905604006795,171670.0
63037.9157131709,171644.0
63037.92582233501,171650.0
63037.935931499116,171633.0
63037.94604066322,171660.0
63037.95614982733,171677.0
63037.96625899144,171672.0
63037.97636815554,171648.0
63037.98647731965,171667.0
63037.99658648376,171674.0
63038.00669564786,171661.0
63038.016804811974,171639.0
63038.02691397608,171670.0
63038.03702314018,171689.0
63038.047132304295,171640.0
63038.0572414684,171699.0
63038.067350632504,171669.0
63038.077459796616,171674.0
63038.08756896072,171678.0
63038.097678124825,171656.0
63038.10778728894,171657.0
63038.11789645304,171677.0
63038.128005617145,171673.0
63038.13811478126,171687.0
63038.14822394536,171678.0
63038.158333109466,171691.0
63038.16844227358,171676.0
63038.17855143768,171678.0
63038.18866060179,171671.0
63038.1987697659,171697.0
63038.20887893,171683.0
63038.21898809411,171703.0
63038.22909725821,171655.0
63038.239206422324,171674.0
63038.24931558643,171692.0
63038.25942475053,171706.0
63038.269533914645,171693.0
63038.27964307875,171681.0
63038.289752242854,171704.0
63038.299861406966,171727.0
63038.30997057107,171702.0
63038.320079735175,171646.0
63038.33018889929,171700.0
63038.34029806339,171700.0
63038.350407227495,171667.0
63038.36051639161,171688.0
63038.37062555571,171680.0
63038.380734719816,171633.0
63038.39084388393,171640.0
63038.40095304803,171645.0
63038.41106221214,171655.0
63038.42117137625,171644.0
63038.43128054035,171663.0
63038.44138970446,171616.0
63038.45149886857,171643.0
63038.461608032674,171649.0
63038.47171719678,171642.0
63038.48182636089,171610.0
63038.491935524995,171648.0
63038.5020446891,171641.0
63038.51215385321,171679.0
63038.522263017316,171626.0
63038.53237218142,171653.0
63038.542481345525,171625.0
63038.55259050964,171672.0
63038.56269967374,171660.0
63038.572808837846,171651.0
63038.58291800196,171663.0
63038.59302716606,171652.0
63038.603136330166,171646.0
63038.61324549428,171633.0
63038.62335465838,171657.0
63038.63346382249,171634.0
63038.6435729866,171683.0
63038.6536821507,171634.0
63038.66379131481,171659.0
63038.67390047892,171645.0
63038.684009643024,171656.0
63038.69411880713,171643.0
63038.70422797124,171662.0
63038.714337135345,171658.0
63038.72444629945,171675.0
63038.73455546356,171634.0
63038.744664627666,171664.0
63038.75477379177,171667.0
63038.76488295588,171695.0
63038.77499211999,171651.0
63038.78510128409,171670.0
63038.7952104482,171633.0
63038.80531961231,171678.0
63038.81542877641,171679.0
63038.825537940524,171672.0
63038.83564710463,171651.0
63038.84575626873,171708.0
63038.85586543284,171686.0
63038.86597459695,171663.0
63038.87608376105,171649.0
63038.88619292516,171644.0
63038.89630208927,171709.0
63038.906411253374,171682.0
63038.91652041748,171681.0
63038.92662958159,171677.0
63038.936738745695,171703.0
63038.9468479098,171696.0
63038.95695707391,171670.0
63038.967066238016,171687.0
63038.97717540212,171695.0
63038.98728456623,171691.0
63038.99739373034,171689.0
63039.00750289444,171662.0
63039.01761205855,171711.0
63039.02772122266,171674.0
63039.03783038676,171703.0
63039.047939550874,171681.0
63039.05804871498,171712.0
63039.06815787908,171706.0
63039.078267043195,171704.0
63039.0883762073,171690.0
63039.0984853714,171711.0
63039.108594535515,171728.0
63039.11870369962,171705.0
63039.128812863724,171680.0
63039.138922027836,171682.0
63039.14903119194,171738.0
63039.159140356045,171716.0
63039.16924952015,171703.0
63039.17935868426,171688.0
63039.189467848366,171725.0
63039.19957701247,171705.0
63039.20968617658,171681.0
63039.21979534069,171660.0
63039.22990450479,171670.0
63039.2400136689,171682.0
63039.25012283301,171658.0
63039.26023199711,171650.0
63039.270341161224,171663.0
63039.28045032533,171659.0
63039.29055948943,171658.0
63039.300668653545,171637.0
63039.31077781765,171671.0
63039.32088698175,171667.0
63039.330996145865,171653.0
63039.34110530997,171663.0
63039.351214474074,171664.0
63039.361323638186,171668.0
63039.37143280229,171668.0
63039.381541966395,171636.0
63039.39165113051,171646.0
63039.40176029461,171675.0
63039.411869458716,171689.0
63039.42197862283,171684.0
63039.43208778693,171657.0
63039.44219695104,171698.0
63039.45230611515,171681.0
63039.46241527925,171679.0
63039.47252444336,171687.0
63039.48263360746,171684.0
63039.492742771574,171667.0
63039.50285193568,171688.0
63039.51296109978,171672.0
63039.523070263895,171666.0
63039.533179428,171678.0
63039.5432885921,171692.0
63039.553397756215,171688.0
63039.56350692032,171673.0
63039.573616084424,171689.0
63039.583725248536,171697.0
63039.59383441264,171678.0
63039.603943576745,171684.0
63039.61405274086,171690.0
63039.62416190496,171703.0
63039.634271069066,171698.0
63039.64438023318,171695.0
63039.65448939728,171692.0
63039.66459856139,171719.0
63039.6747077255,171679.0
63039.6848168896,171686.0
63039.69492605371,171697.0
63039.70503521782,171711.0
63039.715144381924,171702.0
63039.72525354603,171675.0
63039.73536271014,171700.0
63039.745471874245,171681.0
63039.75558103835,171727.0
63039.76569020246,171698.0
63039.775799366565,171730.0
63039.78590853067,171724.0
63039.796017694774,171689.0
63039.806126858886,171691.0
63039.81623602299,171697.0
63039.826345187095,171723.0
63039.83645435121,171727.0
63039.84656351531,171709.0
63039.856672679416,171717.0
63039.86678184353,171724.0
63039.87689100763,171711.0
63039.88700017174,171714.0
63039.89710933585,171691.0
63039.90721849995,171713.0
63039.91732766406,171724.0
63039.92743682817,171742.0
63039.937545992274,171694.0
63039.94765515638,171730.0
63039.95776432049,171723.0
63039.967873484595,171767.0
63039.9779826487,171723.0
63039.98809181281,171730.0
63039.998200976916,171756.0
63040.00831014102,171741.0
63040.01841930513,171722.0
63040.028528469236,171733.0
63040.03863763334,171701.0
63040.04874679745,171764.0
63040.05885596156,171710.0
63040.06896512566,171712.0
63040.07907428977,171673.0
63040.08918345388,171729.0
63040.09929261798,171669.0
63040.10940178209,171694.0
63040.1195109462,171678.0
63040.1296201103,171714.0
63040.13972927441,171714.0
63040.14983843852,171708.0
63040.159947602624,171705.0
63040.17005676673,171716.0
63040.18016593084,171686.0
63040.190275094945,171645.0
63040.20038425905,171707.0
63040.21049342316,171704.0
63040.220602587266,171732.0
63040.23071175137,171702.0
63040.24082091548,171718.0
63040.25093007959,171704.0
63040.26103924369,171733.0
63040.2711484078,171727.0
63040.28125757191,171724.0
63040.29136673601,171710.0
63040.30147590012,171702.0
63040.31158506423,171714.0
63040.32169422833,171698.0
63040.331803392444,171710.0
63040.34191255655,171688.0
63040.35202172065,171741.0
63040.362130884765,171711.0
63040.37224004887,171685.0
63040.382349212974,171735.0
63040.392458377086,171698.0
63040.40256754119,171710.0
63040.412676705295,171700.0
63040.4227858694,171715.0
63040.43289503351,171730.0
63040.443004197616,171723.0
63040.45311336172,171737.0
63040.46322252583,171746.0
63040.47333168994,171741.0
63040.48344085404,171714.0
63040.49355001815,171723.0
63040.50365918226,171703.0
63040.51376834636,171738.0
63040.52387751047,171733.0
63040.53398667458,171744.0
63040.54409583868,171704.0
63040.554205002794,171719.0
63040.5643141669,171718.0
63040.574423331,171718.0
63040.584532495115,171725.0
63040.59464165922,171710.0
63040.604750823324,171701.0
63040.614859987436,171734.0
63040.62496915154,171708.0
63040.635078315645,171714.0
63040.64518747976,171740.0
63040.65529664386,171729.0
63040.665405807966,171716.0
63040.67551497208,171710.0
63040.68562413618,171750.0
63040.69573330029,171743.0
63040.7058424644,171748.0
63040.7159516285,171755.0
63040.72606079261,171758.0
63040.73616995671,171728.0
63040.74627912082,171743.0
63040.75638828493,171757.0
63040.76649744903,171737.0
63040.776606613144,171746.0
63040.78671577725,171756.0
63040.79682494135,171752.0
63040.806934105465,171763.0
63040.81704326957,171751.0
63040.827152433674,171741.0
63040.837261597786,171738.0
63040.84737076189,171725.0
63040.857479925995,171743.0
63040.86758909011,171735.0
63040.87769825421,171690.0
63040.887807418316,171679.0
63040.89791658243,171708.0
63040.90802574653,171674.0
63040.91813491064,171684.0
63040.92824407475,171674.0
63040.93835323885,171689.0
63040.94846240296,171675.0
63040.95857156707,171720.0
63040.968680731174,171693.0
63040.97878989528,171678.0
63040.98889905939,171713.0
63040.999008223494,171695.0
63041.0091173876,171692.0
63041.01922655171,171723.0
63041.029335715815,171706.0
63041.03944487992,171726.0
63041.049554044024,171727.0
63041.059663208136,171733.0
63041.06977237224,171722.0
63041.079881536345,171713.0
63041.08999070046,171749.0
63041.10009986456,171713.0
63041.110209028666,171710.0
63041.12031819278,171700.0
63041.13042735688,171715.0
63041.14053652099,171712.0
63041.1506456851,171721.0
63041.1607548492,171703.0
63041.17086401331,171706.0
63041.18097317742,171709.0
63041.191082341524,171713.0
63041.20119150563,171723.0
63041.21130066974,171696.0
63041.221409833845,171725.0
63041.23151899795,171721.0
63041.24162816206,171719.0
63041.251737326165,171725.0
63041.26184649027,171715.0
63041.27195565438,171732.0
63041.282064818486,171701.0
63041.29217398259,171689.0
63041.3022831467,171745.0
63041.31239231081,171721.0
63041.32250147491,171724.0
63041.33261063902,171706.0
63041.34271980313,171744.0
63041.35282896723,171735.0
63041.36293813134,171712.0
63041.37304729545,171749.0
63041.38315645955,171726.0
63041.39326562366,171713.0
63041.40337478777,171723.0
63041.413483951874,171740.0
63041.42359311598,171703.0
63041.43370228009,171725.0
63041.443811444195,171745.0
63041.4539206083,171710.0
63041.46402977241,171712.0
63041.474138936515,171752.0
63041.48424810062,171742.0
63041.49435726473,171742.0
63041.504466428836,171709.0
63041.51457559294,171751.0
63041.52468475705,171740.0
63041.53479392116,171763.0
63041.54490308526,171705.0
63041.55501224937,171766.0
63041.56512141348,171756.0
63041.57523057758,171735.0
63041.585339741694,171735.0
63041.5954489058,171767.0
63041.6055580699,171732.0
63041.615667234015,171720.0
63041.62577639812,171756.0
63041.635885562224,171711.0
63041.645994726336,171715.0
63041.65610389044,171692.0
63041.666213054545,171691.0
63041.67632221865,171699.0
63041.68643138276,171684.0
63041.696540546865,171696.0
63041.70664971097,171659.0
63041.71675887508,171705.0
63041.726868039186,171697.0
63041.73697720329,171707.0
63041.7470863674,171668.0
63041.75719553151,171708.0
63041.76730469561,171689.0
63041.77741385972,171678.0
63041.78752302383,171681.0
63041.79763218793,171670.0
63041.807741352044,171660.0
63041.81785051615,171691.0
63041.82795968025,171685.0
63041.838068844365,171674.0
63041.84817800847,171709.0
63041.858287172574,171705.0
63041.868396336686,171689.0
63041.87850550079,171714.0
63041.888614664895,171717.0
63041.89872382901,171704.0
63041.90883299311,171708.0
63041.918942157215,171699.0
63041.92905132133,171721.0
63041.93916048543,171706.0
63041.949269649536,171671.0
63041.95937881365,171665.0
63041.96948797775,171702.0
63041.97959714186,171703.0
63041.98970630596,171705.0
63041.99981547007,171677.0
63042.00992463418,171703.0
63042.02003379828,171702.0
63042.030142962394,171683.0
63042.0402521265,171684.0
63042.0503612906,171666.0
63042.060470454715,171721.0
63042.07057961882,171720.0
63042.080688782924,171700.0
63042.090797947036,171698.0
63042.10090711114,171714.0
63042.111016275245,171722.0
63042.12112543936,171708.0
63042.13123460346,171712.0
63042.141343767566,171714.0
63042.15145293168,171725.0
63042.16156209578,171729.0
63042.171671259886,171709.0
63042.181780424,171723.0
63042.1918895881,171723.0
63042.20199875221,171685.0
63042.21210791632,171697.0
63042.22221708042,171750.0
63042.23232624453,171723.0
63042.24243540864,171719.0
63042.252544572744,171690.0
63042.26265373685,171741.0
63042.27276290096,171707.0
63042.282872065065,171713.0
63042.29298122917,171685.0
63042.303090393274,171689.0
63042.313199557386,171713.0
63042.32330872149,171729.0
63042.333417885595,171698.0
63042.34352704971,171713.0
63042.35363621381,171725.0
63042.363745377916,171705.0
63042.37385454203,171737.0
63042.38396370613,171717.0
63042.39407287024,171726.0
63042.40418203435,171702.0
63042.41429119845,171738.0
63042.42440036256,171693.0
63042.43450952667,171706.0
63042.44461869077,171686.0
63042.45472785488,171646.0
63042.46483701899,171637.0
63042.474946183094,171665.0
63042.4850553472,171697.0
63042.49516451131,171695.0
63042.505273675415,171649.0
63042.51538283952,171660.0
63042.52549200363,171663.0
63042.535601167736,171676.0
63042.54571033184,171659.0
63042.55581949595,171680.0
63042.56592866006,171633.0
63042.57603782416,171680.0
63042.58614698827,171675.0
63042.59625615238,171620.0
63042.60636531648,171650.0
63042.61647448059,171672.0
63042.6265836447,171644.0
63042.6366928088,171656.0
63042.64680197291,171671.0
63042.65691113702,171673.0
63042.66702030112,171677.0
63042.67712946523,171639.0
63042.68723862934,171665.0
63042.697347793444,171663.0
63042.70745695755,171694.0
63042.71756612166,171675.0
63042.727675285765,171653.0
63042.73778444987,171661.0
63042.74789361398,171652.0
63042.758002778086,171659.0
63042.76811194219,171665.0
63042.7782211063,171669.0
63042.78833027041,171692.0
63042.79843943451,171665.0
63042.80854859862,171664.0
63042.81865776273,171657.0
63042.82876692683,171688.0
63042.838876090944,171666.0
63042.84898525505,171675.0
63042.85909441915,171706.0
63042.869203583265,171688.0
63042.87931274737,171695.0
63042.88942191147,171673.0
63042.899531075585,171653.0
63042.90964023969,171666.0
63042.919749403794,171697.0
63042.9298585679,171677.0
63042.93996773201,171694.0
63042.950076896115,171686.0
63042.96018606022,171654.0
63042.97029522433,171686.0
63042.980404388436,171675.0
63042.99051355254,171699.0
63043.00062271665,171709.0
63043.01073188076,171695.0
63043.02084104486,171686.0
63043.03095020897,171688.0
63043.04105937308,171690.0
63043.05116853718,171681.0
63043.061277701294,171693.0
63043.0713868654,171676.0
63043.0814960295,171702.0
63043.091605193615,171689.0
63043.10171435772,171702.0
63043.111823521824,171690.0
63043.121932685935,171693.0
63043.13204185004,171711.0
63043.142151014144,171687.0
63043.152260178256,171695.0
63043.16236934236,171686.0
63043.172478506465,171685.0
63043.18258767058,171707.0
63043.19269683468,171694.0
63043.202805998786,171719.0
63043.2129151629,171738.0
63043.223024327,171709.0
63043.23313349111,171679.0
63043.24324265521,171663.0
63043.25335181932,171678.0
63043.26346098343,171657.0
63043.27357014753,171658.0
63043.283679311644,171642.0
63043.29378847575,171666.0
63043.30389763985,171656.0
63043.314006803965,171661.0
63043.32411596807,171637.0
63043.334225132174,171647.0
63043.344334296286,171650.0
63043.35444346039,171620.0
63043.364552624495,171614.0
63043.374661788606,171661.0
63043.38477095271,171653.0
63043.394880116815,171620.0
63043.40498928093,171619.0
63043.41509844503,171615.0
63043.425207609136,171645.0
63043.43531677325,171648.0
63043.44542593735,171633.0
63043.45553510146,171616.0
63043.46564426557,171670.0
63043.47575342967,171661.0
63043.48586259378,171617.0
63043.49597175789,171636.0
63043.506080921994,171679.0
63043.5161900861,171657.0
63043.52629925021,171649.0
63043.536408414315,171639.0
63043.54651757842,171642.0
63043.556626742524,171639.0
63043.566735906636,171698.0
63043.57684507074,171639.0
63043.586954234845,171659.0
63043.59706339896,171651.0
63043.60717256306,171642.0
63043.617281727165,171633.0
63043.62739089128,171630.0
63043.63750005538,171655.0
63043.647609219486,171639.0
63043.6577183836,171607.0
63043.6678275477,171641.0
63043.67793671181,171644.0
63043.68804587592,171656.0
63043.69815504002,171653.0
63043.70826420413,171673.0
63043.71837336824,171655.0
63043.728482532344,171662.0
63043.73859169645,171653.0
63043.74870086056,171647.0
63043.758810024665,171659.0
63043.76891918877,171685.0
63043.77902835288,171681.0
63043.789137516986,171658.0
63043.79924668109,171639.0
63043.8093558452,171636.0
63043.81946500931,171671.0
63043.82957417341,171685.0
63043.83968333752,171679.0
63043.84979250163,171670.0
63043.85990166573,171640.0
63043.870010829836,171639.0
63043.88011999395,171690.0
63043.89022915805,171662.0
63043.90033832216,171664.0
63043.91044748627,171668.0
63043.92055665037,171626.0
63043.93066581448,171673.0
63043.94077497859,171688.0
63043.950884142694,171671.0
63043.9609933068,171659.0
63043.97110247091,171683.0
63043.981211635015,171686.0
63043.99132079912,171666.0
63044.00142996323,171691.0
63044.011539127336,171679.0
63044.02164829144,171667.0
63044.03175745555,171682.0
63044.04186661966,171682.0
63044.05197578376,171686.0
63044.06208494787,171688.0
63044.07219411198,171651.0
63044.08230327608,171638.0
63044.09241244019,171660.0
63044.1025216043,171635.0
63044.1126307684,171657.0
63044.122739932514,171679.0
63044.13284909662,171641.0
63044.14295826072,171650.0
63044.153067424835,171644.0
63044.16317658894,171655.0
63044.173285753044,171627.0
63044.18339491715,171618.0
63044.19350408126,171595.0
63044.203613245365,171582.0
63044.21372240947,171584.0
63044.22383157358,171630.0
63044.233940737686,171607.0
63044.24404990179,171642.0
63044.2541590659,171604.0
63044.26426823001,171612.0
63044.27437739411,171607.0
63044.28448655822,171620.0
63044.29459572233,171622.0
63044.30470488643,171610.0
63044.314814050544,171588.0
63044.32492321465,171610.0
63044.33503237875,171650.0
63044.345141542864,171606.0
63044.35525070697,171646.0
63044.36535987107,171591.0
63044.375469035185,171612.0
63044.38557819929,171614.0
63044.395687363394,171639.0
63044.405796527506,171640.0
63044.41590569161,171611.0
63044.426014855715,171636.0
63044.43612401983,171611.0
63044.44623318393,171618.0
63044.456342348036,171590.0
63044.46645151215,171596.0
63044.47656067625,171591.0
63044.48666984036,171598.0
63044.49677900446,171613.0
63044.50688816857,171631.0
63044.51699733268,171662.0
63044.52710649678,171590.0
63044.537215660894,171656.0
63044.547324825,171627.0
63044.5574339891,171641.0
63044.567543153215,171612.0
63044.57765231732,171605.0
63044.58776148142,171639.0
63044.597870645535,171624.0
63044.60797980964,171629.0
63044.618088973744,171634.0
63044.628198137856,171649.0
63044.63830730196,171642.0
63044.648416466065,171643.0
63044.65852563018,171617.0
63044.66863479428,171666.0
63044.678743958386,171639.0
63044.6888531225,171632.0
63044.6989622866,171649.0
63044.70907145071,171629.0
63044.71918061482,171643.0
63044.72928977892,171637.0
63044.73939894303,171626.0
63044.74950810714,171648.0
63044.759617271244,171659.0
63044.76972643535,171646.0
63044.77983559946,171684.0
63044.789944763565,171666.0
63044.80005392767,171657.0
63044.81016309177,171650.0
63044.820272255885,171632.0
63044.83038141999,171654.0
63044.840490584094,171658.0
63044.850599748206,171641.0
63044.86070891231,171617.0
63044.870818076415,171644.0
63044.88092724053,171648.0
63044.89103640463,171664.0
63044.901145568736,171678.0
63044.91125473285,171668.0
63044.92136389695,171665.0
63044.93147306106,171641.0
63044.94158222517,171677.0
63044.95169138927,171651.0
63044.96180055338,171670.0
63044.97190971749,171665.0
63044.982018881594,171647.0
63044.9921280457,171631.0
63045.00223720981,171659.0
63045.012346373915,171630.0
63045.02245553802,171576.0
63045.03256470213,171605.0
63045.042673866235,171639.0
63045.05278303034,171615.0
63045.06289219445,171620.0
63045.073001358556,171581.0
63045.08311052266,171619.0
63045.093219686765,171608.0
63045.10332885088,171591.0
63045.11343801498,171576.0
63045.123547179086,171584.0
63045.1336563432,171608.0
63045.1437655073,171622.0
63045.15387467141,171578.0
63045.16398383552,171613.0
63045.17409299962,171606.0
63045.18420216373,171642.0
63045.19431132784,171617.0
63045.204420491944,171613.0
63045.21452965605,171609.0
63045.22463882016,171581.0
63045.234747984265,171580.0
63045.24485714837,171596.0
63045.25496631248,171611.0
63045.265075476585,171591.0
63045.27518464069,171617.0
63045.2852938048,171566.0
63045.295402968906,171620.0
63045.30551213301,171607.0
63045.31562129712,171636.0
63045.32573046123,171597.0
63045.33583962533,171606.0
63045.34594878944,171623.0
63045.35605795355,171619.0
63045.36616711765,171630.0
63045.376276281764,171620.0
63045.38638544587,171577.0
63045.39649460997,171625.0
63045.406603774085,171585.0
63045.41671293819,171607.0
63045.426822102294,171607.0
63045.4369312664,171640.0
63045.44704043051,171607.0
63045.457149594615,171620.0
63045.46725875872,171632.0
63045.47736792283,171617.0
63045.487477086936,171633.0
63045.49758625104,171607.0
63045.50769541515,171641.0
63045.517804579256,171627.0
63045.52791374336,171605.0
63045.53802290747,171583.0
63045.54813207158,171630.0
63045.55824123568,171621.0
63045.56835039979,171644.0
63045.5784595639,171584.0
63045.588568728,171647.0
63045.598677892114,171629.0
63045.60878705622,171654.0
63045.61889622032,171614.0
63045.629005384435,171634.0
63045.63911454854,171667.0
63045.649223712644,171656.0
63045.659332876756,171651.0
63045.66944204086,171600.0
63045.679551204965,171624.0
63045.68966036908,171640.0
63045.69976953318,171659.0
63045.709878697286,171651.0
63045.71998786139,171633.0
63045.7300970255,171633.0
63045.74020618961,171651.0
63045.75031535371,171645.0
63045.76042451782,171628.0
63045.77053368193,171647.0
63045.78064284603,171684.0
63045.79075201014,171667.0
63045.80086117425,171633.0
63045.81097033835,171660.0
63045.821079502464,171654.0
63045.83118866657,171664.0
63045.84129783067,171639.0
63045.851406994785,171681.0
63045.86151615889,171684.0
63045.871625322994,171637.0
63045.881734487106,171648.0
63045.89184365121,171619.0
63045.901952815315,171662.0
63045.91206197943,171640.0
63045.92217114353,171630.0
63045.932280307636,171605.0
63045.94238947175,171573.0
63045.95249863585,171599.0
63045.96260779996,171613.0
63045.97271696407,171568.0
63045.98282612817,171563.0
63045.99293529228,171625.0
63046.00304445639,171607.0
63046.01315362049,171577.0
63046.0232627846,171624.0
63046.03337194871,171582.0
63046.043481112814,171604.0
63046.05359027692,171584.0
63046.06369944102,171587.0
63046.073808605135,171606.0
63046.08391776924,171605.0
63046.094026933344,171606.0
63046.104136097456,171594.0
63046.11424526156,171628.0
63046.124354425665,171605.0
63046.13446358978,171575.0
63046.14457275388,171637.0
63046.154681917986,171612.0
63046.1647910821,171600.0
63046.1749002462,171604.0
63046.18500941031,171596.0
63046.19511857442,171629.0
63046.20522773852,171633.0
63046.21533690263,171616.0
63046.22544606674,171607.0
63046.23555523084,171566.0
63046.24566439495,171633.0
63046.25577355906,171617.0
63046.265882723164,171599.0
63046.27599188727,171578.0
63046.28610105138,171629.0
63046.296210215485,171617.0
63046.30631937959,171614.0
63046.3164285437,171602.0
63046.326537707806,171638.0
63046.33664687191,171646.0
63046.346756036015,171609.0
63046.35686520013,171617.0
63046.36697436423,171619.0
63046.377083528336,171625.0
63046.38719269245,171639.0
63046.39730185655,171602.0
63046.40741102066,171630.0
63046.41752018477,171644.0
63046.42762934887,171660.0
63046.43773851298,171597.0
63046.44784767709,171662.0
63046.457956841194,171644.0
63046.4680660053,171631.0
63046.47817516941,171605.0
63046.488284333514,171597.0
63046.49839349762,171642.0
63046.50850266173,171660.0
63046.518611825835,171626.0
63046.52872098994,171669.0
63046.53883015405,171648.0
63046.548939318156,171668.0
63046.55904848226,171638.0
63046.56915764637,171620.0
63046.57926681048,171634.0
63046.58937597458,171621.0
63046.59948513869,171648.0
63046.6095943028,171629.0
63046.6197034669,171635.0
63046.629812631014,171633.0
63046.63992179512,171629.0
63046.65003095922,171620.0
63046.660140123335,171653.0
63046.67024928744,171649.0
63046.680358451544,171673.0
63046.69046761565,171627.0
63046.70057677976,171664.0
63046.710685943865,171657.0
63046.72079510797,171662.0
63046.73090427208,171641.0
63046.741013436185,171608.0
63046.75112260029,171646.0
63046.7612317644,171664.0
63046.771340928506,171680.0
63046.78145009261,171641.0
63046.79155925672,171663.0
63046.80166842083,171689.0
63046.81177758493,171660.0
63046.82188674904,171633.0
63046.83199591315,171640.0
63046.84210507725,171664.0
63046.852214241364,171608.0
63046.86232340547,171613.0
63046.87243256957,171597.0
63046.882541733685,171594.0
63046.89265089779,171625.0
63046.902760061894,171591.0
63046.912869226006,171607.0
63046.92297839011,171593.0
63046.933087554215,171591.0
63046.94319671833,171591.0
63046.95330588243,171617.0
63046.963415046535,171637.0
63046.97352421064,171633.0
63046.98363337475,171633.0
63046.993742538856,171617.0
63047.00385170296,171582.0
63047.01396086707,171619.0
63047.02407003118,171631.0
63047.03417919528,171602.0
63047.04428835939,171606.0
63047.0543975235,171650.0
63047.0645066876,171608.0
63047.074615851714,171588.0
63047.08472501582,171633.0
63047.09483417992,171613.0
63047.104943344035,171637.0
63047.11505250814,171612.0
63047.125161672244,171638.0
63047.135270836356,171626.0
63047.14538000046,171645.0
63047.155489164565,171592.0
63047.16559832868,171620.0
63047.17570749278,171598.0
63047.185816656885,171643.0
63047.195925821,171633.0
63047.2060349851,171634.0
63047.216144149206,171606.0
63047.22625331332,171640.0
63047.23636247742,171640.0
63047.24647164153,171634.0
63047.25658080564,171615.0
63047.26668996974,171660.0
63047.27679913385,171653.0
63047.28690829795,171637.0
63047.297017462064,171640.0
63047.30712662617,171633.0
63047.31723579027,171648.0
63047.327344954385,171651.0
63047.33745411849,171670.0
63047.347563282594,171626.0
63047.357672446706,171664.0
63047.36778161081,171653.0
63047.377890774915,171627.0
63047.38799993903,171663.0
63047.39810910313,171626.0
63047.408218267235,171674.0
63047.41832743135,171630.0
63047.42843659545,171653.0
63047.438545759556,171640.0
63047.44865492367,171635.0
63047.45876408777,171647.0
63047.46887325188,171651.0
63047.47898241599,171631.0
63047.48909158009,171685.0
63047.4992007442,171667.0
63047.50930990831,171651.0
63047.519419072414,171679.0
63047.52952823652,171642.0
63047.53963740063,171679.0
63047.549746564735,171645.0
63047.55985572884,171659.0
63047.56996489295,171672.0
63047.580074057056,171669.0
63047.59018322116,171694.0
63047.600292385265,171693.0
63047.61040154938,171695.0
63047.62051071348,171661.0
63047.630619877586,171638.0
63047.6407290417,171687.0
63047.6508382058,171683.0
63047.660947369906,171684.0
63047.67105653402,171624.0
63047.68116569812,171659.0
63047.69127486223,171652.0
63047.70138402634,171670.0
63047.71149319044,171657.0
63047.72160235455,171637.0
63047.73171151866,171647.0
63047.741820682764,171662.0
63047.75192984687,171618.0
63047.76203901098,171651.0
63047.772148175085,171655.0
63047.78225733919,171617.0
63047.7923665033,171602.0
63047.802475667406,171646.0
63047.81258483151,171639.0
63047.82269399562,171587.0
63047.83280315973,171619.0
63047.84291232383,171629.0
63047.85302148794,171606.0
63047.86313065205,171634.0
63047.87323981615,171626.0
63047.883348980264,171640.0
63047.89345814437,171641.0
63047.90356730847,171615.0
63047.91367647258,171634.0
63047.92378563669,171633.0
63047.93389480079,171603.0
63047.9440039649,171617.0
63047.95411312901,171633.0
63047.964222293114,171675.0
63047.97433145722,171615.0
63047.98444062133,171629.0
63047.994549785435,171638.0
63048.00465894954,171625.0
63048.01476811365,171651.0
63048.024877277756,171628.0
63048.03498644186,171642.0
63048.04509560597,171631.0
63048.05520477008,171611.0
63048.06531393418,171639.0
63048.07542309829,171633.0
63048.0855322624,171659.0
63048.0956414265,171636.0
63048.105750590614,171649.0
63048.11585975472,171653.0
63048.12596891882,171634.0
63048.136078082935,171623.0
63048.14618724704,171676.0
63048.15629641114,171647.0
63048.166405575255,171647.0
63048.17651473936,171653.0
63048.186623903464,171627.0
63048.196733067576,171659.0
63048.20684223168,171617.0
63048.216951395785,171626.0
63048.22706055989,171650.0
63048.237169724,171687.0
63048.247278888106,171651.0
63048.25738805221,171633.0
63048.26749721632,171673.0
63048.27760638043,171679.0
63048.28771554453,171661.0
63048.29782470864,171675.0
63048.30793387275,171664.0
63048.31804303685,171672.0
63048.328152200964,171660.0
63048.33826136507,171655.0
63048.34837052917,171662.0
63048.358479693285,171683.0
63048.36858885739,171671.0
63048.37869802149,171682.0
63048.388807185605,171655.0
63048.39891634971,171694.0
63048.409025513814,171676.0
63048.419134677926,171684.0
63048.42924384203,171707.0
63048.439353006135,171688.0
63048.44946217025,171679.0
63048.45957133435,171659.0
63048.469680498456,171678.0
63048.47978966257,171678.0
63048.48989882667,171680.0
63048.50000799078,171653.0
63048.51011715489,171652.0
63048.52022631899,171706.0
63048.5303354831,171682.0
63048.5404446472,171669.0
63048.550553811314,171667.0
63048.56066297542,171696.0
63048.57077213952,171697.0
63048.580881303635,171701.0
63048.59099046774,171670.0
63048.601099631844,171696.0
63048.611208795955,171704.0
63048.62131796006,171665.0
63048.631427124164,171646.0
63048.641536288276,171649.0
63048.65164545238,171713.0
63048.661754616485,171670.0
63048.6718637806,171643.0
63048.6819729447,171650.0
63048.692082108806,171652.0
63048.70219127292,171658.0
63048.71230043702,171640.0
63048.72240960113,171692.0
63048.73251876524,171641.0
63048.74262792934,171658.0
63048.75273709345,171637.0
63048.76284625756,171617.0
63048.772955421664,171672.0
63048.78306458577,171647.0
63048.79317374988,171619.0
63048.803282913985,171656.0
63048.81339207809,171673.0
63048.8235012422,171657.0
63048.833610406306,171674.0
63048.84371957041,171635.0
63048.853828734515,171685.0
63048.863937898626,171675.0
63048.87404706273,171656.0
63048.884156226835,171620.0
63048.89426539095,171632.0
63048.90437455505,171669.0
63048.914483719156,171708.0
63048.92459288327,171662.0
63048.93470204737,171660.0
63048.94481121148,171679.0
63048.95492037559,171686.0
63048.96502953969,171652.0
63048.9751387038,171655.0
63048.98524786791,171677.0
63048.995357032014,171684.0
63049.00546619612,171614.0
63049.01557536023,171657.0
63049.025684524335,171653.0
63049.03579368844,171662.0
63049.04590285255,171649.0
63049.056012016656,171642.0
63049.06612118076,171676.0
63049.07623034487,171676.0
63049.08633950898,171694.0
63049.09644867308,171642.0
63049.10655783719,171688.0
63049.1166670013,171675.0
63049.1267761654,171693.0
63049.13688532951,171661.0
63049.14699449362,171654.0
63049.15710365772,171670.0
63049.16721282183,171706.0
63049.17732198594,171662.0
63049.18743115004,171693.0
63049.19754031415,171692.0
63049.20764947826,171698.0
63049.217758642364,171669.0
63049.22786780647,171696.0
63049.23797697058,171680.0
63049.248086134685,171694.0
63049.25819529879,171706.0
63049.2683044629,171689.0
63049.278413627006,171688.0
63049.28852279111,171701.0
63049.29863195522,171648.0
63049.30874111933,171659.0
63049.31885028343,171697.0
63049.32895944754,171708.0
63049.33906861165,171689.0
63049.34917777575,171673.0
63049.35928693986,171702.0
63049.36939610397,171707.0
63049.37950526807,171707.0
63049.389614432184,171675.0
63049.39972359629,171704.0
63049.40983276039,171687.0
63049.419941924505,171731.0
63049.43005108861,171686.0
63049.440160252714,171701.0
63049.450269416826,171715.0
63049.46037858093,171721.0
63049.470487745035,171711.0
63049.48059690914,171694.0
63049.49070607325,171711.0
63049.500815237356,171742.0
63049.51092440146,171699.0
63049.52103356557,171745.0
63049.53114272968,171714.0
63049.54125189378,171700.0
63049.55136105789,171682.0
63049.561470222,171674.0
63049.5715793861,171698.0
63049.58168855021,171705.0
63049.59179771432,171694.0
63049.60190687842,171647.0
63049.612016042534,171670.0
63049.62212520664,171701.0
63049.63223437074,171673.0
63049.642343534855,171655.0
63049.65245269896,171679.0
63049.662561863064,171657.0
63049.672671027176,171711.0
63049.68278019128,171642.0
63049.692889355385,171683.0
63049.7029985195,171681.0
63049.7131076836,171719.0
63049.723216847706,171673.0
63049.73332601182,171692.0
63049.74343517592,171689.0
63049.75354434003,171668.0
63049.76365350414,171714.0
63049.77376266824,171700.0
63049.78387183235,171681.0
63049.79398099645,171711.0
63049.804090160564,171721.0
63049.81419932467,171705.0
63049.82430848877,171675.0
63049.834417652884,171694.0
63049.84452681699,171685.0
63049.85463598109,171662.0
63049.864745145205,171694.0
63049.87485430931,171702.0
63049.884963473414,171723.0
63049.895072637526,171674.0
63049.90518180163,171695.0
63049.915290965735,171678.0
63049.92540012985,171712.0
63049.93550929395,171701.0
63049.945618458056,171687.0
63049.95572762217,171693.0
63049.96583678627,171703.0
63049.97594595038,171699.0
63049.98605511449,171728.0
63049.99616427859,171691.0
63050.0062734427,171686.0
63050.01638260681,171728.0
63050.026491770914,171717.0
63050.03660093502,171704.0
63050.04671009913,171729.0
63050.056819263235,171730.0
63050.06692842734,171701.0
63050.07703759145,171666.0
63050.087146755555,171703.0
63050.09725591966,171693.0
63050.107365083764,171721.0
63050.117474247876,171708.0
63050.12758341198,171748.0
63050.137692576085,171744.0
63050.1478017402,171723.0
63050.1579109043,171696.0
63050.168020068406,171715.0
63050.17812923252,171720.0
63050.18823839662,171714.0
63050.19834756073,171704.0
63050.20845672484,171712.0
63050.21856588894,171708.0
63050.22867505305,171720.0
63050.23878421716,171731.0
63050.248893381264,171715.0
63050.25900254537,171690.0
63050.26911170948,171741.0
63050.279220873585,171732.0
63050.28933003769,171696.0
63050.2994392018,171703.0
63050.309548365905,171758.0
63050.31965753001,171731.0
63050.32976669412,171707.0
63050.339875858226,171714.0
63050.34998502233,171749.0
63050.36009418644,171717.0
63050.37020335055,171749.0
63050.38031251465,171696.0
63050.39042167876,171731.0
63050.40053084287,171736.0
63050.41064000697,171749.0
63050.42074917108,171734.0
63050.43085833519,171745.0
63050.44096749929,171739.0
63050.4510766634,171699.0
63050.46118582751,171705.0
63050.471294991614,171690.0
63050.48140415572,171696.0
63050.49151331983,171691.0
63050.501622483935,171671.0
63050.51173164804,171680.0
63050.52184081215,171698.0
63050.531949976255,171689.0
63050.54205914036,171691.0
63050.55216830447,171745.0
63050.562277468576,171709.0
63050.57238663268,171719.0
63050.58249579679,171696.0
63050.5926049609,171689.0
63050.602714125,171720.0
63050.61282328911,171745.0
63050.62293245322,171740.0
63050.63304161732,171736.0
63050.643150781434,171731.0
63050.65325994554,171711.0
63050.66336910964,171692.0
63050.673478273755,171744.0
63050.68358743786,171742.0
63050.693696601964,171727.0
63050.703805766076,171687.0
63050.71391493018,171681.0
63050.724024094285,171706.0
63050.73413325839,171731.0
63050.7442424225,171688.0
63050.754351586605,171712.0
63050.76446075071,171713.0
63050.77456991482,171725.0
63050.784679078926,171708.0
63050.79478824303,171734.0
63050.80489740714,171698.0
63050.81500657125,171728.0
63050.82511573535,171707.0
63050.83522489946,171702.0
63050.84533406357,171748.0
63050.85544322767,171732.0
63050.865552391784,171698.0
63050.87566155589,171751.0
63050.88577071999,171728.0
63050.895879884105,171736.0
63050.90598904821,171708.0
63050.916098212314,171758.0
63050.926207376426,171733.0
63050.93631654053,171742.0
63050.946425704635,171740.0
63050.95653486875,171718.0
63050.96664403285,171767.0
63050.976753196956,171737.0
63050.98686236107,171741.0
63050.99697152517,171753.0
63051.007080689276,171745.0
63051.01718985339,171725.0
63051.02729901749,171719.0
63051.0374081816,171695.0
63051.0475173457,171735.0
63051.05762650981,171719.0
63051.06773567392,171741.0
63051.07784483802,171732.0
63051.087954002134,171727.0
63051.09806316624,171757.0
63051.10817233034,171738.0
63051.118281494455,171723.0
63051.12839065856,171737.0
63051.138499822664,171719.0
63051.148608986776,171728.0
63051.15871815088,171709.0
63051.168827314985,171701.0
63051.1789364791,171762.0
63051.1890456432,171759.0
63051.199154807306,171755.0
63051.20926397142,171733.0
63051.21937313552,171749.0
63051.22948229963,171740.0
63051.23959146374,171755.0
63051.24970062784,171743.0
63051.25980979195,171689.0
63051.26991895606,171718.0
63051.28002812016,171698.0
63051.29013728427,171658.0
63051.30024644838,171669.0
63051.310355612484,171711.0
63051.32046477659,171719.0
63051.3305739407,171726.0
63051.340683104805,171706.0
63051.35079226891,171702.0
63051.360901433014,171735.0
63051.371010597126,171719.0
63051.38111976123,171729.0
63051.391228925335,171705.0
63051.40133808945,171712.0
63051.41144725355,171725.0
63051.421556417656,171687.0
63051.43166558177,171710.0
63051.44177474587,171700.0
63051.45188390998,171712.0
63051.46199307409,171733.0
63051.47210223819,171720.0
63051.4822114023,171706.0
63051.49232056641,171727.0
63051.50242973051,171683.0
63051.51253889462,171710.0
63051.52264805873,171707.0
63051.532757222834,171695.0
63051.54286638694,171682.0
63051.55297555105,171663.0
63051.563084715155,171703.0
63051.57319387926,171687.0
63051.58330304337,171726.0
63051.593412207476,171717.0
63051.60352137158,171699.0
63051.61363053569,171734.0
63051.6237396998,171697.0
63051.6338488639,171678.0
63051.64395802801,171720.0
63051.65406719212,171685.0
63051.66417635622,171722.0
63051.67428552033,171714.0
63051.68439468444,171705.0
63051.69450384854,171701.0
63051.70461301265,171711.0
63051.71472217676,171703.0
63051.72483134086,171718.0
63051.73494050497,171726.0
63051.74504966908,171709.0
63051.755158833184,171720.0
63051.76526799729,171723.0
63051.7753771614,171709.0
63051.785486325505,171747.0
63051.79559548961,171703.0
63051.80570465372,171740.0
63051.815813817826,171670.0
63051.82592298193,171727.0
63051.83603214604,171735.0
63051.84614131015,171721.0
63051.85625047425,171719.0
63051.86635963836,171704.0
63051.87646880247,171698.0
63051.88657796657,171716.0
63051.896687130684,171721.0
63051.90679629479,171697.0
63051.91690545889,171703.0
63051.927014623005,171720.0
63051.93712378711,171736.0
63051.947232951214,171736.0
63051.957342115325,171692.0
63051.96745127943,171715.0
63051.977560443534,171727.0
63051.98766960764,171728.0
63051.99777877175,171744.0
63052.007887935855,171696.0
63052.01799709996,171700.0
63052.02810626407,171688.0
63052.038215428176,171715.0
63052.04832459228,171673.0
63052.05843375639,171684.0
63052.0685429205,171677.0
63052.0786520846,171667.0
63052.08876124871,171642.0
63052.09887041282,171677.0
63052.10897957692,171657.0
63052.119088741034,171701.0
63052.12919790514,171675.0
63052.13930706924,171681.0
63052.149416233355,171666.0
63052.15952539746,171667.0
63052.169634561564,171717.0
63052.179743725676,171696.0
63052.18985288978,171657.0
63052.199962053885,171722.0
63052.210071217996,171698.0
63052.2201803821,171699.0
63052.230289546205,171683.0
63052.24039871032,171680.0
63052.25050787442,171701.0
63052.260617038526,171656.0
63052.27072620264,171687.0
63052.28083536674,171706.0
63052.29094453085,171715.0
63052.30105369495,171670.0
63052.31116285906,171693.0
63052.32127202317,171677.0
63052.33138118727,171716.0
63052.341490351384,171699.0
63052.35159951549,171714.0
63052.36170867959,171657.0
63052.371817843705,171710.0
63052.38192700781,171686.0
63052.392036171914,171682.0
63052.402145336026,171705.0
63052.41225450013,171691.0
63052.422363664235,171732.0
63052.43247282835,171703.0
63052.44258199245,171683.0
63052.452691156555,171689.0
63052.46280032067,171724.0
63052.47290948477,171704.0
63052.483018648876,171688.0
63052.49312781299,171700.0
63052.50323697709,171703.0
63052.5133461412,171703.0
63052.52345530531,171739.0
63052.53356446941,171727.0
63052.54367363352,171727.0
63052.55378279763,171729.0
63052.563891961734,171689.0
63052.57400112584,171678.0
63052.58411028995,171682.0
63052.594219454055,171702.0
63052.60432861816,171723.0
63052.614437782264,171675.0
63052.624546946376,171701.0
63052.63465611048,171706.0
63052.644765274585,171706.0
63052.6548744387,171685.0
63052.6649836028,171703.0
63052.675092766905,171748.0
63052.68520193102,171711.0
63052.69531109512,171718.0
63052.705420259226,171710.0
63052.71552942334,171744.0
63052.72563858744,171719.0
63052.73574775155,171692.0
63052.74585691566,171665.0
63052.75596607976,171695.0
63052.76607524387,171684.0
63052.77618440798,171653.0
63052.786293572084,171665.0
63052.79640273619,171693.0
63052.8065119003,171674.0
63052.816621064405,171656.0
63052.82673022851,171653.0
63052.83683939262,171660.0
63052.846948556726,171661.0
63052.85705772083,171684.0
63052.86716688494,171632.0
63052.87727604905,171677.0
63052.88738521315,171660.0
63052.89749437726,171639.0
63052.90760354137,171638.0
63052.91771270547,171629.0
63052.927821869576,171656.0
63052.93793103369,171667.0
63052.94804019779,171653.0
63052.9581493619,171625.0
63052.96825852601,171640.0
63052.97836769011,171674.0
63052.98847685422,171640.0
63052.99858601833,171671.0
63053.008695182434,171652.0
63053.01880434654,171640.0
63053.02891351065,171682.0
63053.039022674755,171622.0
63053.04913183886,171657.0
63053.05924100297,171662.0
63053.069350167076,171674.0
63053.07945933118,171634.0
63053.08956849529,171681.0
63053.0996776594,171671.0
63053.1097868235,171664.0
63053.11989598761,171674.0
63053.13000515172,171650.0
63053.14011431582,171655.0
63053.15022347993,171684.0
63053.16033264404,171643.0
63053.17044180814,171631.0
63053.180550972254,171657.0
63053.19066013636,171668.0
63053.20076930046,171640.0
63053.210878464575,171645.0
63053.22098762868,171663.0
63053.231096792784,171701.0
63053.24120595689,171684.0
63053.251315121,171667.0
63053.261424285105,171669.0
63053.27153344921,171632.0
63053.28164261332,171639.0
63053.291751777426,171606.0
63053.30186094153,171661.0
63053.31197010564,171670.0
63053.32207926975,171696.0
63053.33218843385,171695.0
63053.34229759796,171664.0
63053.35240676207,171653.0
63053.36251592617,171649.0
63053.372625090284,171703.0
63053.38273425439,171665.0
63053.39284341849,171655.0
63053.402952582604,171677.0
63053.41306174671,171670.0
63053.42317091081,171638.0
63053.433280074925,171627.0
63053.44338923903,171682.0
63053.453498403134,171705.0
63053.463607567246,171664.0
63053.47371673135,171688.0
63053.483825895455,171669.0
63053.49393505957,171682.0
63053.50404422367,171649.0
63053.514153387776,171687.0
63053.52426255189,171656.0
63053.53437171599,171652.0
63053.5444808801,171660.0
63053.5545900442,171645.0
63053.56469920831,171619.0
63053.57480837242,171667.0
63053.58491753652,171649.0
63053.595026700634,171638.0
63053.60513586474,171627.0
63053.61524502884,171609.0
63053.625354192955,171627.0
63053.63546335706,171629.0
63053.64557252116,171608.0
63053.655681685275,171635.0
63053.66579084938,171654.0
63053.675900013484,171616.0
63053.686009177596,171607.0
63053.6961183417,171610.0
63053.706227505805,171632.0
63053.71633666992,171621.0
63053.72644583402,171608.0
63053.736554998126,171638.0
63053.74666416224,171622.0
63053.75677332634,171618.0
63053.76688249045,171595.0
63053.77699165456,171657.0
63053.78710081866,171641.0
63053.79720998277,171635.0
63053.80731914688,171629.0
63053.817428310984,171624.0
63053.82753747509,171612.0
63053.8376466392,171624.0
63053.847755803305,171608.0
63053.85786496741,171625.0
63053.86797413151,171630.0
63053.878083295625,171649.0
63053.88819245973,171632.0
63053.898301623834,171646.0
63053.908410787946,171640.0
63053.91851995205,171608.0
63053.928629116155,171616.0
63053.93873828027,171595.0
63053.94884744437,171659.0
63053.958956608476,171652.0
63053.96906577259,171624.0
63053.97917493669,171648.0
63053.9892841008,171624.0
63053.99939326491,171631.0
63054.00950242901,171635.0
63054.01961159312,171640.0
63054.02972075723,171616.0
63054.039829921334,171655.0
63054.04993908544,171635.0
63054.06004824955,171638.0
63054.070157413655,171645.0
63054.08026657776,171628.0
63054.09037574187,171655.0
63054.100484905975,171622.0
63054.11059407008,171651.0
63054.12070323419,171633.0
63054.130812398296,171650.0
63054.1409215624,171649.0
63054.15103072651,171648.0
63054.16113989062,171665.0
63054.17124905472,171648.0
63054.181358218826,171637.0
63054.19146738294,171667.0
63054.20157654704,171659.0
63054.21168571115,171651.0
63054.22179487526,171630.0
63054.23190403936,171625.0
63054.24201320347,171670.0
63054.25212236758,171650.0
63054.262231531684,171648.0
63054.27234069579,171641.0
63054.2824498599,171626.0
63054.292559024005,171629.0
63054.30266818811,171654.0
63054.31277735222,171678.0
63054.322886516326,171681.0
63054.33299568043,171640.0
63054.34310484454,171666.0
63054.353214008646,171616.0
63054.36332317275,171627.0
63054.37343233686,171617.0
63054.38354150097,171626.0
63054.39365066507,171626.0
63054.40375982918,171609.0
63054.41386899329,171582.0
63054.42397815739,171599.0
63054.434087321504,171626.0
63054.44419648561,171587.0
63054.45430564971,171586.0
63054.464414813825,171592.0
63054.47452397793,171591.0
63054.484633142034,171613.0
63054.49474230614,171572.0
63054.50485147025,171588.0
63054.514960634355,171582.0
63054.52506979846,171612.0
63054.53517896257,171566.0
63054.545288126676,171593.0
63054.55539729078,171602.0
63054.56550645489,171576.0
63054.575615619,171589.0
63054.5857247831,171604.0
63054.59583394721,171583.0
63054.60594311132,171604.0
63054.61605227542,171624.0
63054.62616143953,171571.0
63054.63627060364,171624.0
63054.64637976774,171594.0
63054.656488931854,171603.0
63054.66659809596,171609.0
63054.67670726006,171605.0
63054.686816424175,171582.0
63054.69692558828,171615.0
63054.707034752384,171601.0
63054.717143916496,171615.0
63054.7272530806,171575.0
63054.737362244705,171631.0
63054.74747140882,171597.0
63054.75758057292,171584.0
63054.767689737026,171612.0
63054.77779890114,171616.0
63054.78790806524,171622.0
63054.79801722935,171612.0
63054.80812639345,171587.0
63054.81823555756,171576.0
63054.82834472167,171599.0
63054.83845388577,171611.0
63054.84856304988,171605.0
63054.85867221399,171619.0
63054.86878137809,171613.0
63054.878890542204,171630.0
63054.88899970631,171638.0
63054.89910887041,171620.0
63054.909218034525,171633.0
63054.91932719863,171623.0
63054.929436362734,171628.0
63054.939545526846,171611.0
63054.94965469095,171631.0
63054.959763855055,171632.0
63054.96987301917,171600.0
63054.97998218327,171608.0
63054.990091347376,171628.0
63055.00020051149,171625.0
63055.01030967559,171651.0
63055.0204188397,171636.0
63055.03052800381,171608.0
63055.04063716791,171634.0
63055.05074633202,171636.0
63055.06085549613,171634.0
63055.07096466023,171653.0
63055.08107382434,171622.0
63055.09118298845,171645.0
63055.101292152554,171625.0
63055.11140131666,171643.0
63055.12151048076,171683.0
63055.131619644875,171643.0
63055.14172880898,171604.0
63055.151837973084,171637.0
63055.161947137196,171602.0
63055.1720563013,171629.0
63055.182165465405,171639.0
63055.19227462952,171648.0
63055.20238379362,171644.0
63055.212492957726,171649.0
63055.22260212184,171623.0
63055.23271128594,171629.0
63055.24282045005,171656.0
63055.25292961416,171624.0
63055.26303877826,171600.0
63055.27314794237,171590.0
63055.28325710648,171626.0
63055.293366270584,171634.0
63055.30347543469,171586.0
63055.3135845988,171567.0
63055.323693762904,171560.0
63055.33380292701,171598.0
63055.34391209112,171576.0
63055.354021255225,171583.0
63055.36413041933,171582.0
63055.37423958344,171592.0
63055.384348747546,171583.0
63055.39445791165,171567.0
63055.40456707576,171547.0
63055.41467623987,171590.0
63055.42478540397,171587.0
63055.434894568076,171551.0
63055.44500373219,171571.0
63055.45511289629,171578.0
63055.4652220604,171581.0
63055.47533122451,171552.0
63055.48544038861,171568.0
63055.49554955272,171621.0
63055.50565871683,171584.0
63055.515767880934,171564.0
63055.52587704504,171570.0
63055.53598620915,171622.0
63055.546095373255,171590.0
63055.55620453736,171549.0
63055.56631370147,171571.0
63055.576422865575,171566.0
63055.58653202968,171590.0
63055.59664119379,171613.0
63055.606750357896,171555.0
63055.616859522,171600.0
63055.62696868611,171599.0
63055.63707785022,171600.0
63055.64718701432,171565.0
63055.65729617843,171602.0
63055.66740534254,171589.0
63055.67751450664,171634.0
63055.687623670754,171575.0
63055.69773283486,171571.0
63055.70784199896,171595.0
63055.717951163075,171589.0
63055.72806032718,171589.0
63055.738169491284,171583.0
63055.74827865539,171596.0
63055.7583878195,171630.0
63055.768496983605,171621.0
63055.77860614771,171582.0
63055.78871531182,171604.0
63055.798824475925,171636.0
63055.80893364003,171629.0
63055.81904280414,171585.0
63055.829151968246,171592.0
63055.83926113235,171595.0
63055.84937029646,171622.0
63055.85947946057,171597.0
63055.86958862467,171618.0
63055.87969778878,171618.0
63055.88980695289,171603.0
63055.89991611699,171607.0
63055.910025281104,171618.0
63055.92013444521,171637.0
63055.93024360931,171595.0
63055.940352773425,171615.0
63055.95046193753,171619.0
63055.960571101634,171597.0
63055.970680265746,171617.0
63055.98078942985,171593.0
63055.990898593955,171616.0
63056.00100775807,171626.0
63056.01111692217,171631.0
63056.021226086275,171627.0
63056.03133525039,171590.0
63056.04144441449,171623.0
63056.051553578596,171635.0
63056.0616627427,171625.0
63056.07177190681,171627.0
63056.08188107092,171633.0
63056.09199023502,171623.0
63056.10209939913,171650.0
63056.11220856324,171602.0
63056.12231772734,171624.0
63056.132426891454,171586.0
63056.14253605556,171641.0
63056.15264521966,171610.0
63056.162754383775,171613.0
63056.17286354788,171591.0
63056.182972711984,171593.0
63056.193081876096,171557.0
63056.2031910402,171586.0
63056.213300204305,171604.0
63056.22340936842,171621.0
63056.23351853252,171557.0
63056.243627696625,171576.0
63056.25373686074,171568.0
63056.26384602484,171580.0
