time,ppg
63011.661410320514,10506.0
63011.67141309046,10521.0
63011.681415860396,10537.0
63011.69141863034,10540.0
63011.70142140028,10550.0
63011.71142417022,10549.0
63011.72142694016,10566.0
63011.731429710104,10579.0
63011.74143248004,10560.0
63011.751435249986,10568.0
63011.76143801992,10568.0
63011.77144078987,10556.0
63011.78144355981,10624.0
63011.79144632975,10598.0
63011.801449099694,10580.0
63011.81145186963,10613.0
63011.821454639576,10607.0
63011.83145740951,10638.0
63011.84146017946,10614.0
63011.851462949395,10642.0
63011.86146571934,10627.0
63011.87146848928,10632.0
63011.88147125922,10677.0
63011.89147402916,10700.0
63011.9014767991,10666.0
63011.91147956904,10683.0
63011.921482338985,10697.0
63011.93148510892,10695.0
63011.94148787887,10708.0
63011.951490648804,10719.0
63011.96149341875,10722.0
63011.97149618869,10713.0
63011.98149895863,10777.0
63011.991501728575,10759.0
63012.00150449851,10752.0
63012.01150726846,10765.0
63012.021510038394,10786.0
63012.03151280834,10765.0
63012.041515578276,10784.0
63012.05151834822,10779.0
63012.06152111816,10813.0
63012.0715238881,10809.0
63012.08152665804,10812.0
63012.091529427984,10821.0
63012.10153219792,10808.0
63012.111534967866,10768.0
63012.1215377378,10766.0
63012.13154050775,10738.0
63012.141543277685,10711.0
63012.15154604763,10696.0
63012.16154881757,10674.0
63012.17155158751,10626.0
63012.181554357456,10619.0
63012.19155712739,10606.0
63012.20155989734,10606.0
63012.211562667275,10590.0
63012.22156543722,10573.0
63012.23156820716,10597.0
63012.2415709771,10570.0
63012.25157374704,10549.0
63012.26157651698,10548.0
63012.27157928692,10574.0
63012.281582056865,10542.0
63012.2915848268,10539.0
63012.30158759675,10535.0
63012.311590366684,10559.0
63012.32159313663,10537.0
63012.331595906566,10513.0
63012.34159867651,10561.0
63012.35160144645,10530.0
63012.36160421639,10536.0
63012.37160698634,10538.0
63012.381609756274,10561.0
63012.39161252622,10568.0
63012.401615296156,10543.0
63012.4116180661,10548.0
63012.42162083604,10563.0
63012.43162360598,10542.0
63012.44162637592,10536.0
63012.451629145864,10549.0
63012.4616319158,10539.0
63012.471634685746,10559.0
63012.48163745568,10538.0
63012.49164022563,10534.0
63012.501642995565,10572.0
63012.51164576551,10543.0
63012.52164853545,10565.0
63012.53165130539,10569.0
63012.54165407533,10559.0
63012.55165684527,10594.0
63012.56165961522,10600.0
63012.571662385155,10576.0
63012.5816651551,10587.0
63012.59166792504,10603.0
63012.60167069498,10606.0
63012.61167346492,10639.0
63012.62167623486,10612.0
63012.6316790048,10624.0
63012.641681774745,10637.0
63012.65168454468,10623.0
63012.66168731463,10635.0
63012.671690084564,10663.0
63012.68169285451,10666.0
63012.691695624446,10668.0
63012.70169839439,10714.0
63012.71170116433,10674.0
63012.72170393427,10686.0
63012.73170670421,10702.0
63012.741709474154,10692.0
63012.75171224409,10733.0
63012.761715014036,10694.0
63012.77171778398,10751.0
63012.78172055392,10752.0
63012.79172332386,10727.0
63012.8017260938,10745.0
63012.811728863744,10763.0
63012.82173163368,10755.0
63012.831734403626,10792.0
63012.84173717356,10774.0
63012.85173994351,10786.0
63012.861742713445,10775.0
63012.87174548339,10779.0
63012.88174825333,10781.0
63012.89175102327,10816.0
63012.90175379321,10834.0
63012.91175656315,10837.0
63012.92175933309,10848.0
63012.931762103035,10850.0
63012.94176487297,10854.0
63012.95176764292,10850.0
63012.96177041286,10876.0
63012.9717731828,10884.0
63012.98177595274,10900.0
63012.99177872268,10926.0
63013.001781492625,10913.0
63013.01178426256,10908.0
63013.02178703251,10900.0
63013.031789802444,10887.0
63013.04179257239,10898.0
63013.051795342326,10843.0
63013.06179811227,10806.0
63013.07180088221,10806.0
63013.08180365215,10752.0
63013.09180642209,10756.0
63013.101809192034,10763.0
63013.11181196197,10709.0
63013.121814731916,10738.0
63013.13181750185,10691.0
63013.1418202718,10659.0
63013.15182304174,10692.0
63013.16182581168,10660.0
63013.171828581624,10660.0
63013.18183135156,10647.0
63013.191834121506,10634.0
63013.20183689144,10669.0
63013.21183966139,10657.0
63013.221842431325,10649.0
63013.23184520127,10639.0
63013.24184797121,10613.0
63013.25185074115,10624.0
63013.26185351109,10628.0
63013.27185628103,10614.0
63013.28185905097,10610.0
63013.291861820915,10630.0
63013.30186459085,10623.0
63013.3118673608,10669.0
63013.321870130734,10630.0
63013.33187290068,10636.0
63013.34187567062,10641.0
63013.35187844056,10630.0
63013.361881210505,10657.0
63013.37188398044,10629.0
63013.38188675039,10658.0
63013.391889520324,10652.0
63013.40189229027,10607.0
63013.411895060206,10645.0
63013.42189783015,10663.0
63013.43190060009,10618.0
63013.44190337003,10662.0
63013.45190613997,10655.0
63013.461908909914,10631.0
63013.47191167985,10665.0
63013.481914449796,10643.0
63013.49191721973,10703.0
63013.50191998968,10689.0
63013.511922759615,10660.0
63013.52192552956,10705.0
63013.5319282995,10700.0
63013.54193106944,10681.0
63013.551933839386,10732.0
63013.56193660932,10716.0
63013.57193937927,10728.0
63013.581942149205,10754.0
63013.59194491915,10763.0
63013.60194768909,10793.0
63013.61195045903,10781.0
63013.62195322897,10851.0
63013.63195599891,10804.0
63013.64195876885,10837.0
63013.651961538795,10880.0
63013.66196430873,10867.0
63013.67196707868,10915.0
63013.681969848614,10921.0
63013.69197261856,10934.0
63013.701975388496,10928.0
63013.71197815844,10944.0
63013.72198092838,10921.0
63013.73198369832,10979.0
63013.74198646827,10971.0
63013.751989238204,10980.0
63013.76199200815,11002.0
63013.771994778086,10995.0
63013.78199754803,11000.0
63013.79200031797,11011.0
63013.80200308791,11001.0
63013.81200585785,11045.0
63013.822008627794,11031.0
63013.83201139773,11014.0
63013.842014167676,11074.0
63013.85201693761,11041.0
63013.86201970756,10980.0
63013.872022477495,11002.0
63013.88202524744,10995.0
63013.89202801738,11000.0
63013.90203078732,11011.0
63013.91203355726,11001.0
63013.9220363272,11045.0
63013.93203909715,11031.0
63013.942041867085,11014.0
63013.95204463703,11074.0
63013.96204740697,11041.0
63013.97205017691,11056.0
63013.98205294685,11085.0
63013.99205571679,11068.0
63014.00205848673,11061.0
63014.012061256675,11081.0
63014.02206402661,11079.0
63014.03206679656,11112.0
63014.042069566494,11085.0
63014.05207233644,11114.0
63014.062075106376,11124.0
63014.07207787632,11107.0
63014.08208064626,11118.0
63014.0920834162,11139.0
63014.10208618614,11135.0
63014.112088956084,11153.0
63014.12209172602,11127.0
63014.132094495966,11133.0
63014.14209726591,11119.0
63014.15210003585,11079.0
63014.16210280579,11056.0
63014.17210557573,11044.0
63014.182108345674,10996.0
63014.19211111561,10981.0
63014.202113885556,10970.0
63014.21211665549,10954.0
63014.22211942544,10935.0
63014.232122195375,10912.0
63014.24212496532,10922.0
63014.25212773526,10891.0
63014.2621305052,10890.0
63014.27213327514,10845.0
63014.28213604508,10850.0
63014.29213881502,10832.0
63014.302141584965,10840.0
63014.3121443549,10823.0
63014.32214712485,10826.0
63014.33214989479,10816.0
63014.34215266473,10810.0
63014.35215543467,10809.0
63014.36215820461,10800.0
63014.372160974555,10790.0
63014.38216374449,10787.0
63014.39216651444,10838.0
63014.402169284374,10788.0
63014.41217205432,10792.0
63014.422174824256,10760.0
63014.4321775942,10780.0
63014.44218036414,10781.0
63014.45218313408,10782.0
63014.46218590402,10783.0
63014.472188673964,10790.0
63014.4821914439,10787.0
63014.492194213846,10838.0
63014.50219698378,10788.0
63014.51219975373,10792.0
63014.52220252367,10760.0
63014.53220529361,10780.0
63014.542208063554,10781.0
63014.55221083349,10782.0
63014.562213603436,10783.0
63014.57221637337,10798.0
63014.58221914332,10762.0
63014.592221913255,10777.0
63014.6022246832,10796.0
63014.61222745314,10752.0
63014.62223022308,10770.0
63014.63223299302,10796.0
63014.64223576296,10753.0
63014.6522385329,10788.0
63014.662241302845,10758.0
63014.67224407278,10775.0
63014.68224684273,10779.0
63014.692249612664,10773.0
63014.70225238261,10805.0
63014.71225515255,10781.0
63014.72225792249,10795.0
63014.732260692435,10803.0
63014.74226346237,10801.0
63014.75226623232,10814.0
63014.762269002254,10802.0
63014.7722717722,10817.0
63014.782274542136,10839.0
63014.79227731208,10836.0
63014.80228008202,10826.0
63014.81228285196,10827.0
63014.8222856219,10836.0
63014.832288391844,10884.0
63014.84229116178,10866.0
63014.852293931726,10876.0
63014.86229670166,10865.0
63014.87229947161,10859.0
63014.882302241545,10879.0
63014.89230501149,10879.0
63014.90230778143,10881.0
63014.91231055137,10886.0
63014.922313321316,10908.0
63014.93231609125,10918.0
63014.9423188612,10940.0
63014.952321631135,10945.0
63014.96232440108,10936.0
63014.97232717102,10959.0
63014.98232994096,10920.0
63014.9923327109,10941.0
63015.00233548084,10952.0
63015.01233825078,10937.0
63015.022341020725,10964.0
63015.03234379066,10950.0
63015.04234656061,10989.0
63015.052349330545,10990.0
63015.06235210049,11003.0
63015.072354870426,11017.0
63015.08235764037,11013.0
63015.09236041031,10992.0
63015.10236318025,11026.0
63015.1123659502,11025.0
63015.122368720135,11029.0
63015.13237149008,11047.0
63015.14237426002,11071.0
63015.15237702996,11060.0
63015.1623797999,11074.0
63015.17238256984,11082.0
63015.18238533978,11065.0
63015.192388109725,11085.0
63015.20239087966,11087.0
63015.21239364961,11103.0
63015.222396419544,11091.0
63015.23239918949,11094.0
63015.242401959425,11113.0
63015.25240472937,11150.0
63015.26240749931,11103.0
63015.27241026925,11107.0
63015.28241303919,11101.0
63015.292415809134,11086.0
63015.30241857908,11057.0
63015.312421349015,11028.0
63015.32242411896,11018.0
63015.3324268889,10974.0
63015.34242965884,10939.0
63015.35243242878,10942.0
63015.362435198724,10922.0
63015.37243796866,10933.0
63015.382440738606,10906.0
63015.39244350854,10867.0
63015.40244627849,10854.0
63015.412449048425,10868.0
63015.42245181837,10843.0
63015.43245458831,10831.0
63015.44245735825,10830.0
63015.45246012819,10796.0
63015.46246289813,10849.0
63015.47246566807,10816.0
63015.482468438015,10804.0
63015.49247120795,10768.0
63015.5024739779,10790.0
63015.51247674784,10790.0
63015.52247951778,10783.0
63015.53248228772,10766.0
63015.54248505766,10769.0
63015.552487827605,10758.0
63015.56249059754,10780.0
63015.57249336749,10779.0
63015.582496137424,10751.0
63015.59249890737,10761.0
63015.602501677306,10753.0
63015.61250444725,10791.0
63015.62250721719,10749.0
63015.63250998713,10779.0
63015.64251275707,10739.0
63015.652515527014,10761.0
63015.66251829695,10743.0
63015.672521066896,10725.0
63015.68252383683,10753.0
63015.69252660678,10758.0
63015.70252937672,10744.0
63015.71253214666,10775.0
63015.722534916604,10791.0
63015.73253768654,10774.0
63015.742540456486,10754.0
63015.75254322642,10765.0
63015.76254599637,10759.0
63015.772548766305,10787.0
63015.78255153625,10775.0
63015.79255430619,10792.0
63015.80255707613,10769.0
63015.81255984607,10801.0
63015.82256261601,10818.0
63015.83256538595,10805.0
63015.842568155895,10829.0
63015.85257092583,10828.0
63015.86257369578,10826.0
63015.872576465714,10823.0
63015.88257923566,10833.0
63015.8925820056,10853.0
63015.90258477554,10855.0
63015.912587545485,10844.0
63015.92259031542,10859.0
63015.93259308537,10857.0
63015.942595855304,10882.0
63015.95259862525,10891.0
63015.962601395186,10899.0
63015.97260416513,10893.0
63015.98260693507,10873.0
63015.99260970501,10874.0
63016.00261247495,10906.0
63016.012615244894,10920.0
63016.02261801483,10917.0
63016.032620784776,10934.0
63016.04262355471,10914.0
63016.05262632466,10934.0
63016.062629094595,10943.0
63016.07263186454,10941.0
63016.082634634484,10965.0
63016.09263740442,10952.0
63016.102640174366,10963.0
63016.1126429443,10964.0
63016.12264571425,10994.0
63016.132648484185,10989.0
63016.14265125413,11012.0
63016.15265402407,10987.0
63016.16265679401,11034.0
63016.17265956395,11015.0
63016.18266233389,11003.0
63016.19266510383,11014.0
63016.202667873775,11009.0
63016.21267064371,11044.0
63016.22267341366,11072.0
63016.232676183594,11067.0
63016.24267895354,11066.0
63016.252681723476,11061.0
63016.26268449342,11064.0
63016.27268726336,11110.0
63016.2826900333,11075.0
63016.29269280325,11098.0
63016.302695573184,11112.0
63016.31269834313,11120.0
63016.322701113066,11126.0
63016.33270388301,11122.0
63016.34270665295,11140.0
63016.35270942289,11134.0
63016.36271219283,11117.0
63016.372714962774,11108.0
63016.38271773271,11089.0
63016.392720502656,11051.0
63016.40272327259,11052.0
63016.41272604254,10999.0
63016.422728812475,11007.0
63016.43273158242,10991.0
63016.44273435236,10915.0
63016.4527371223,10937.0
63016.46273989224,10903.0
63016.47274266218,10886.0
63016.48274543213,10852.0
63016.492748202065,10847.0
63016.50275097201,10856.0
63016.51275374195,10860.0
63016.52275651189,10821.0
63016.53275928183,10839.0
63016.54276205177,10816.0
63016.55276482171,10803.0
63016.562767591655,10837.0
63016.57277036159,10836.0
63016.58277313154,10791.0
63016.592775901474,10798.0
63016.60277867142,10779.0
63016.612781441356,10794.0
63016.6227842113,10777.0
63016.63278698124,10776.0
63016.64278975118,10775.0
63016.65279252112,10752.0
63016.662795291064,10782.0
63016.67279806101,10800.0
63016.682800830946,10774.0
63016.69280360089,10789.0
63016.70280637083,10770.0
63016.71280914077,10766.0
63016.72281191071,10771.0
63016.732814680654,10760.0
63016.74281745059,10778.0
63016.752820220536,10735.0
63016.76282299047,10754.0
63016.77282576042,10754.0
63016.782828530355,10762.0
63016.7928313003,10772.0
63016.80283407024,10779.0
63016.81283684018,10776.0
63016.82283961012,10779.0
63016.83284238006,10770.0
63016.84284515,10791.0
63016.852847919945,10794.0
63016.86285068988,10798.0
63016.87285345983,10788.0
63016.88285622977,10828.0
63016.89285899971,10830.0
63016.90286176965,10824.0
63016.91286453959,10835.0
63016.922867309535,10836.0
63016.93287007947,10844.0
63016.94287284942,10836.0
63016.952875619354,10828.0
63016.9628783893,10842.0
63016.972881159236,10835.0
63016.98288392918,10869.0
63016.99288669912,10886.0
63017.00288946906,10872.0
63017.012892239,10891.0
63017.022895008944,10849.0
63017.03289777888,10922.0
63017.042900548826,10901.0
63017.05290331876,10901.0
63017.06290608871,10909.0
63017.07290885865,10897.0
63017.08291162859,10888.0
63017.092914398534,10941.0
63017.10291716847,10937.0
63017.112919938416,10943.0
63017.12292270835,10928.0
63017.1329254783,10949.0
63017.142928248235,10957.0
63017.15293101818,10944.0
63017.16293378812,10942.0
63017.17293655806,11002.0
63017.182939328,10978.0
63017.19294209794,10982.0
63017.20294486788,11001.0
63017.212947637825,10986.0
63017.22295040776,11007.0
63017.23295317771,11020.0
63017.242955947644,11007.0
63017.25295871759,11010.0
63017.26296148753,11022.0
63017.27296425747,11038.0
63017.282967027415,11043.0
63017.29296979735,11018.0
63017.3029725673,11072.0
63017.312975337234,11084.0
63017.32297810718,11071.0
63017.332980877116,11096.0
63017.34298364706,11085.0
63017.352986417,11083.0
63017.36298918694,11101.0
63017.37299195688,11133.0
63017.382994726824,11097.0
63017.39299749676,11105.0
63017.403000266706,11127.0
63017.41300303664,11109.0
63017.42300580659,11080.0
63017.433008576525,11067.0
63017.44301134647,11041.0
63017.453014116414,11032.0
63017.46301688635,10968.0
63017.473019656296,10974.0
63017.48302242623,10952.0
63017.49302519618,10917.0
63017.503027966115,10890.0
63017.51303073606,10893.0
63017.523033506,10909.0
63017.53303627594,10865.0
63017.54303904588,10856.0
63017.55304181582,10848.0
63017.56304458576,10883.0
63017.573047355705,10831.0
63017.58305012564,10856.0
63017.59305289559,10836.0
63017.603055665524,10828.0
63017.61305843547,10806.0
63017.623061205406,10845.0
63017.63306397535,10812.0
63017.64306674529,10827.0
63017.65306951523,10802.0
63017.66307228518,10841.0
63017.673075055114,10797.0
63017.68307782506,10794.0
63017.693080594996,10846.0
63017.70308336494,10809.0
63017.71308613488,10814.0
63017.72308890482,10791.0
63017.73309167476,10768.0
63017.743094444704,10817.0
63017.75309721464,10799.0
63017.763099984586,10793.0
63017.77310275452,10808.0
63017.78310552447,10777.0
63017.793108294405,10784.0
63017.80311106435,10775.0
63017.81311383429,10777.0
63017.82311660423,10807.0
63017.83311937417,10807.0
63017.84312214411,10828.0
63017.85312491406,10825.0
63017.863127683995,10803.0
63017.87313045394,10811.0
63017.88313322388,10815.0
63017.89313599382,10809.0
63017.90313876376,10823.0
63017.9131415337,10828.0
63017.92314430364,10826.0
63017.933147073585,10830.0
63017.94314984352,10841.0
63017.95315261347,10849.0
63017.963155383404,10878.0
63017.97315815335,10846.0
63017.983160923286,10887.0
63017.99316369323,10856.0
63018.00316646317,10853.0
63018.01316923311,10892.0
63018.02317200305,10892.0
63018.033174772994,10901.0
63018.04317754294,10905.0
63018.053180312876,10887.0
63018.06318308282,10898.0
63018.07318585276,10914.0
63018.0831886227,10906.0
63018.09319139264,10931.0
63018.103194162584,10936.0
63018.11319693252,10921.0
63018.123199702466,10930.0
63018.1332024724,10939.0
63018.14320524235,10937.0
63018.153208012285,10947.0
63018.16321078223,10976.0
63018.17321355217,10984.0
63018.18321632211,10975.0
63018.19321909205,10973.0
63018.20322186199,10981.0
63018.21322463193,10963.0
63018.223227401875,11031.0
63018.23323017181,11019.0
63018.24323294176,11009.0
63018.2532357117,10999.0
63018.26323848164,11000.0
63018.27324125158,11046.0
63018.28324402152,11038.0
63018.293246791465,11026.0
63018.3032495614,11049.0
63018.31325233135,11055.0
63018.323255101284,11058.0
63018.33325787123,11060.0
63018.343260641166,11057.0
63018.35326341111,11052.0
63018.36326618105,11088.0
63018.37326895099,11079.0
63018.38327172093,11112.0
63018.393274490874,11097.0
63018.40327726081,11121.0
63018.413280030756,11143.0
63018.42328280069,11147.0
63018.43328557064,11124.0
63018.44328834058,11136.0
63018.45329111052,11110.0
63018.463293880464,11125.0
63018.4732966504,11094.0
63018.483299420346,11078.0
63018.49330219028,11050.0
63018.50330496023,11008.0
63018.513307730165,11015.0
63018.52331050011,10997.0
63018.53331327005,10995.0
63018.54331603999,10952.0
63018.55331880993,10927.0
63018.56332157987,10932.0
63018.57332434981,10919.0
63018.583327119755,10919.0
63018.59332988969,10934.0
63018.60333265964,10895.0
63018.613335429574,10879.0
63018.62333819952,10884.0
63018.63334096946,10896.0
63018.6433437394,10887.0
63018.653346509345,10883.0
63018.66334927928,10863.0
63018.67335204923,10893.0
63018.683354819164,10863.0
63018.69335758911,10858.0
63018.703360359046,10844.0
63018.71336312899,10891.0
63018.72336589893,10862.0
63018.73336866887,10900.0
63018.74337143881,10854.0
63018.753374208754,10910.0
63018.76337697869,10881.0
63018.773379748636,10874.0
63018.78338251857,10856.0
63018.79338528852,10866.0
63018.803388058455,10866.0
63018.8133908284,10870.0
63018.823393598344,10875.0
63018.83339636828,10841.0
63018.843399138226,10869.0
63018.85340190816,10877.0
63018.86340467811,10874.0
63018.873407448045,10858.0
63018.88341021799,10853.0
63018.89341298793,10875.0
63018.90341575787,10890.0
63018.91341852781,10870.0
63018.92342129775,10887.0
63018.93342406769,10885.0
63018.943426837635,10881.0
63018.95342960757,10918.0
63018.96343237752,10882.0
63018.973435147454,10911.0
63018.9834379174,10905.0
63018.993440687336,10930.0
63019.00344345728,10942.0
63019.01344622722,10933.0
63019.02344899716,10931.0
63019.03345176711,10945.0
63019.043454537044,10939.0
63019.05345730699,10949.0
63019.063460076926,10953.0
63019.07346284687,10969.0
63019.08346561681,10994.0
63019.09346838675,10970.0
63019.10347115669,10962.0
63019.113473926634,10988.0
63019.12347669657,10978.0
63019.133479466516,10999.0
63019.14348223645,11020.0
63019.1534850064,10988.0
63019.163487776335,11020.0
63019.17349054628,11019.0
63019.18349331622,11008.0
63019.19349608616,10991.0
63019.2034988561,11019.0
63019.21350162604,11030.0
63019.22350439599,11065.0
63019.233507165925,11041.0
63019.24350993587,11071.0
63019.25351270581,11066.0
63019.26351547575,11074.0
63019.27351824569,11073.0
63019.28352101563,11085.0
63019.29352378557,11080.0
63019.303526555515,11080.0
63019.31352932545,11072.0
63019.3235320954,11114.0
63019.333534865335,11112.0
63019.34353763528,11095.0
63019.353540405216,11119.0
63019.36354317516,11128.0
63019.3735459451,11140.0
63019.38354871504,11157.0
63019.39355148498,11144.0
63019.403554254925,11136.0
63019.41355702487,11143.0
63019.423559794806,11155.0
63019.43356256475,11189.0
63019.44356533469,11183.0
63019.45356810463,11199.0
63019.46357087457,11188.0
63019.473573644515,11213.0
63019.48357641445,11196.0
63019.4935791844,11189.0
63019.503581954334,11192.0
63019.51358472428,11189.0
63019.523587494215,11137.0
63019.53359026416,11129.0
63019.5435930341,11111.0
63019.55359580404,11084.0
63019.56359857398,11060.0
63019.573601343924,11045.0
63019.58360411386,11048.0
63019.593606883805,11037.0
63019.60360965374,11005.0
63019.61361242369,11005.0
63019.62361519363,10982.0
63019.63361796357,10976.0
63019.643620733514,10986.0
63019.65362350345,10981.0
63019.663626273395,11013.0
63019.67362904333,10986.0
63019.68363181328,10962.0
63019.693634583215,10972.0
63019.70363735316,10979.0
63019.7136401231,10973.0
63019.72364289304,10969.0
63019.73364566298,10967.0
63019.74364843292,10942.0
63019.75365120286,10990.0
63019.763653972805,10979.0
63019.77365674274,10969.0
63019.78365951269,10984.0
63019.793662282624,10993.0
63019.80366505257,10984.0
63019.81366782251,10968.0
63019.82367059245,10968.0
63019.833673362395,10973.0
63019.84367613233,10953.0
63019.85367890228,10971.0
63019.863681672214,10969.0
63019.87368444216,10960.0
63019.883687212096,10966.0
63019.89368998204,10972.0
63019.90369275198,10974.0
63019.91369552192,10975.0
63019.92369829186,10972.0
63019.933701061804,10964.0
63019.94370383174,10956.0
63019.953706601686,10963.0
63019.96370937162,10994.0
63019.97371214157,11006.0
63019.983714911505,11003.0
63019.99371768145,10991.0
63020.003720451394,11011.0
63020.01372322133,11026.0
63020.023725991276,11013.0
63020.03372876121,11004.0
63020.04373153116,11014.0
63020.053734301095,11001.0
63020.06373707104,11015.0
63020.07373984098,11060.0
63020.08374261092,11060.0
63020.09374538086,11071.0
63020.1037481508,11061.0
63020.11375092074,11094.0
63020.123753690685,11075.0
63020.13375646062,11076.0
63020.14375923057,11076.0
63020.153762000504,11094.0
63020.16376477045,11066.0
63020.173767540386,11115.0
63020.18377031033,11100.0
63020.193773080275,11123.0
63020.20377585021,11097.0
63020.21377862016,11124.0
63020.223781390094,11123.0
63020.23378416004,11136.0
63020.243786929976,11128.0
63020.25378969992,11135.0
63020.26379246986,11138.0
63020.2737952398,11123.0
63020.28379800974,11133.0
63020.293800779684,11178.0
63020.30380354962,11157.0
63020.313806319566,11178.0
63020.3238090895,11173.0
63020.33381185945,11188.0
63020.343814629385,11178.0
63020.35381739933,11192.0
63020.36382016927,11185.0
63020.37382293921,11175.0
63020.38382570915,11201.0
63020.39382847909,11224.0
63020.40383124904,11240.0
63020.413834018975,11214.0
63020.42383678892,11222.0
63020.43383955886,11241.0
63020.4438423288,11242.0
63020.45384509874,11241.0
63020.46384786868,11247.0
63020.47385063862,11211.0
63020.483853408565,11246.0
63020.4938561785,11225.0
63020.50385894845,11211.0
63020.513861718384,11210.0
63020.52386448833,11156.0
63020.533867258266,11159.0
63020.54387002821,11120.0
63020.55387279815,11102.0
63020.56387556809,11108.0
63020.57387833803,11061.0
63020.583881107974,11072.0
63020.59388387792,11039.0
63020.603886647856,11052.0
63020.6138894178,11072.0
63020.62389218774,11044.0
63020.63389495768,11029.0
63020.64389772762,11032.0
63020.653900497564,11022.0
63020.6639032675,11042.0
63020.673906037446,11037.0
63020.68390880738,11025.0
63020.69391157733,11035.0
63020.703914347265,11030.0
63020.71391711721,11060.0
63020.72391988715,11013.0
63020.73392265709,11040.0
63020.74392542703,11024.0
63020.75392819697,11027.0
63020.76393096691,11033.0
63020.773933736855,11044.0
63020.7839365068,11019.0
63020.79393927674,11027.0
63020.80394204668,11053.0
63020.81394481662,11001.0
63020.82394758656,11038.0
63020.8339503565,11016.0
63020.843953126445,10994.0
63020.85395589638,11015.0
63020.86395866633,11001.0
63020.873961436264,11000.0
63020.88396420621,11002.0
63020.893966976146,11005.0
63020.90396974609,11011.0
63020.91397251603,11017.0
63020.92397528597,10992.0
63020.93397805591,11019.0
63020.943980825854,11014.0
63020.95398359579,11026.0
63020.963986365736,11022.0
63020.97398913567,11022.0
63020.98399190562,11046.0
63020.99399467556,11042.0
63021.0039974455,11024.0
63021.014000215444,11054.0
63021.02400298538,11046.0
63021.034005755326,11058.0
63021.04400852526,11065.0
63021.05401129521,11052.0
63021.064014065145,11075.0
63021.07401683509,11076.0
63021.08401960503,11081.0
63021.09402237497,11094.0
63021.10402514491,11063.0
63021.11402791485,11096.0
63021.12403068479,11078.0
63021.134033454735,11098.0
63021.14403622467,11115.0
63021.15403899462,11113.0
63021.164041764554,11104.0
63021.1740445345,11118.0
63021.18404730444,11131.0
63021.19405007438,11113.0
63021.204052844325,11123.0
63021.21405561426,11109.0
63021.22405838421,11158.0
63021.234061154144,11140.0
63021.24406392409,11162.0
63021.254066694026,11150.0
63021.26406946397,11144.0
63021.27407223391,11158.0
63021.28407500385,11188.0
63021.29407777379,11162.0
63021.304080543734,11202.0
63021.31408331367,11180.0
63021.324086083616,11184.0
63021.33408885355,11188.0
63021.3440916235,11163.0
63021.354094393435,11169.0
63021.36409716338,11190.0
63021.374099933324,11140.0
63021.38410270326,11138.0
63021.394105473206,11090.0
63021.40410824314,11060.0
63021.41411101309,11047.0
63021.424113783025,11001.0
63021.43411655297,11031.0
63021.44411932291,11017.0
63021.45412209285,10977.0
63021.46412486279,10989.0
63021.47412763273,10984.0
63021.48413040267,10972.0
63021.494133172615,10994.0
63021.50413594255,10967.0
63021.5141387125,10976.0
63021.524141482434,10978.0
63021.53414425238,10952.0
63021.544147022316,10977.0
63021.55414979226,10938.0
63021.564152562205,10968.0
63021.57415533214,11003.0
63021.58415810209,10976.0
63021.594160872024,10976.0
63021.60416364197,10974.0
63021.614166411906,10969.0
63021.62416918185,10971.0
63021.63417195179,10962.0
63021.64417472173,10974.0
63021.65417749167,10990.0
63021.664180261614,10959.0
63021.67418303155,11011.0
63021.684185801496,10967.0
63021.69418857143,10960.0
63021.70419134138,10991.0
63021.714194111315,10957.0
63021.72419688126,10962.0
63021.7341996512,10964.0
63021.74420242114,10960.0
63021.75420519108,10950.0
63021.76420796102,10966.0
63021.77421073097,10961.0
63021.784213500905,11004.0
63021.79421627085,10991.0
63021.80421904079,11007.0
63021.81422181073,11002.0
63021.82422458067,11018.0
63021.83422735061,11017.0
63021.84423012055,11018.0
63021.854232890495,10989.0
63021.86423566043,10992.0
63021.87423843038,10999.0
63021.884241200314,11022.0
63021.89424397026,11028.0
63021.904246740196,11034.0
63021.91424951014,11025.0
63021.92425228008,11052.0
63021.93425505002,11040.0
63021.94425781996,11069.0
63021.954260589904,11054.0
63021.96426335985,11069.0
63021.974266129786,11080.0
63021.98426889973,11061.0
63021.99427166967,11082.0
63022.00427443961,11090.0
63022.01427720955,11093.0
63022.024279979494,11089.0
63022.03428274943,11088.0
63022.044285519376,11108.0
63022.05428828931,11125.0
63022.06429105926,11093.0
63022.074293829195,11125.0
63022.08429659914,11121.0
63022.09429936908,11120.0
63022.10430213902,11137.0
63022.11430490896,11126.0
63022.1243076789,11140.0
63022.13431044884,11169.0
63022.144313218785,11152.0
63022.15431598873,11168.0
63022.16431875867,11153.0
63022.17432152861,11138.0
63022.18432429855,11100.0
63022.19432706849,11077.0
63022.20432983843,11076.0
63022.214332608375,11025.0
63022.22433537831,10985.0
63022.23433814826,11028.0
63022.244340918194,10967.0
63022.25434368814,10979.0
63022.264346458076,10953.0
63022.27434922802,10932.0
63022.28435199796,10931.0
63022.2943547679,10915.0
63022.30435753784,10899.0
63022.314360307784,10906.0
63022.32436307772,10894.0
63022.334365847666,10891.0
63022.34436861761,10917.0
63022.35437138755,10899.0
63022.36437415749,10885.0
63022.37437692743,10882.0
63022.384379697374,10898.0
63022.39438246731,10885.0
63022.404385237256,10878.0
63022.41438800719,10897.0
63022.42439077714,10893.0
63022.434393547075,10886.0
63022.44439631702,10864.0
63022.45439908696,10890.0
63022.4644018569,10915.0
63022.47440462684,10914.0
63022.48440739678,10897.0
63022.49441016672,10906.0
63022.504412936665,10911.0
63022.5144157066,10903.0
63022.52441847655,10954.0
63022.534421246484,10938.0
63022.54442401643,10948.0
63022.55442678637,10932.0
63022.56442955631,10995.0
63022.574432326255,10988.0
63022.58443509619,11007.0
63022.59443786614,11023.0
63022.604440636074,11057.0
63022.61444340602,11076.0
63022.624446175956,11109.0
63022.6344489459,11153.0
63022.64445171584,11137.0
63022.65445448578,11194.0
63022.66445725572,11236.0
63022.674460025664,11230.0
63022.6844627956,11284.0
63022.694465565546,11289.0
63022.70446833548,11308.0
63022.71447110543,11365.0
63022.724473875365,11362.0
63022.73447664531,11408.0
63022.744479415254,11422.0
63022.75448218519,11469.0
63022.764484955136,11499.0
63022.77448772507,11508.0
63022.78449049502,11512.0
63022.794493264955,11565.0
63022.8044960349,11560.0
63022.81449880484,11584.0
63022.82450157478,11605.0
63022.83450434472,11650.0
63022.84450711466,11657.0
63022.8545098846,11682.0
63022.864512654545,11706.0
63022.87451542448,11744.0
63022.88451819443,11721.0
63022.894520964364,11761.0
63022.90452373431,11774.0
63022.914526504246,11788.0
63022.92452927419,11829.0
63022.934532044135,11830.0
63022.94453481407,11837.0
63022.95453758402,11864.0
63022.964540353954,11862.0
63022.9745431239,11893.0
63022.984545893836,11902.0
63022.99454866378,11950.0
63023.00455143372,11938.0
63023.01455420366,11959.0
63023.0245569736,11977.0
63023.034559743544,12007.0
63023.04456251348,11997.0
63023.054565283426,11989.0
63023.06456805336,11978.0
63023.07457082331,11947.0
63023.084573593245,11944.0
63023.09457636319,11935.0
63023.10457913313,11917.0
63023.11458190307,11919.0
63023.12458467301,11901.0
63023.13458744295,11886.0
63023.1445902129,11907.0
63023.154592982835,11892.0
63023.16459575278,11867.0
63023.17459852272,11878.0
63023.18460129266,11869.0
63023.1946040626,11903.0
63023.20460683254,11902.0
63023.21460960248,11889.0
63023.224612372425,11888.0
63023.23461514236,11899.0
63023.24461791231,11906.0
63023.254620682244,11907.0
63023.26462345219,11906.0
63023.274626222126,11932.0
63023.28462899207,11929.0
63023.29463176201,11917.0
63023.30463453195,11940.0
63023.31463730189,11925.0
63023.324640071834,11925.0
63023.33464284178,11945.0
63023.344645611716,11940.0
63023.35464838166,11942.0
63023.3646511516,11969.0
63023.37465392154,11968.0
63023.38465669148,11957.0
63023.394659461424,11963.0
63023.40466223136,11953.0
63023.414665001306,11960.0
63023.42466777124,11964.0
63023.43467054119,11967.0
63023.444673311125,11975.0
63023.45467608107,11982.0
63023.46467885101,11980.0
63023.47468162095,12001.0
63023.48468439089,11976.0
63023.49468716083,11993.0
63023.50468993077,12017.0
63023.514692700715,12046.0
63023.52469547066,12053.0
63023.5346982406,12063.0
63023.54470101054,12051.0
63023.55470378048,12067.0
63023.56470655042,12027.0
63023.57470932036,12074.0
63023.584712090305,12056.0
63023.59471486024,12067.0
63023.60471763019,12102.0
63023.614720400124,12084.0
63023.62472317007,12099.0
63023.634725940006,12131.0
63023.64472870995,12107.0
63023.65473147989,12144.0
63023.66473424983,12111.0
63023.67473701977,12126.0
63023.684739789715,12145.0
63023.69474255965,12120.0
63023.704745329596,12153.0
63023.71474809954,12173.0
63023.72475086948,12165.0
63023.73475363942,12179.0
63023.74475640936,12179.0
63023.754759179305,12162.0
63023.76476194924,12208.0
63023.774764719186,12194.0
63023.78476748912,12199.0
63023.79477025907,12206.0
63023.804773029005,12193.0
63023.81477579895,12212.0
63023.82477856889,12236.0
63023.83478133883,12256.0
63023.84478410877,12261.0
63023.854786878714,12249.0
63023.86478964865,12261.0
63023.874792418595,12266.0
63023.88479518853,12274.0
63023.89479795848,12306.0
63023.904800728415,12274.0
63023.91480349836,12279.0
63023.924806268304,12319.0
63023.93480903824,12277.0
63023.944811808185,12317.0
63023.95481457812,12343.0
63023.96481734807,12332.0
63023.974820118005,12359.0
63023.98482288795,12344.0
63023.99482565789,12347.0
63024.00482842783,12374.0
63024.01483119777,12340.0
63024.02483396771,12342.0
63024.03483673765,12333.0
63024.044839507595,12298.0
63024.05484227753,12295.0
63024.06484504748,12291.0
63024.074847817414,12206.0
63024.08485058736,12239.0
63024.094853357296,12186.0
63024.10485612724,12171.0
63024.114858897185,12182.0
63024.12486166712,12141.0
63024.13486443707,12184.0
63024.144867207004,12148.0
63024.15486997695,12132.0
63024.164872746886,12165.0
63024.17487551683,12121.0
63024.18487828677,12135.0
63024.19488105671,12139.0
63024.20488382665,12145.0
63024.214886596594,12176.0
63024.22488936653,12127.0
63024.234892136476,12136.0
63024.24489490641,12153.0
63024.25489767636,12114.0
63024.264900446295,12169.0
63024.27490321624,12154.0
63024.28490598618,12134.0
63024.29490875612,12193.0
63024.304911526066,12165.0
63024.314914296,12178.0
63024.32491706595,12179.0
63024.334919835885,12188.0
63024.34492260583,12192.0
63024.35492537577,12201.0
63024.36492814571,12208.0
63024.37493091565,12198.0
63024.38493368559,12180.0
63024.39493645553,12210.0
63024.404939225475,12251.0
63024.41494199541,12211.0
63024.42494476536,12249.0
63024.434947535294,12230.0
63024.44495030524,12231.0
63024.454953075176,12259.0
63024.46495584512,12217.0
63024.47495861506,12266.0
63024.484961385,12246.0
63024.49496415494,12268.0
63024.504966924884,12314.0
63024.51496969483,12290.0
63024.524972464766,12287.0
63024.53497523471,12291.0
63024.54497800465,12303.0
63024.55498077459,12304.0
63024.56498354453,12318.0
63024.574986314474,12323.0
63024.58498908441,12287.0
63024.594991854356,12281.0
63024.60499462429,12273.0
63024.61499739424,12312.0
63024.625000164175,12269.0
63024.63500293412,12273.0
63024.64500570406,12271.0
63024.655008474,12254.0
63024.66501124394,12279.0
63024.67501401388,12238.0
63024.68501678382,12230.0
63024.695019553765,12197.0
63024.70502232371,12205.0
63024.71502509365,12196.0
63024.72502786359,12210.0
63024.73503063353,12166.0
63024.74503340347,12173.0
63024.75503617341,12145.0
63024.765038943355,12144.0
63024.77504171329,12116.0
63024.78504448324,12111.0
63024.795047253174,12098.0
63024.80505002312,12079.0
63024.815052793056,12063.0
63024.825055563,12088.0
63024.83505833294,12071.0
63024.84506110288,12066.0
63024.85506387282,12022.0
63024.865066642764,12040.0
63024.8750694127,12034.0
63024.885072182646,12019.0
63024.89507495259,12039.0
63024.90507772253,12001.0
63024.91508049247,12019.0
63024.92508326241,12014.0
63024.935086032354,11992.0
63024.94508880229,12002.0
63024.955091572236,11998.0
63024.96509434217,11979.0
63024.97509711212,12023.0
63024.985099882055,12002.0
63024.995102652,11990.0
63025.00510542194,11996.0
63025.01510819188,11963.0
63025.02511096182,11971.0
63025.03511373176,11919.0
63025.0451165017,11929.0
63025.055119271645,11916.0
63025.06512204158,11876.0
63025.07512481153,11866.0
63025.08512758147,11842.0
63025.09513035141,11801.0
63025.10513312135,11848.0
63025.11513589129,11818.0
63025.125138661235,11823.0
63025.13514143117,11841.0
63025.14514420112,11859.0
63025.155146971054,11874.0
63025.165149741,11866.0
63025.175152510936,11866.0
63025.18515528088,11883.0
63025.19515805082,11874.0
63025.20516082076,11879.0
63025.2151635907,11891.0
63025.225166360644,11914.0
63025.23516913058,11866.0
63025.245171900526,11903.0
63025.25517467046,11884.0
63025.26517744041,11913.0
63025.275180210345,11916.0
63025.28518298029,11918.0
63025.295185750234,11958.0
63025.30518852017,11922.0
63025.315191290116,11932.0
63025.32519406005,11945.0
63025.33519683,11933.0
63025.345199599935,11912.0
63025.35520236988,11918.0
63025.36520513982,11941.0
63025.37520790976,11937.0
63025.3852106797,11936.0
63025.39521344964,11969.0
63025.40521621958,11950.0
63025.415218989525,11958.0
63025.42522175946,11959.0
63025.43522452941,11977.0
63025.445227299344,11965.0
63025.45523006929,11950.0
63025.465232839226,11967.0
63025.47523560917,11952.0
63025.485238379115,11957.0
63025.49524114905,11942.0
63025.505243919,11968.0
63025.515246688934,11930.0
63025.52524945888,11941.0
63025.535252228816,11932.0
63025.54525499876,11894.0
63025.5552577687,11905.0
63025.56526053864,11895.0
63025.57526330858,11927.0
63025.585266078524,11863.0
63025.59526884846,11847.0
63025.605271618406,11844.0
63025.61527438834,11823.0
63025.62527715829,11827.0
63025.635279928225,11824.0
63025.64528269817,11800.0
63025.65528546811,11786.0
63025.66528823805,11752.0
63025.675291007996,11743.0
63025.68529377793,11763.0
63025.69529654788,11727.0
63025.705299317815,11746.0
63025.71530208776,11755.0
63025.7253048577,11734.0
63025.73530762764,11709.0
63025.74531039758,11718.0
63025.75531316752,11709.0
63025.76531593746,11712.0
63025.775318707405,11681.0
63025.78532147734,11704.0
63025.79532424729,11718.0
63025.805327017224,11695.0
63025.81532978717,11674.0
63025.825332557106,11662.0
63025.83533532705,11661.0
63025.84533809699,11664.0
63025.85534086693,11674.0
63025.86534363687,11595.0
63025.875346406814,11588.0
63025.88534917676,11554.0
63025.895351946696,11533.0
63025.90535471664,11506.0
63025.91535748658,11402.0
63025.92536025652,11394.0
63025.93536302646,11350.0
63025.945365796404,11319.0
63025.95536856634,11304.0
63025.965371336286,11234.0
63025.97537410622,11222.0
63025.98537687617,11169.0
63025.995379646105,11171.0
63026.00538241605,11126.0
63026.01538518599,11130.0
63026.02538795593,11103.0
63026.03539072587,11095.0
63026.04539349581,11077.0
63026.05539626575,11066.0
63026.065399035695,11054.0
63026.07540180564,11019.0
63026.08540457558,11038.0
63026.09540734552,11002.0
63026.10541011546,10995.0
63026.1154128854,10968.0
63026.12541565534,10965.0
63026.135418425285,10971.0
63026.14542119522,10961.0
63026.15542396517,10933.0
63026.165426735104,10947.0
63026.17542950505,10919.0
63026.185432274986,10911.0
63026.19543504493,10889.0
63026.20543781487,10889.0
63026.21544058481,10867.0
63026.22544335475,10863.0
63026.235446124694,10835.0
63026.24544889463,10865.0
63026.255451664576,10826.0
63026.26545443452,10821.0
63026.27545720446,10827.0
63026.2854599744,10811.0
63026.29546274434,10803.0
63026.305465514284,10823.0
63026.31546828422,10785.0
63026.325471054166,10795.0
63026.3354738241,10785.0
63026.34547659405,10782.0
63026.355479363985,10795.0
63026.36548213393,10777.0
63026.37548490387,10777.0
63026.38548767381,10780.0
63026.39549044375,10810.0
63026.40549321369,10791.0
63026.41549598363,10789.0
63026.425498753575,10786.0
63026.43550152351,10785.0
63026.44550429346,10756.0
63026.4555070634,10813.0
63026.46550983334,10785.0
63026.47551260328,10772.0
63026.48551537322,10788.0
63026.495518143165,10775.0
63026.5055209131,10795.0
63026.51552368305,10808.0
63026.525526452984,10808.0
63026.53552922293,10779.0
63026.545531992866,10768.0
63026.55553476281,10812.0
63026.56553753275,10805.0
63026.57554030269,10792.0
63026.58554307263,10829.0
63026.595545842574,10779.0
63026.60554861251,10792.0
63026.615551382456,10801.0
63026.62555415239,10811.0
63026.63555692234,10801.0
63026.645559692275,10775.0
63026.65556246222,10803.0
63026.665565232164,10800.0
63026.6755680021,10811.0
63026.685570772046,10840.0
63026.69557354198,10818.0
63026.70557631193,10808.0
63026.715579081865,10845.0
63026.72558185181,10812.0
63026.73558462175,10835.0
63026.74558739169,10818.0
63026.75559016163,10800.0
63026.76559293157,10778.0
63026.77559570151,10757.0
63026.785598471455,10744.0
63026.79560124139,10719.0
63026.80560401134,10631.0
63026.815606781274,10622.0
63026.82560955122,10610.0
63026.835612321156,10548.0
63026.8456150911,10576.0
63026.855617861045,10518.0
63026.86562063098,10501.0
63026.87562340093,10472.0
63026.885626170864,10448.0
63026.89562894081,10456.0
63026.905631710746,10437.0
63026.91563448069,10423.0
63026.92563725063,10415.0
63026.93564002057,10389.0
63026.94564279051,10408.0
63026.955645560454,10395.0
63026.96564833039,10342.0
63026.975651100336,10353.0
63026.98565387027,10376.0
63026.99565664022,10359.0
63027.005659410155,10381.0
63027.0156621801,10340.0
63027.02566495004,10362.0
63027.03566771998,10354.0
63027.045670489926,10341.0
63027.05567325986,10370.0
63027.06567602981,10344.0
63027.075678799745,10324.0
63027.08568156969,10346.0
63027.09568433963,10335.0
63027.10568710957,10335.0
63027.11568987951,10352.0
63027.12569264945,10297.0
63027.13569541939,10348.0
63027.145698189335,10331.0
63027.15570095927,10297.0
63027.16570372922,10334.0
63027.175706499154,10299.0
63027.1857092691,10315.0
63027.195712039036,10329.0
63027.20571480898,10328.0
63027.21571757892,10344.0
63027.22572034886,10343.0
63027.23572311881,10319.0
63027.245725888744,10358.0
63027.25572865869,10317.0
63027.265731428626,10364.0
63027.27573419857,10388.0
63027.28573696851,10343.0
63027.29573973845,10390.0
63027.30574250839,10380.0
63027.315745278334,10377.0
63027.32574804827,10377.0
63027.335750818216,10397.0
63027.34575358815,10401.0
63027.3557563581,10414.0
63027.365759128035,10391.0
63027.37576189798,10426.0
63027.38576466792,10458.0
63027.39576743786,10413.0
63027.4057702078,10423.0
63027.41577297774,10443.0
63027.42577574768,10453.0
63027.435778517625,10477.0
63027.44578128757,10449.0
63027.45578405751,10514.0
63027.46578682745,10481.0
63027.47578959739,10493.0
63027.48579236733,10527.0
63027.49579513727,10493.0
63027.505797907215,10513.0
63027.51580067715,10519.0
63027.5258034471,10521.0
63027.535806217034,10556.0
63027.54580898698,10554.0
63027.555811756916,10536.0
63027.56581452686,10584.0
63027.5758172968,10571.0
63027.58582006674,10585.0
63027.59582283668,10609.0
63027.605825606624,10581.0
63027.61582837656,10634.0
63027.625831146506,10602.0
63027.63583391645,10653.0
63027.64583668639,10641.0
63027.65583945633,10642.0
63027.66584222627,10674.0
63027.675844996214,10671.0
63027.68584776615,10671.0
63027.695850536096,10677.0
63027.70585330603,10690.0
63027.71585607598,10693.0
63027.725858845915,10728.0
63027.73586161586,10684.0
63027.7458643858,10689.0
63027.75586715574,10692.0
63027.76586992568,10701.0
63027.77587269562,10698.0
63027.78587546556,10673.0
63027.795878235505,10666.0
63027.80588100544,10675.0
63027.81588377539,10662.0
63027.82588654533,10686.0
63027.83588931527,10689.0
63027.84589208521,10700.0
63027.85589485515,10688.0
63027.865897625095,10712.0
63027.87590039503,10752.0
63027.88590316498,10806.0
63027.895905934914,10793.0
63027.90590870486,10830.0
63027.915911474796,10824.0
63027.92591424474,10866.0
63027.93591701468,10893.0
63027.94591978462,10928.0
63027.95592255456,10918.0
63027.965925324504,10922.0
63027.97592809444,10947.0
63027.985930864386,11008.0
63027.99593363432,11015.0
63028.00593640427,11029.0
63028.015939174205,11066.0
63028.02594194415,11080.0
63028.035944714095,11094.0
63028.04594748403,11126.0
63028.055950253976,11153.0
63028.06595302391,11143.0
63028.07595579386,11180.0
63028.085958563795,11182.0
63028.09596133374,11232.0
63028.10596410368,11240.0
63028.11596687362,11262.0
63028.12596964356,11279.0
63028.1359724135,11295.0
63028.14597518344,11326.0
63028.155977953385,11328.0
63028.16598072332,11353.0
63028.17598349327,11345.0
63028.185986263205,11376.0
63028.19598903315,11416.0
63028.20599180309,11464.0
63028.21599457303,11466.0
63028.225997342975,11479.0
63028.23600011291,11497.0
63028.24600288286,11519.0
63028.256005652795,11539.0
63028.26600842274,11583.0
63028.27601119268,11584.0
63028.28601396262,11614.0
63028.29601673256,11606.0
63028.3060195025,11659.0
63028.31602227244,11646.0
63028.326025042385,11694.0
63028.33602781232,11669.0
63028.34603058227,11694.0
63028.356033352204,11730.0
63028.36603612215,11745.0
63028.376038892085,11752.0
63028.38604166203,11760.0
63028.39604443197,11780.0
63028.40604720191,11784.0
63028.41604997186,11828.0
63028.426052741794,11807.0
63028.43605551174,11826.0
63028.446058281676,11825.0
63028.45606105162,11817.0
63028.46606382156,11852.0
63028.4760665915,11846.0
63028.48606936144,11836.0
63028.496072131384,11873.0
63028.50607490132,11875.0
63028.516077671266,11874.0
63028.5260804412,11870.0
63028.53608321115,11872.0
63028.546085981085,11887.0
63028.55608875103,11886.0
63028.56609152097,11844.0
63028.57609429091,11867.0
63028.58609706085,11866.0
63028.59609983079,11829.0
63028.60610260074,11841.0
63028.616105370675,11820.0
63028.62610814062,11844.0
63028.63611091056,11872.0
63028.6461136805,11847.0
63028.65611645044,11817.0
63028.66611922038,11827.0
63028.67612199032,11824.0
63028.686124760265,11831.0
63028.6961275302,11809.0
63028.70613030015,11844.0
63028.716133070084,11754.0
63028.72613584003,11769.0
63028.736138609966,11773.0
63028.74614137991,11725.0
63028.75614414985,11694.0
63028.76614691979,11700.0
63028.77614968973,11737.0
63028.786152459674,11689.0
63028.79615522961,11659.0
63028.806157999556,11656.0
63028.8161607695,11678.0
63028.82616353944,11646.0
63028.83616630938,11602.0
63028.84616907932,11619.0
63028.856171849264,11624.0
63028.8661746192,11594.0
63028.876177389146,11616.0
63028.88618015908,11613.0
63028.89618292903,11616.0
63028.906185698965,11587.0
63028.91618846891,11627.0
63028.92619123885,11589.0
63028.93619400879,11570.0
63028.94619677873,11615.0
63028.95619954867,11606.0
63028.96620231861,11582.0
63028.976205088555,11595.0
63028.98620785849,11590.0
63028.99621062844,11584.0
63029.00621339838,11566.0
63029.01621616832,11566.0
63029.02621893826,11567.0
63029.0362217082,11547.0
63029.046224478145,11560.0
63029.05622724808,11594.0
63029.06623001803,11539.0
63029.076232787964,11554.0
63029.08623555791,11545.0
63029.096238327846,11537.0
63029.10624109779,11556.0
63029.11624386773,11545.0
63029.12624663767,11551.0
63029.13624940761,11554.0
63029.146252177554,11517.0
63029.15625494749,11520.0
63029.166257717436,11540.0
63029.17626048737,11560.0
63029.18626325732,11558.0
63029.19626602726,11571.0
63029.2062687972,11557.0
63029.216271567144,11557.0
63029.22627433708,11549.0
63029.236277107026,11553.0
63029.24627987696,11552.0
63029.25628264691,11548.0
63029.266285416845,11584.0
63029.27628818679,11590.0
63029.28629095673,11565.0
63029.29629372667,11571.0
63029.30629649661,11593.0
63029.31629926655,11550.0
63029.32630203649,11566.0
63029.336304806435,11582.0
63029.34630757637,11557.0
63029.35631034632,11575.0
63029.366313116254,11551.0
63029.3763158862,11615.0
63029.386318656136,11572.0
63029.39632142608,11576.0
63029.406324196025,11591.0
63029.41632696596,11594.0
63029.42632973591,11600.0
63029.436332505844,11589.0
63029.44633527579,11582.0
63029.456338045726,11606.0
63029.46634081567,11607.0
63029.47634358561,11597.0
63029.48634635555,11592.0
63029.49634912549,11614.0
63029.506351895434,11621.0
63029.51635466537,11638.0
63029.526357435316,11603.0
63029.53636020525,11638.0
63029.5463629752,11637.0
63029.556365745135,11618.0
63029.56636851508,11639.0
63029.57637128502,11640.0
63029.58637405496,11649.0
63029.596376824906,11673.0
63029.60637959484,11630.0
63029.61638236479,11639.0
63029.626385134725,11660.0
63029.63638790467,11619.0
63029.64639067461,11629.0
63029.65639344455,11596.0
63029.66639621449,11560.0
63029.67639898443,11579.0
63029.68640175437,11559.0
63029.696404524315,11526.0
63029.70640729425,11549.0
63029.7164100642,11507.0
63029.726412834134,11510.0
63029.73641560408,11484.0
63029.746418374016,11474.0
63029.75642114396,11484.0
63029.7664239139,11463.0
63029.77642668384,11455.0
63029.78642945379,11472.0
63029.796432223724,11468.0
63029.80643499367,11470.0
63029.816437763606,11428.0
63029.82644053355,11413.0
63029.83644330349,11444.0
63029.84644607343,11447.0
63029.85644884337,11420.0
63029.866451613314,11428.0
63029.87645438325,11433.0
63029.886457153196,11430.0
63029.89645992313,11427.0
63029.90646269308,11431.0
63029.916465463015,11430.0
63029.92646823296,11375.0
63029.9364710029,11396.0
63029.94647377284,11417.0
63029.95647654278,11397.0
63029.96647931272,11371.0
63029.97648208267,11382.0
63029.986484852605,11399.0
63029.99648762255,11365.0
63030.00649039249,11386.0
63030.01649316243,11376.0
63030.02649593237,11369.0
63030.03649870231,11376.0
63030.04650147225,11366.0
63030.056504242195,11367.0
63030.06650701213,11374.0
63030.07650978208,11376.0
63030.086512552014,11379.0
63030.09651532196,11374.0
63030.106518091896,11378.0
63030.11652086184,11375.0
63030.12652363178,11361.0
63030.13652640172,11378.0
63030.14652917166,11361.0
63030.156531941604,11405.0
63030.16653471154,11406.0
63030.176537481486,11426.0
63030.18654025143,11377.0
63030.19654302137,11428.0
63030.20654579131,11385.0
63030.21654856125,11399.0
63030.226551331194,11421.0
63030.23655410113,11405.0
63030.246556871076,11417.0
63030.25655964101,11399.0
63030.26656241096,11448.0
63030.276565180895,11447.0
63030.28656795084,11414.0
63030.29657072078,11442.0
63030.30657349072,11436.0
63030.31657626066,11412.0
63030.3265790306,11453.0
63030.33658180054,11422.0
63030.346584570485,11444.0
63030.35658734042,11434.0
63030.36659011037,11433.0
63030.37659288031,11444.0
63030.38659565025,11455.0
63030.39659842019,11451.0
63030.40660119013,11474.0
63030.416603960075,11459.0
63030.42660673001,11461.0
63030.43660949996,11478.0
63030.446612269894,11469.0
63030.45661503984,11477.0
63030.466617809776,11490.0
63030.47662057972,11491.0
63030.48662334966,11510.0
63030.4966261196,11500.0
63030.50662888954,11502.0
63030.516631659484,11534.0
63030.52663442942,11490.0
63030.536637199366,11550.0
63030.5466399693,11529.0
63030.55664273925,11518.0
63030.56664550919,11542.0
63030.57664827913,11544.0
63030.586651049074,11533.0
63030.59665381901,11560.0
63030.606656588956,11518.0
63030.61665935889,11537.0
63030.62666212884,11520.0
63030.636664898775,11489.0
63030.64666766872,11479.0
63030.65667043866,11443.0
63030.6666732086,11432.0
63030.67667597854,11400.0
63030.68667874848,11380.0
63030.69668151842,11397.0
63030.706684288365,11337.0
63030.7166870583,11335.0
63030.72668982825,11327.0
63030.736692598184,11285.0
63030.74669536813,11293.0
63030.756698138066,11287.0
63030.76670090801,11251.0
63030.776703677955,11260.0
63030.78670644789,11241.0
63030.79670921784,11228.0
63030.806711987774,11198.0
63030.81671475772,11217.0
63030.826717527656,11209.0
63030.8367202976,11202.0
63030.84672306754,11170.0
63030.85672583748,11211.0
63030.86672860742,11179.0
63030.876731377364,11152.0
63030.8867341473,11170.0
63030.896736917246,11149.0
63030.90673968718,11156.0
63030.91674245713,11158.0
63030.926745227065,11150.0
63030.93674799701,11161.0
63030.94675076695,11126.0
63030.95675353689,11104.0
63030.966756306836,11103.0
63030.97675907677,11087.0
63030.98676184672,11098.0
63030.996764616655,11107.0
63031.0067673866,11073.0
63031.01677015654,11087.0
63031.02677292648,11079.0
63031.03677569642,11065.0
63031.04677846636,11088.0
63031.0567812363,11064.0
63031.066784006245,11071.0
63031.07678677618,11084.0
63031.08678954613,11061.0
63031.096792316064,11058.0
63031.10679508601,11044.0
63031.116797855946,11075.0
63031.12680062589,11103.0
63031.13680339583,11057.0
63031.14680616577,11077.0
63031.15680893572,11063.0
63031.166811705654,11062.0
63031.1768144756,11099.0
63031.186817245536,11089.0
63031.19682001548,11094.0
63031.20682278542,11066.0
63031.21682555536,11069.0
63031.2268283253,11099.0
63031.236831095244,11083.0
63031.24683386518,11079.0
63031.256836635126,11107.0
63031.26683940506,11073.0
63031.27684217501,11083.0
63031.286844944945,11098.0
63031.29684771489,11087.0
63031.30685048483,11109.0
63031.31685325477,11094.0
63031.32685602471,11099.0
63031.33685879465,11129.0
63031.3468615646,11071.0
63031.356864334535,11107.0
63031.36686710448,11119.0
63031.37686987442,11115.0
63031.38687264436,11107.0
63031.3968754143,11118.0
63031.40687818424,11088.0
63031.41688095418,11115.0
63031.426883724125,11107.0
63031.43688649406,11130.0
63031.44688926401,11121.0
63031.456892033944,11128.0
63031.46689480389,11151.0
63031.476897573826,11143.0
63031.48690034377,11145.0
63031.49690311371,11156.0
63031.50690588365,11179.0
63031.51690865359,11161.0
63031.526911423534,11186.0
63031.53691419347,11144.0
63031.546916963416,11204.0
63031.55691973336,11172.0
63031.5669225033,11179.0
63031.57692527324,11213.0
63031.58692804318,11207.0
63031.596930813124,11189.0
63031.60693358306,11188.0
63031.616936353006,11184.0
63031.62693912294,11165.0
63031.63694189289,11088.0
63031.646944662825,11092.0
63031.65694743277,11085.0
63031.66695020271,11037.0
63031.67695297265,10992.0
63031.68695574259,10973.0
63031.69695851253,10960.0
63031.70696128247,10904.0
63031.716964052415,10897.0
63031.72696682235,10869.0
63031.7369695923,10876.0
63031.74697236224,10825.0
63031.75697513218,10829.0
63031.76697790212,10845.0
63031.77698067206,10779.0
63031.786983442005,10811.0
63031.79698621194,10781.0
63031.80698898189,10804.0
63031.816991751824,10752.0
63031.82699452177,10771.0
63031.836997291706,10758.0
63031.84700006165,10748.0
63031.85700283159,10744.0
63031.86700560153,10769.0
63031.87700837147,10740.0
63031.887011141414,10723.0
63031.89701391135,10704.0
63031.907016681296,10747.0
63031.91701945123,10712.0
63031.92702222118,10705.0
63031.93702499112,10675.0
63031.94702776106,10676.0
63031.957030531004,10676.0
63031.96703330094,10718.0
63031.977036070886,10711.0
63031.98703884082,10664.0
63031.99704161077,10664.0
63032.007044380705,10680.0
63032.01704715065,10650.0
63032.02704992059,10668.0
63032.03705269053,10643.0
63032.04705546047,10669.0
63032.05705823041,10675.0
63032.06706100035,10648.0
63032.077063770295,10690.0
63032.08706654023,10674.0
63032.09706931018,10667.0
63032.107072080114,10657.0
63032.11707485006,10702.0
63032.127077619996,10684.0
63032.13708038994,10693.0
63032.147083159885,10670.0
63032.15708592982,10694.0
63032.16708869977,10686.0
63032.177091469704,10700.0
63032.18709423965,10730.0
63032.197097009586,10722.0
63032.20709977953,10710.0
63032.21710254947,10745.0
63032.22710531941,10731.0
63032.23710808935,10749.0
63032.247110859294,10730.0
63032.25711362923,10716.0
63032.267116399176,10729.0
63032.27711916911,10732.0
63032.28712193906,10752.0
63032.297124708995,10771.0
63032.30712747894,10757.0
63032.31713024888,10755.0
63032.32713301882,10765.0
63032.337135788766,10764.0
63032.3471385587,10762.0
63032.35714132865,10761.0
63032.367144098585,10790.0
63032.37714686853,10806.0
63032.38714963847,10772.0
63032.39715240841,10791.0
63032.40715517835,10816.0
63032.41715794829,10818.0
63032.42716071823,10809.0
63032.437163488175,10818.0
63032.44716625811,10832.0
63032.45716902806,10856.0
63032.467171797995,10825.0
63032.47717456794,10851.0
63032.487177337876,10855.0
63032.49718010782,10850.0
63032.50718287776,10890.0
63032.5171856477,10867.0
63032.52718841765,10843.0
63032.537191187585,10806.0
63032.54719395753,10786.0
63032.55719672747,10765.0
63032.56719949741,10757.0
63032.57720226735,10722.0
63032.58720503729,10690.0
63032.59720780723,10645.0
63032.607210577175,10633.0
63032.61721334711,10619.0
63032.62721611706,10556.0
63032.637218886994,10571.0
63032.64722165694,10549.0
63032.657224426875,10521.0
63032.66722719682,10543.0
63032.67722996676,10537.0
63032.6872327367,10514.0
63032.69723550664,10498.0
63032.707238276584,10499.0
63032.71724104653,10539.0
63032.727243816465,10512.0
63032.73724658641,10538.0
63032.74724935635,10523.0
63032.75725212629,10568.0
63032.76725489623,10577.0
63032.777257666174,10594.0
63032.78726043611,10624.0
63032.797263206056,10685.0
63032.80726597599,10684.0
63032.81726874594,10721.0
63032.827271515875,10729.0
63032.83727428582,10794.0
63032.84727705576,10831.0
63032.8572798257,10848.0
63032.86728259564,10863.0
63032.87728536558,10888.0
63032.88728813552,10925.0
63032.897290905465,10942.0
63032.9072936754,10997.0
63032.91729644535,10998.0
63032.92729921529,10991.0
63032.93730198523,11028.0
63032.94730475517,11073.0
63032.95730752511,11059.0
63032.967310295055,11155.0
63032.97731306499,11133.0
63032.98731583494,11158.0
63032.997318604874,11202.0
63033.00732137482,11234.0
63033.017324144756,11252.0
63033.0273269147,11289.0
63033.03732968464,11310.0
63033.04733245458,11332.0
63033.05733522452,11380.0
63033.067337994464,11397.0
63033.0773407644,11420.0
63033.087343534346,11448.0
63033.09734630428,11455.0
63033.10734907423,11514.0
63033.11735184417,11483.0
63033.12735461411,11555.0
63033.137357384054,11547.0
63033.14736015399,11551.0
63033.157362923936,11577.0
63033.16736569387,11625.0
63033.17736846382,11625.0
63033.187371233755,11655.0
63033.1973740037,11646.0
63033.20737677364,11669.0
63033.21737954358,11673.0
63033.22738231352,11654.0
63033.23738508346,11714.0
63033.2473878534,11686.0
63033.257390623345,11687.0
63033.26739339328,11696.0
63033.27739616323,11666.0
63033.287398933164,11704.0
63033.29740170311,11687.0
63033.30740447305,11688.0
63033.31740724299,11685.0
63033.327410012935,11645.0
63033.33741278287,11676.0
63033.34741555282,11653.0
63033.357418322754,11623.0
63033.3674210927,11649.0
63033.377423862636,11626.0
63033.38742663258,11648.0
63033.39742940252,11649.0
63033.40743217246,11601.0
63033.4174349424,11611.0
63033.427437712344,11630.0
63033.43744048228,11587.0
63033.447443252226,11586.0
63033.45744602216,11583.0
63033.46744879211,11570.0
63033.477451562045,11599.0
63033.48745433199,11553.0
63033.49745710193,11561.0
63033.50745987187,11557.0
63033.517462641816,11490.0
63033.52746541175,11497.0
63033.5374681817,11420.0
63033.547470951635,11379.0
63033.55747372158,11348.0
63033.56747649152,11298.0
63033.57747926146,11254.0
63033.5874820314,11221.0
63033.59748480134,11173.0
63033.60748757128,11189.0
63033.617490341225,11149.0
63033.62749311116,11092.0
63033.63749588111,11119.0
63033.647498651044,11065.0
63033.65750142099,11051.0
63033.667504190926,11037.0
63033.67750696087,11036.0
63033.68750973081,11025.0
63033.69751250075,10966.0
63033.7075152707,10989.0
63033.717518040634,10992.0
63033.72752081058,10924.0
63033.737523580516,10950.0
63033.74752635046,10933.0
63033.7575291204,10914.0
63033.76753189034,10898.0
63033.77753466028,10908.0
63033.787537430224,10892.0
63033.79754020016,10900.0
63033.807542970106,10859.0
63033.81754574004,10880.0
63033.82754850999,10871.0
63033.837551279925,10835.0
63033.84755404987,10862.0
63033.85755681981,10845.0
63033.86755958975,10818.0
63033.87756235969,10813.0
63033.88756512963,10808.0
63033.89756789958,10834.0
63033.907570669515,10799.0
63033.91757343946,10786.0
63033.9275762094,10783.0
63033.93757897934,10779.0
63033.94758174928,10792.0
63033.95758451922,10804.0
63033.96758728916,10794.0
63033.977590059105,10793.0
63033.98759282904,10781.0
63033.99759559899,10777.0
63034.007598368924,10786.0
63034.01760113887,10782.0
63034.027603908806,10830.0
63034.03760667875,10808.0
63034.04760944869,10775.0
63034.05761221863,10775.0
63034.06761498857,10795.0
63034.077617758514,10813.0
63034.08762052846,10796.0
63034.097623298396,10803.0
63034.10762606834,10811.0
63034.11762883828,10817.0
63034.12763160822,10794.0
63034.13763437816,10788.0
63034.147637148104,10817.0
63034.15763991804,10817.0
63034.167642687986,10813.0
63034.17764545792,10847.0
63034.18764822787,10832.0
63034.197650997805,10835.0
63034.20765376775,10833.0
63034.21765653769,10854.0
63034.22765930763,10845.0
63034.23766207757,10849.0
63034.24766484751,10836.0
63034.25766761745,10856.0
63034.267670387395,10854.0
63034.27767315733,10857.0
63034.28767592728,10913.0
63034.29767869722,10865.0
63034.30768146716,10882.0
63034.3176842371,10875.0
63034.32768700704,10894.0
63034.337689776985,10916.0
63034.34769254692,10900.0
63034.35769531687,10887.0
63034.367698086804,10933.0
63034.37770085675,10895.0
63034.387703626686,10915.0
63034.39770639663,10919.0
63034.40770916657,10948.0
63034.41771193651,10933.0
63034.42771470645,10939.0
63034.437717476394,10940.0
63034.44772024633,10951.0
63034.457723016276,10950.0
63034.46772578621,10968.0
63034.47772855616,10967.0
63034.4877313261,10953.0
63034.49773409604,11004.0
63034.507736865984,10968.0
63034.51773963592,10966.0
63034.527742405866,10940.0
63034.5377451758,10892.0
63034.54774794575,10878.0
63034.557750715685,10869.0
63034.56775348563,10836.0
63034.57775625557,10791.0
63034.58775902551,10754.0
63034.59776179545,10764.0
63034.60776456539,10767.0
63034.61776733533,10704.0
63034.627770105275,10710.0
63034.63777287521,10692.0
63034.64777564516,10683.0
63034.657778415094,10684.0
63034.66778118504,10670.0
63034.67778395498,10664.0
63034.68778672492,10660.0
63034.697789494865,10619.0
63034.7077922648,10650.0
63034.71779503475,10643.0
63034.727797804684,10634.0
63034.73780057463,10666.0
63034.747803344566,10604.0
63034.75780611451,10623.0
63034.76780888445,10623.0
63034.77781165439,10598.0
63034.78781442433,10640.0
63034.797817194274,10618.0
63034.80781996421,10630.0
63034.817822734156,10651.0
63034.82782550409,10658.0
63034.83782827404,10614.0
63034.847831043975,10628.0
63034.85783381392,10593.0
63034.86783658386,10617.0
63034.8778393538,10601.0
63034.887842123746,10600.0
63034.89784489368,10606.0
63034.90784766363,10596.0
63034.917850433565,10598.0
63034.92785320351,10581.0
63034.93785597345,10595.0
63034.94785874339,10614.0
63034.95786151333,10604.0
63034.96786428327,10618.0
63034.97786705321,10631.0
63034.987869823155,10617.0
63034.99787259309,10635.0
63035.00787536304,10649.0
63035.017878132974,10623.0
63035.02788090292,10635.0
63035.037883672856,10658.0
63035.0478864428,10674.0
63035.05788921274,10643.0
63035.06789198268,10667.0
63035.07789475263,10681.0
63035.087897522564,10654.0
63035.09790029251,10675.0
63035.107903062446,10696.0
63035.11790583239,10700.0
63035.12790860233,10725.0
63035.13791137227,10708.0
63035.14791414221,10753.0
63035.157916912154,10719.0
63035.16791968209,10726.0
63035.177922452036,10747.0
63035.18792522197,10762.0
63035.19792799192,10754.0
63035.207930761855,10733.0
63035.2179335318,10774.0
63035.22793630174,10761.0
63035.23793907168,10775.0
63035.24794184162,10795.0
63035.25794461156,10796.0
63035.26794738151,10804.0
63035.277950151445,10805.0
63035.28795292139,10798.0
63035.29795569133,10814.0
63035.30795846127,10813.0
63035.31796123121,10840.0
63035.32796400115,10820.0
63035.33796677109,10847.0
63035.347969541035,10834.0
63035.35797231097,10870.0
63035.36797508092,10860.0
63035.377977850854,10866.0
63035.3879806208,10904.0
63035.397983390736,10889.0
63035.40798616068,10903.0
63035.41798893062,10942.0
63035.42799170056,10899.0
63035.4379944705,10919.0
63035.447997240444,10938.0
63035.45800001039,10924.0
63035.468002780326,10958.0
63035.47800555027,10965.0
63035.48800832021,10934.0
63035.49801109015,10944.0
63035.50801386009,10895.0
63035.518016630034,10889.0
63035.52801939997,10864.0
63035.538022169916,10834.0
63035.54802493985,10787.0
63035.5580277098,10812.0
63035.568030479735,10782.0
63035.57803324968,10780.0
63035.58803601962,10749.0
63035.59803878956,10740.0
63035.6080415595,10727.0
63035.61804432944,10691.0
63035.62804709938,10699.0
63035.638049869325,10691.0
63035.64805263926,10703.0
63035.65805540921,10711.0
63035.66805817915,10667.0
63035.67806094909,10682.0
63035.68806371903,10686.0
63035.69806648897,10683.0
63035.708069258915,10705.0
63035.71807202885,10706.0
63035.7280747988,10690.0
63035.738077568734,10672.0
63035.74808033868,10672.0
63035.758083108616,10641.0
63035.76808587856,10687.0
63035.7780886485,10672.0
63035.78809141844,10702.0
63035.79809418838,10713.0
63035.808096958324,10702.0
63035.81809972826,10695.0
63035.828102498206,10696.0
63035.83810526814,10675.0
63035.84810803809,10696.0
63035.85811080803,10703.0
63035.86811357797,10672.0
63035.878116347914,10690.0
63035.88811911785,10673.0
63035.898121887796,10717.0
63035.90812465773,10715.0
63035.91812742768,10680.0
63035.928130197615,10704.0
63035.93813296756,10702.0
63035.9481357375,10687.0
63035.95813850744,10702.0
63035.96814127738,10716.0
63035.97814404732,10728.0
63035.98814681726,10754.0
63035.998149587205,10721.0
63036.00815235714,10734.0
63036.01815512709,10749.0
63036.028157897024,10745.0
63036.03816066697,10782.0
63036.04816343691,10763.0
63036.05816620685,10751.0
63036.068168976795,10770.0
63036.07817174673,10814.0
63036.08817451668,10788.0
63036.098177286614,10790.0
63036.10818005656,10797.0
63036.118182826496,10819.0
63036.12818559644,10821.0
63036.13818836638,10804.0
63036.14819113632,10835.0
63036.15819390626,10816.0
63036.168196676204,10839.0
63036.17819944614,10866.0
63036.188202216086,10847.0
63036.19820498602,10867.0
63036.20820775597,10869.0
63036.218210525905,10846.0
63036.22821329585,10903.0
63036.23821606579,10869.0
63036.24821883573,10887.0
63036.258221605676,10900.0
63036.26822437561,10899.0
63036.27822714556,10922.0
63036.288229915495,10887.0
63036.29823268544,10907.0
63036.30823545538,10920.0
63036.31823822532,10916.0
63036.32824099526,10961.0
63036.3382437652,10962.0
63036.34824653514,10934.0
63036.358249305085,10952.0
63036.36825207502,10906.0
63036.37825484497,10888.0
63036.388257614904,10892.0
63036.39826038485,10862.0
63036.408263154786,10805.0
63036.41826592473,10795.0
63036.42826869467,10760.0
63036.43827146461,10809.0
63036.44827423456,10762.0
63036.458277004494,10758.0
63036.46827977444,10743.0
63036.478282544376,10731.0
63036.48828531432,10713.0
63036.49828808426,10730.0
63036.5082908542,10693.0
63036.51829362414,10715.0
63036.528296394084,10698.0
63036.53829916402,10721.0
63036.548301933966,10704.0
63036.5583047039,10701.0
63036.56830747385,10718.0
63036.578310243785,10713.0
63036.58831301373,10728.0
63036.59831578367,10697.0
63036.60831855361,10731.0
63036.61832132355,10720.0
63036.62832409349,10699.0
63036.63832686344,10693.0
63036.648329633375,10710.0
63036.65833240332,10717.0
63036.66833517326,10743.0
63036.6783379432,10718.0
63036.68834071314,10752.0
63036.69834348308,10715.0
63036.70834625302,10701.0
63036.718349022965,10740.0
63036.7283517929,10691.0
63036.73835456285,10720.0
63036.748357332785,10740.0
63036.75836010273,10691.0
63036.768362872666,10749.0
63036.77836564261,10729.0
63036.78836841255,10731.0
63036.79837118249,10724.0
63036.80837395243,10725.0
63036.818376722375,10746.0
63036.82837949232,10761.0
63036.838382262256,10735.0
63036.8483850322,10759.0
63036.85838780214,10778.0
63036.86839057208,10775.0
63036.87839334202,10800.0
63036.888396111965,10772.0
63036.8983988819,10794.0
63036.908401651846,10863.0
63036.91840442178,10789.0
63036.92840719173,10840.0
63036.938409961665,10827.0
63036.94841273161,10796.0
63036.95841550155,10848.0
63036.96841827149,10820.0
63036.97842104143,10845.0
63036.988423811374,10866.0
63036.99842658131,10832.0
63037.008429351255,10882.0
63037.01843212119,10856.0
63037.02843489114,10867.0
63037.03843766108,10910.0
63037.04844043102,10869.0
63037.058443200964,10891.0
63037.0684459709,10919.0
63037.078448740845,10926.0
63037.08845151078,10911.0
63037.09845428073,10924.0
63037.108457050665,10934.0
63037.11845982061,10951.0
63037.12846259055,10945.0
63037.13846536049,10932.0
63037.14846813043,10922.0
63037.15847090037,10896.0
63037.16847367031,10901.0
63037.178476440255,10869.0
63037.18847921019,10862.0
63037.19848198014,10831.0
63037.208484750074,10796.0
63037.21848752002,10839.0
63037.22849028996,10782.0
63037.2384930599,10759.0
63037.248495829845,10782.0
63037.25849859978,10748.0
63037.26850136973,10762.0
63037.278504139664,10750.0
63037.28850690961,10764.0
63037.298509679546,10754.0
63037.30851244949,10746.0
63037.31851521943,10729.0
63037.32851798937,10740.0
63037.33852075931,10723.0
63037.348523529254,10762.0
63037.35852629919,10738.0
63037.368529069136,10704.0
63037.37853183907,10764.0
63037.38853460902,10746.0
63037.398537378955,10737.0
63037.4085401489,10719.0
63037.418542918844,10720.0
63037.42854568878,10752.0
63037.438548458726,10782.0
63037.44855122866,10735.0
63037.45855399861,10741.0
63037.468556768545,10747.0
63037.47855953849,10752.0
63037.48856230843,10757.0
63037.49856507837,10755.0
63037.50856784831,10731.0
63037.51857061825,10738.0
63037.52857338819,10747.0
63037.538576158135,10772.0
63037.54857892807,10746.0
63037.55858169802,10726.0
63037.568584467954,10752.0
63037.5785872379,10736.0
63037.588590007836,10755.0
63037.59859277778,10775.0
63037.60859554772,10762.0
63037.61859831766,10785.0
63037.62860108761,10785.0
63037.638603857544,10761.0
63037.64860662749,10802.0
63037.658609397426,10817.0
63037.66861216737,10802.0
63037.67861493731,10814.0
63037.68861770725,10818.0
63037.69862047719,10828.0
63037.708623247134,10828.0
63037.71862601707,10834.0
63037.728628787016,10815.0
63037.73863155695,10866.0
63037.7486343269,10877.0
63037.758637096835,10876.0
63037.76863986678,10866.0
63037.77864263672,10886.0
63037.78864540666,10878.0
63037.7986481766,10880.0
63037.80865094654,10893.0
63037.81865371649,10906.0
63037.828656486425,10909.0
63037.83865925637,10894.0
63037.84866202631,10932.0
63037.85866479625,10935.0
63037.86866756619,10941.0
63037.87867033613,10947.0
63037.88867310607,10949.0
63037.898675876015,10911.0
63037.90867864595,10919.0
63037.9186814159,10908.0
63037.928684185834,10889.0
63037.93868695578,10825.0
63037.948689725716,10832.0
63037.95869249566,10820.0
63037.9686952656,10799.0
63037.97869803554,10774.0
63037.98870080548,10748.0
63037.998703575424,10714.0
63038.00870634537,10704.0
63038.018709115306,10695.0
63038.02871188525,10687.0
63038.03871465519,10701.0
63038.04871742513,10675.0
63038.05872019507,10647.0
63038.068722965014,10693.0
63038.07872573495,10708.0
63038.088728504896,10676.0
63038.09873127483,10656.0
63038.10873404478,10671.0
63038.118736814715,10672.0
63038.12873958466,10656.0
63038.1387423546,10703.0
63038.14874512454,10659.0
63038.15874789448,10686.0
63038.16875066442,10650.0
63038.17875343436,10662.0
63038.188756204305,10684.0
63038.19875897425,10680.0
63038.20876174419,10679.0
63038.21876451413,10704.0
63038.22876728407,10673.0
63038.23877005401,10675.0
63038.24877282395,10682.0
63038.258775593895,10654.0
63038.26877836383,10655.0
63038.27878113378,10693.0
63038.288783903714,10687.0
63038.29878667366,10683.0
63038.308789443596,10697.0
63038.31879221354,10687.0
63038.32879498348,10700.0
63038.33879775342,10677.0
63038.34880052336,10689.0
63038.358803293304,10697.0
63038.36880606324,10697.0
63038.378808833186,10708.0
63038.38881160312,10736.0
63038.39881437307,10727.0
63038.40881714301,10752.0
63038.41881991295,10736.0
63038.428822682894,10758.0
63038.43882545283,10765.0
63038.448828222776,10777.0
63038.45883099271,10780.0
63038.46883376266,10776.0
63038.478836532595,10785.0
63038.48883930254,10766.0
63038.49884207248,10805.0
63038.50884484242,10778.0
63038.51884761236,10806.0
63038.5288503823,10821.0
63038.53885315224,10828.0
63038.548855922185,10841.0
63038.55885869212,10824.0
63038.56886146207,10857.0
63038.578864232004,10859.0
63038.58886700195,10849.0
63038.59886977189,10856.0
63038.60887254183,10867.0
63038.618875311775,10885.0
63038.62887808171,10891.0
63038.63888085166,10894.0
63038.648883621594,10934.0
63038.65888639154,10916.0
63038.668889161476,10894.0
63038.67889193142,10881.0
63038.68889470136,10882.0
63038.6988974713,10883.0
63038.70890024124,10906.0
63038.718903011184,10860.0
63038.72890578112,10828.0
63038.738908551066,10795.0
63038.748911321,10789.0
63038.75891409095,10762.0
63038.768916860885,10716.0
63038.77891963083,10697.0
63038.788922400774,10710.0
63038.79892517071,10679.0
63038.808927940656,10655.0
63038.81893071059,10677.0
63038.82893348054,10647.0
63038.838936250475,10626.0
63038.84893902042,10601.0
63038.85894179036,10581.0
63038.8689445603,10627.0
63038.87894733024,10597.0
63038.88895010018,10574.0
63038.89895287012,10592.0
63038.908955640065,10558.0
63038.91895841,10571.0
63038.92896117995,10578.0
63038.938963949884,10596.0
63038.94896671983,10601.0
63038.958969489766,10587.0
63038.96897225971,10614.0
63038.97897502965,10590.0
63038.98897779959,10599.0
63038.99898056954,10586.0
63039.008983339474,10586.0
63039.01898610942,10562.0
63039.028988879356,10575.0
63039.0389916493,10587.0
63039.04899441924,10578.0
63039.05899718918,10592.0
63039.06899995912,10582.0
63039.079002729064,10575.0
63039.089005499,10584.0
63039.099008268946,10567.0
63039.10901103888,10583.0
63039.11901380883,10559.0
63039.129016578765,10584.0
63039.13901934871,10634.0
63039.14902211865,10612.0
63039.15902488859,10594.0
63039.16902765853,10612.0
63039.17903042847,10619.0
63039.18903319842,10633.0
63039.199035968355,10622.0
63039.2090387383,10623.0
63039.21904150824,10634.0
63039.22904427818,10625.0
63039.23904704812,10665.0
63039.24904981806,10663.0
63039.259052588,10679.0
63039.269055357945,10699.0
63039.27905812788,10702.0
63039.28906089783,10698.0
63039.299063667764,10700.0
63039.30906643771,10721.0
63039.319069207646,10691.0
63039.32907197759,10711.0
63039.33907474753,10698.0
63039.34907751747,10706.0
63039.35908028741,10740.0
63039.369083057354,10753.0
63039.3790858273,10745.0
63039.389088597236,10774.0
63039.39909136718,10771.0
63039.40909413712,10760.0
63039.41909690706,10793.0
63039.429099677,10765.0
63039.439102446944,10785.0
63039.44910521688,10800.0
63039.459107986826,10784.0
63039.46911075676,10809.0
63039.47911352671,10813.0
63039.489116296645,10825.0
63039.49911906659,10844.0
63039.50912183653,10837.0
63039.51912460647,10871.0
63039.52912737641,10846.0
63039.53913014635,10835.0
63039.54913291629,10884.0
63039.559135686235,10869.0
63039.56913845618,10881.0
63039.57914122612,10900.0
63039.58914399606,10897.0
63039.599146766,10907.0
63039.60914953594,10872.0
63039.61915230588,10844.0
63039.629155075825,10869.0
63039.63915784576,10795.0
63039.64916061571,10804.0
63039.659163385644,10770.0
63039.66916615559,10729.0
63039.679168925526,10747.0
63039.68917169547,10719.0
63039.69917446541,10666.0
63039.70917723535,10671.0
63039.71918000529,10630.0
63039.729182775234,10639.0
63039.73918554517,10665.0
63039.749188315116,10608.0
63039.75919108505,10601.0
63039.769193855,10575.0
63039.77919662494,10600.0
63039.78919939488,10592.0
63039.799202164824,10566.0
63039.80920493476,10606.0
63039.819207704706,10575.0
63039.82921047464,10546.0
63039.83921324459,10603.0
63039.849216014525,10570.0
63039.85921878447,10564.0
63039.86922155441,10557.0
63039.87922432435,10562.0
63039.88922709429,10594.0
63039.89922986423,10563.0
63039.90923263417,10545.0
63039.919235404115,10581.0
63039.92923817405,10545.0
63039.939240944,10559.0
63039.949243713934,10567.0
63039.95924648388,10552.0
63039.96924925382,10561.0
63039.97925202376,10554.0
63039.989254793705,10540.0
63039.99925756364,10584.0
63040.00926033359,10515.0
63040.019263103524,10560.0
63040.02926587347,10556.0
63040.039268643406,10560.0
63040.04927141335,10560.0
63040.05927418329,10568.0
63040.06927695323,10577.0
63040.07927972317,10611.0
63040.089282493114,10574.0
63040.09928526305,10606.0
63040.109288032996,10611.0
63040.11929080293,10576.0
63040.12929357288,10628.0
63040.139296342815,10592.0
63040.14929911276,10622.0
63040.159301882704,10652.0
63040.16930465264,10655.0
63040.179307422586,10631.0
63040.18931019252,10664.0
63040.19931296247,10637.0
63040.209315732405,10648.0
63040.21931850235,10663.0
63040.22932127229,10657.0
63040.23932404223,10718.0
63040.24932681217,10713.0
63040.25932958211,10693.0
63040.26933235205,10699.0
63040.279335121995,10733.0
63040.28933789193,10708.0
63040.29934066188,10709.0
63040.309343431814,10714.0
63040.31934620176,10724.0
63040.329348971696,10723.0
63040.33935174164,10743.0
63040.34935451158,10770.0
63040.35935728152,10773.0
63040.36936005147,10749.0
63040.379362821404,10762.0
63040.38936559135,10776.0
63040.399368361286,10780.0
63040.40937113123,10813.0
63040.41937390117,10801.0
63040.42937667111,10799.0
63040.43937944105,10793.0
63040.449382210994,10845.0
63040.45938498093,10839.0
63040.469387750876,10825.0
63040.47939052081,10816.0
63040.48939329076,10829.0
63040.499396060695,10826.0
63040.50939883064,10813.0
63040.51940160058,10773.0
63040.52940437052,10749.0
63040.53940714046,10707.0
63040.5494099104,10665.0
63040.55941268035,10650.0
63040.569415450285,10670.0
63040.57941822023,10657.0
63040.58942099017,10605.0
63040.59942376011,10615.0
63040.60942653005,10629.0
63040.61942929999,10603.0
63040.62943206993,10587.0
63040.639434839875,10596.0
63040.64943760981,10599.0
63040.65944037976,10563.0
63040.669443149694,10611.0
63040.67944591964,10598.0
63040.689448689576,10582.0
63040.69945145952,10580.0
63040.70945422946,10599.0
63040.7194569994,10605.0
63040.72945976934,10605.0
63040.739462539284,10592.0
63040.74946530923,10603.0
63040.759468079166,10574.0
63040.76947084911,10589.0
63040.77947361905,10633.0
63040.78947638899,10619.0
63040.79947915893,10601.0
63040.809481928874,10608.0
63040.81948469881,10593.0
63040.829487468756,10617.0
63040.83949023869,10608.0
63040.84949300864,10596.0
63040.859495778575,10633.0
63040.86949854852,10619.0
63040.87950131846,10608.0
63040.8895040884,10644.0
63040.89950685834,10623.0
63040.90950962828,10627.0
63040.91951239822,10640.0
63040.929515168165,10632.0
63040.93951793811,10649.0
63040.94952070805,10651.0
63040.95952347799,10649.0
63040.96952624793,10677.0
63040.97952901787,10676.0
63040.98953178781,10672.0
63040.999534557755,10714.0
63041.00953732769,10691.0
63041.01954009764,10694.0
63041.029542867574,10716.0
63041.03954563752,10706.0
63041.049548407456,10725.0
63041.0595511774,10737.0
63041.06955394734,10726.0
63041.07955671728,10753.0
63041.08955948722,10732.0
63041.099562257165,10793.0
63041.1095650271,10766.0
63041.119567797046,10793.0
63041.12957056698,10780.0
63041.13957333693,10783.0
63041.14957610687,10804.0
63041.15957887681,10813.0
63041.169581646755,10815.0
63041.17958441669,10828.0
63041.189587186636,10824.0
63041.19958995657,10846.0
63041.20959272652,10857.0
63041.219595496455,10851.0
63041.2295982664,10853.0
63041.23960103634,10889.0
63041.24960380628,10873.0
63041.25960657622,10881.0
63041.26960934616,10889.0
63041.2796121161,10875.0
63041.289614886045,10904.0
63041.29961765598,10899.0
63041.30962042593,10915.0
63041.319623195865,10945.0
63041.32962596581,10908.0
63041.339628735754,10951.0
63041.34963150569,10932.0
63041.359634275635,10911.0
63041.36963704557,10885.0
63041.37963981552,10862.0
63041.389642585455,10861.0
63041.3996453554,10851.0
63041.40964812534,10789.0
63041.41965089528,10799.0
63041.42965366522,10766.0
63041.43965643516,10718.0
63041.4496592051,10718.0
63041.459661975045,10687.0
63041.46966474498,10707.0
63041.47966751493,10675.0
63041.489670284864,10674.0
63041.49967305481,10686.0
63041.509675824745,10657.0
63041.51967859469,10680.0
63041.529681364635,10680.0
63041.53968413457,10655.0
63041.54968690452,10648.0
63041.559689674454,10641.0
63041.5696924444,10668.0
63041.579695214336,10654.0
63041.58969798428,10638.0
63041.59970075422,10641.0
63041.60970352416,10645.0
63041.6197062941,10622.0
63041.629709064044,10676.0
63041.63971183398,10645.0
63041.649714603926,10636.0
63041.65971737386,10656.0
63041.66972014381,10654.0
63041.679722913745,10645.0
63041.68972568369,10656.0
63041.69972845363,10632.0
63041.70973122357,10648.0
63041.71973399351,10642.0
63041.72973676345,10640.0
63041.7397395334,10673.0
63041.749742303335,10686.0
63041.75974507328,10647.0
63041.76974784322,10669.0
63041.77975061316,10649.0
63041.7897533831,10682.0
63041.79975615304,10675.0
63041.80975892298,10640.0
63041.819761692925,10667.0
63041.82976446286,10663.0
63041.83976723281,10693.0
63041.849770002744,10723.0
63041.85977277269,10693.0
63041.869775542626,10735.0
63041.87977831257,10729.0
63041.88978108251,10717.0
63041.89978385245,10752.0
63041.90978662239,10738.0
63041.919789392334,10755.0
63041.92979216228,10757.0
63041.939794932216,10741.0
63041.94979770216,10756.0
63041.9598004721,10777.0
63041.96980324204,10775.0
63041.97980601198,10785.0
63041.989808781924,10820.0
63041.99981155186,10836.0
63042.009814321806,10832.0
63042.01981709174,10797.0
63042.02981986169,10811.0
63042.039822631625,10830.0
63042.04982540157,10838.0
63042.05982817151,10874.0
63042.06983094145,10875.0
63042.07983371139,10870.0
63042.08983648133,10873.0
63042.09983925127,10868.0
63042.109842021215,10876.0
63042.11984479116,10892.0
63042.1298475611,10899.0
63042.13985033104,10898.0
63042.14985310098,10893.0
63042.15985587092,10909.0
63042.16985864086,10919.0
63042.179861410805,10938.0
63042.18986418074,10915.0
63042.19986695069,10951.0
63042.209869720624,10953.0
63042.21987249057,10982.0
63042.229875260506,10963.0
63042.23987803045,10975.0
63042.24988080039,10972.0
63042.25988357033,10989.0
63042.26988634027,11027.0
63042.279889110214,10995.0
63042.28989188015,10972.0
63042.299894650096,10980.0
63042.30989742004,10981.0
63042.31990018998,10948.0
63042.32990295992,10918.0
63042.33990572986,10877.0
63042.349908499804,10838.0
63042.35991126974,10827.0
63042.369914039686,10849.0
63042.37991680962,10783.0
63042.38991957957,10762.0
63042.399922349505,10777.0
63042.40992511945,10753.0
63042.41992788939,10723.0
63042.42993065933,10748.0
63042.43993342927,10709.0
63042.44993619921,10710.0
63042.45993896915,10697.0
63042.469941739095,10679.0
63042.47994450903,10654.0
63042.48994727898,10686.0
63042.499950048914,10697.0
63042.50995281886,10695.0
63042.5199555888,10648.0
63042.52995835874,10686.0
63042.539961128685,10664.0
63042.54996389862,10658.0
63042.55996666857,10691.0
63042.569969438504,10673.0
63042.57997220845,10666.0
63042.589974978386,10693.0
63042.59997774833,10700.0
63042.60998051827,10667.0
63042.61998328821,10664.0
63042.62998605815,10647.0
63042.639988828094,10696.0
63042.64999159803,10675.0
63042.659994367976,10642.0
63042.66999713791,10666.0
63042.67999990786,10647.0
63042.690002677795,10672.0
63042.70000544774,10701.0
63042.710008217684,10655.0
63042.72001098762,10665.0
63042.730013757566,10676.0
63042.7400165275,10678.0
63042.75001929745,10723.0
63042.760022067385,10673.0
63042.77002483733,10690.0
63042.78002760727,10707.0
63042.79003037721,10699.0
63042.80003314715,10743.0
63042.81003591709,10724.0
63042.82003868703,10734.0
63042.830041456975,10745.0
63042.84004422691,10770.0
63042.85004699686,10745.0
63042.860049766794,10731.0
63042.87005253674,10756.0
63042.880055306676,10758.0
63042.89005807662,10763.0
63042.900060846565,10781.0
63042.9100636165,10758.0
63042.92006638645,10749.0
63042.930069156384,10800.0
63042.94007192633,10809.0
63042.950074696266,10806.0
63042.96007746621,10821.0
63042.97008023615,10812.0
63042.98008300609,10824.0
63042.99008577603,10835.0
63043.000088545974,10846.0
63043.01009131591,10852.0
63043.020094085856,10836.0
63043.03009685579,10839.0
63043.04009962574,10878.0
63043.050102395675,10870.0
63043.06010516562,10900.0
63043.07010793556,10903.0
63043.0801107055,10890.0
63043.09011347544,10895.0
63043.10011624538,10905.0
63043.11011901533,10923.0
63043.120121785265,10894.0
63043.13012455521,10930.0
63043.14012732515,10934.0
63043.15013009509,10909.0
63043.16013286503,10940.0
63043.17013563497,10957.0
63043.18013840491,10968.0
63043.190141174855,10977.0
63043.20014394479,10973.0
63043.21014671474,10976.0
63043.220149484674,11004.0
63043.23015225462,10989.0
63043.240155024556,11003.0
63043.2501577945,11004.0
63043.26016056444,11049.0
63043.27016333438,11047.0
63043.28016610432,11010.0
63043.290168874264,11030.0
63043.30017164421,11025.0
63043.310174414146,11009.0
63043.32017718409,11002.0
63043.33017995403,10927.0
63043.34018272397,10942.0
63043.35018549391,10874.0
63043.360188263854,10875.0
63043.37019103379,10871.0
63043.380193803736,10832.0
63043.39019657367,10839.0
63043.40019934362,10829.0
63043.410202113555,10780.0
63043.4202048835,10763.0
63043.43020765344,10777.0
63043.44021042338,10730.0
63043.45021319332,10741.0
63043.46021596326,10749.0
63043.4702187332,10726.0
63043.480221503145,10746.0
63043.49022427309,10711.0
63043.50022704303,10731.0
63043.51022981297,10719.0
63043.52023258291,10708.0
63043.53023535285,10717.0
63043.54023812279,10712.0
63043.550240892735,10705.0
63043.56024366267,10721.0
63043.57024643262,10698.0
63043.580249202554,10705.0
63043.5902519725,10754.0
63043.600254742436,10702.0
63043.61025751238,10731.0
63043.62026028232,10708.0
63043.63026305226,10690.0
63043.6402658222,10742.0
63043.650268592144,10695.0
63043.66027136208,10712.0
63043.670274132026,10681.0
63043.68027690197,10682.0
63043.69027967191,10731.0
63043.70028244185,10705.0
63043.71028521179,10692.0
63043.720287981734,10723.0
63043.73029075167,10706.0
63043.740293521616,10723.0
63043.75029629155,10726.0
63043.7602990615,10717.0
63043.770301831435,10741.0
63043.78030460138,10734.0
63043.79030737132,10733.0
63043.80031014126,10776.0
63043.8103129112,10735.0
63043.82031568114,10763.0
63043.83031845108,10789.0
63043.840321221025,10776.0
63043.85032399096,10779.0
63043.86032676091,10780.0
63043.870329530844,10783.0
63043.88033230079,10807.0
63043.89033507073,10790.0
63043.90033784067,10811.0
63043.910340610615,10840.0
63043.92034338055,10812.0
63043.9303461505,10823.0
63043.940348920434,10838.0
63043.95035169038,10828.0
63043.960354460316,10848.0
63043.97035723026,10848.0
63043.9803600002,10865.0
63043.99036277014,10879.0
63044.00036554008,10860.0
63044.010368310024,10891.0
63044.02037107996,10878.0
63044.030373849906,10873.0
63044.04037661984,10886.0
63044.05037938979,10922.0
63044.060382159725,10903.0
63044.07038492967,10909.0
63044.080387699614,10906.0
63044.09039046955,10936.0
63044.100393239496,10911.0
63044.11039600943,10920.0
63044.12039877938,10911.0
63044.130401549315,10958.0
63044.14040431926,10971.0
63044.1504070892,10972.0
63044.16040985914,10956.0
63044.17041262908,10997.0
63044.18041539902,10968.0
63044.19041816896,10983.0
63044.200420938905,11006.0
63044.21042370884,10983.0
63044.22042647879,11022.0
63044.230429248724,11004.0
63044.24043201867,11008.0
63044.250434788606,11016.0
63044.26043755855,11022.0
63044.270440328495,11032.0
63044.28044309843,11041.0
63044.29044586838,11036.0
63044.300448638314,11031.0
63044.31045140826,11040.0
63044.320454178196,11008.0
63044.33045694814,11039.0
63044.34045971808,10965.0
63044.35046248802,10946.0
63044.36046525796,10968.0
63044.370468027904,10887.0
63044.38047079784,10897.0
63044.390473567786,10834.0
63044.40047633772,10822.0
63044.41047910767,10809.0
63044.420481877605,10795.0
63044.43048464755,10799.0
63044.44048741749,10758.0
63044.45049018743,10760.0
63044.46049295737,10761.0
63044.47049572731,10748.0
63044.48049849726,10764.0
63044.490501267195,10728.0
63044.50050403714,10743.0
63044.51050680708,10739.0
63044.52050957702,10707.0
63044.53051234696,10712.0
63044.5405151169,10714.0
63044.55051788684,10714.0
63044.560520656785,10738.0
63044.57052342672,10749.0
63044.58052619667,10717.0
63044.590528966604,10727.0
63044.60053173655,10720.0
63044.610534506486,10719.0
63044.62053727643,10733.0
63044.63054004637,10704.0
63044.64054281631,10701.0
63044.65054558625,10667.0
63044.660548356194,10684.0
63044.67055112614,10695.0
63044.680553896076,10729.0
63044.69055666602,10691.0
63044.70055943596,10700.0
63044.7105622059,10697.0
63044.72056497584,10700.0
63044.730567745784,10710.0
63044.74057051572,10711.0
63044.750573285666,10706.0
63044.7605760556,10701.0
63044.77057882555,10680.0
63044.780581595485,10699.0
63044.79058436543,10695.0
63044.80058713537,10710.0
63044.81058990531,10722.0
63044.82059267525,10720.0
63044.83059544519,10736.0
63044.84059821513,10753.0
63044.850600985075,10757.0
63044.86060375502,10737.0
63044.87060652496,10758.0
63044.8806092949,10746.0
63044.89061206484,10785.0
63044.90061483478,10783.0
63044.91061760472,10776.0
63044.920620374665,10800.0
63044.9306231446,10791.0
63044.94062591455,10791.0
63044.950628684484,10798.0
63044.96063145443,10810.0
63044.970634224366,10797.0
63044.98063699431,10816.0
63044.99063976425,10842.0
63045.00064253419,10827.0
63045.01064530413,10825.0
63045.020648074074,10873.0
63045.03065084401,10836.0
63045.040653613956,10872.0
63045.0506563839,10838.0
63045.06065915384,10876.0
63045.07066192378,10877.0
63045.08066469372,10883.0
63045.090667463664,10879.0
63045.1006702336,10915.0
63045.110673003546,10896.0
63045.12067577348,10909.0
63045.13067854343,10905.0
63045.140681313365,10901.0
63045.15068408331,10913.0
63045.16068685325,10944.0
63045.17068962319,10942.0
63045.18069239313,10931.0
63045.19069516307,10942.0
63045.20069793301,10963.0
63045.210700702955,10993.0
63045.22070347289,10967.0
63045.23070624284,10968.0
63045.240709012774,10948.0
63045.25071178272,10965.0
63045.26071455266,10894.0
63045.2707173226,10916.0
63045.280720092545,10877.0
63045.29072286248,10847.0
63045.30072563243,10845.0
63045.310728402364,10816.0
63045.32073117231,10786.0
63045.330733942246,10786.0
63045.34073671219,10750.0
63045.35073948213,10758.0
63045.36074225207,10723.0
63045.37074502201,10719.0
63045.380747791954,10726.0
63045.39075056189,10726.0
63045.400753331836,10715.0
63045.41075610177,10714.0
63045.42075887172,10729.0
63045.430761641655,10720.0
63045.4407644116,10704.0
63045.450767181545,10699.0
63045.46076995148,10719.0
63045.470772721426,10717.0
63045.48077549136,10704.0
63045.49077826131,10713.0
63045.500781031245,10735.0
63045.51078380119,10710.0
63045.52078657113,10715.0
63045.53078934107,10742.0
63045.54079211101,10696.0
63045.55079488095,10706.0
63045.56079765089,10721.0
63045.570800420835,10741.0
63045.58080319077,10672.0
63045.59080596072,10718.0
63045.600808730655,10700.0
63045.6108115006,10732.0
63045.620814270536,10698.0
63045.63081704048,10677.0
63045.640819810425,10707.0
63045.65082258036,10697.0
63045.66082535031,10701.0
63045.670828120245,10737.0
63045.68083089019,10723.0
63045.69083366013,10754.0
63045.70083643007,10716.0
63045.71083920001,10752.0
63045.72084196995,10722.0
63045.73084473989,10754.0
63045.740847509835,10780.0
63045.75085027977,10782.0
63045.76085304972,10771.0
63045.770855819654,10777.0
63045.7808585896,10759.0
63045.790861359535,10772.0
63045.80086412948,10781.0
63045.81086689942,10819.0
63045.82086966936,10819.0
63045.8308724393,10791.0
63045.840875209244,10841.0
63045.85087797919,10825.0
63045.860880749125,10817.0
63045.87088351907,10811.0
63045.88088628901,10836.0
63045.89088905895,10842.0
63045.90089182889,10851.0
63045.910894598834,10848.0
63045.92089736877,10878.0
63045.930900138716,10871.0
63045.94090290865,10860.0
63045.9509056786,10881.0
63045.960908448535,10897.0
63045.97091121848,10895.0
63045.98091398842,10906.0
63045.99091675836,10910.0
63046.0009195283,10908.0
63046.01092229824,10922.0
63046.02092506818,10917.0
63046.030927838125,10923.0
63046.04093060807,10912.0
63046.05093337801,10949.0
63046.06093614795,10956.0
63046.07093891789,10988.0
63046.08094168783,10965.0
63046.09094445777,10973.0
63046.100947227715,10966.0
63046.11094999765,10971.0
63046.1209527676,10925.0
63046.130955537534,10923.0
63046.14095830748,10891.0
63046.150961077416,10861.0
63046.16096384736,10831.0
63046.1709666173,10823.0
63046.18096938724,10807.0
63046.19097215718,10794.0
63046.200974927124,10742.0
63046.21097769706,10740.0
63046.220980467006,10735.0
63046.23098323695,10721.0
63046.24098600689,10690.0
63046.25098877683,10679.0
63046.26099154677,10685.0
63046.270994316714,10678.0
63046.28099708665,10674.0
63046.290999856596,10678.0
63046.30100262653,10658.0
63046.31100539648,10658.0
63046.321008166415,10639.0
63046.33101093636,10651.0
63046.3410137063,10666.0
63046.35101647624,10643.0
63046.36101924618,10639.0
63046.37102201612,10648.0
63046.38102478606,10636.0
63046.391027556005,10678.0
63046.40103032594,10654.0
63046.41103309589,10656.0
63046.42103586583,10656.0
63046.43103863577,10668.0
63046.44104140571,10650.0
63046.45104417565,10650.0
63046.461046945595,10631.0
63046.47104971553,10630.0
63046.48105248548,10655.0
63046.491055255414,10653.0
63046.50105802536,10659.0
63046.511060795296,10653.0
63046.52106356524,10676.0
63046.53106633518,10656.0
63046.54106910512,10651.0
63046.55107187506,10662.0
63046.561074645004,10635.0
63046.57107741494,10683.0
63046.581080184886,10699.0
63046.59108295482,10659.0
63046.60108572477,10678.0
63046.611088494705,10688.0
63046.62109126465,10702.0
63046.631094034594,10727.0
63046.64109680453,10727.0
63046.651099574476,10701.0
63046.66110234441,10733.0
63046.67110511436,10712.0
63046.681107884295,10742.0
63046.69111065424,10730.0
63046.70111342418,10773.0
63046.71111619412,10767.0
63046.72111896406,10753.0
63046.731121734,10783.0
63046.74112450394,10782.0
63046.751127273885,10789.0
63046.76113004382,10812.0
63046.77113281377,10771.0
63046.781135583704,10780.0
63046.79113835365,10776.0
63046.801141123586,10835.0
63046.81114389353,10836.0
63046.821146663475,10815.0
63046.83114943341,10808.0
63046.84115220336,10840.0
63046.851154973294,10822.0
63046.86115774324,10846.0
63046.871160513176,10863.0
63046.88116328312,10837.0
63046.89116605306,10861.0
63046.901168823,10867.0
63046.91117159294,10871.0
63046.921174362884,10911.0
63046.93117713282,10893.0
63046.941179902766,10907.0
63046.9511826727,10900.0
63046.96118544265,10904.0
63046.971188212585,10944.0
63046.98119098253,10927.0
63046.99119375247,10920.0
63047.00119652241,10932.0
63047.011199292356,10938.0
63047.02120206229,10959.0
63047.03120483224,10978.0
63047.041207602175,10954.0
63047.05121037212,10973.0
63047.06121314206,10972.0
63047.071215912,10980.0
63047.08121868194,10970.0
63047.09122145188,10944.0
63047.10122422182,10953.0
63047.111226991765,10906.0
63047.1212297617,10911.0
63047.13123253165,10887.0
63047.141235301584,10851.0
63047.15123807153,10812.0
63047.161240841466,10801.0
63047.17124361141,10744.0
63047.18124638135,10754.0
63047.19124915129,10750.0
63047.20125192124,10713.0
63047.211254691174,10701.0
63047.22125746112,10697.0
63047.231260231056,10696.0
63047.241263001,10707.0
63047.25126577094,10657.0
63047.26126854088,10666.0
63047.27127131082,10678.0
63047.281274080764,10646.0
63047.2912768507,10654.0
63047.301279620646,10619.0
63047.31128239058,10594.0
63047.32128516053,10594.0
63047.331287930465,10588.0
63047.34129070041,10611.0
63047.35129347035,10633.0
63047.36129624029,10607.0
63047.37129901023,10628.0
63047.38130178017,10598.0
63047.39130455011,10592.0
63047.401307320055,10629.0
63047.41131009,10590.0
63047.42131285994,10606.0
63047.43131562988,10598.0
63047.44131839982,10601.0
63047.45132116976,10619.0
63047.4613239397,10589.0
63047.471326709645,10595.0
63047.48132947958,10613.0
63047.49133224953,10612.0
63047.501335019464,10601.0
63047.51133778941,10604.0
63047.521340559346,10586.0
63047.53134332929,10613.0
63047.54134609923,10590.0
63047.55134886917,10631.0
63047.56135163911,10640.0
63047.571354409054,10600.0
63047.58135717899,10638.0
63047.591359948936,10644.0
63047.60136271888,10643.0
63047.61136548882,10654.0
63047.62136825876,10641.0
63047.6313710287,10650.0
63047.641373798644,10635.0
63047.65137656858,10654.0
63047.661379338526,10700.0
63047.67138210846,10682.0
63047.68138487841,10674.0
63047.691387648345,10709.0
63047.70139041829,10686.0
63047.71139318823,10680.0
63047.72139595817,10699.0
63047.73139872811,10693.0
63047.74140149805,10712.0
63047.75140426799,10722.0
63047.761407037935,10760.0
63047.77140980787,10729.0
63047.78141257782,10765.0
63047.79141534776,10746.0
63047.8014181177,10728.0
63047.81142088764,10774.0
63047.82142365758,10790.0
63047.831426427525,10773.0
63047.84142919746,10766.0
63047.85143196741,10794.0
63047.861434737344,10785.0
63047.87143750729,10800.0
63047.881440277226,10825.0
63047.89144304717,10785.0
63047.90144581711,10856.0
63047.91144858705,10828.0
63047.92145135699,10830.0
63047.931454126934,10836.0
63047.94145689687,10832.0
63047.951459666816,10863.0
63047.96146243675,10872.0
63047.9714652067,10854.0
63047.981467976635,10865.0
63047.99147074658,10896.0
63048.001473516524,10890.0
63048.01147628646,10892.0
63048.021479056406,10901.0
63048.03148182634,10919.0
63048.04148459629,10918.0
63048.051487366225,10898.0
63048.06149013617,10939.0
63048.07149290611,10941.0
63048.08149567605,10951.0
63048.09149844599,10979.0
63048.10150121593,10966.0
63048.11150398587,10989.0
63048.121506755815,10985.0
63048.13150952575,10983.0
63048.1415122957,10985.0
63048.151515065634,10949.0
63048.16151783558,10910.0
63048.171520605516,10894.0
63048.18152337546,10871.0
63048.191526145405,10865.0
63048.20152891534,10866.0
63048.21153168529,10780.0
63048.221534455224,10819.0
63048.23153722517,10778.0
63048.241539995106,10740.0
63048.25154276505,10765.0
63048.26154553499,10721.0
63048.27154830493,10714.0
63048.28155107487,10701.0
63048.291553844814,10689.0
63048.30155661475,10715.0
63048.311559384696,10674.0
63048.32156215463,10652.0
63048.33156492458,10650.0
63048.341567694515,10642.0
63048.35157046446,10645.0
63048.3615732344,10668.0
63048.37157600434,10620.0
63048.381578774286,10635.0
63048.39158154422,10640.0
63048.40158431417,10618.0
63048.411587084105,10657.0
63048.42158985405,10609.0
63048.43159262399,10598.0
63048.44159539393,10668.0
63048.45159816387,10618.0
63048.46160093381,10623.0
63048.47160370375,10628.0
63048.481606473695,10615.0
63048.49160924363,10595.0
63048.50161201358,10599.0
63048.511614783514,10612.0
63048.52161755346,10606.0
63048.531620323396,10601.0
63048.54162309334,10629.0
63048.55162586328,10623.0
63048.56162863322,10612.0
63048.57163140317,10610.0
63048.581634173104,10601.0
63048.59163694305,10606.0
63048.601639712986,10618.0
63048.61164248293,10616.0
63048.62164525287,10611.0
63048.63164802281,10657.0
63048.64165079275,10656.0
63048.651653562694,10666.0
63048.66165633263,10630.0
63048.671659102576,10652.0
63048.68166187251,10670.0
63048.69166464246,10640.0
63048.701667412395,10659.0
63048.71167018234,10686.0
63048.72167295228,10686.0
63048.73167572222,10673.0
63048.74167849216,10690.0
63048.7516812621,10704.0
63048.76168403204,10699.0
63048.771686801985,10729.0
63048.78168957193,10733.0
63048.79169234187,10715.0
63048.80169511181,10730.0
63048.81169788175,10761.0
63048.82170065169,10777.0
63048.83170342163,10778.0
63048.841706191575,10763.0
63048.85170896151,10753.0
63048.86171173146,10777.0
63048.871714501394,10785.0
63048.88171727134,10771.0
63048.891720041276,10778.0
63048.90172281122,10760.0
63048.91172558116,10797.0
63048.9217283511,10809.0
63048.93173112104,10797.0
63048.941733890984,10796.0
63048.95173666092,10816.0
63048.961739430866,10837.0
63048.97174220081,10866.0
63048.98174497075,10840.0
63048.99174774069,10845.0
63049.00175051063,10861.0
63049.011753280574,10907.0
63049.02175605051,10856.0
63049.031758820456,10863.0
63049.04176159039,10887.0
63049.05176436034,10893.0
63049.061767130275,10900.0
63049.07176990022,10919.0
63049.08177267016,10915.0
63049.0917754401,10914.0
63049.10177821004,10966.0
63049.11178097998,10920.0
63049.12178374992,10941.0
63049.131786519865,10940.0
63049.1417892898,10968.0
63049.15179205975,10993.0
63049.16179482969,10981.0
63049.17179759963,10959.0
63049.18180036957,10997.0
63049.19180313951,10958.0
63049.201805909455,10938.0
63049.21180867939,10908.0
63049.22181144934,10866.0
63049.231814219274,10880.0
63049.24181698922,10852.0
63049.251819759156,10838.0
63049.2618225291,10826.0
63049.27182529904,10788.0
63049.28182806898,10754.0
63049.29183083892,10765.0
63049.301833608864,10737.0
63049.3118363788,10750.0
63049.321839148746,10739.0
63049.33184191868,10704.0
63049.34184468863,10711.0
63049.351847458565,10676.0
63049.36185022851,10691.0
63049.371852998454,10678.0
63049.38185576839,10662.0
63049.391858538336,10688.0
63049.40186130827,10658.0
63049.41186407822,10661.0
63049.421866848155,10662.0
63049.4318696181,10638.0
63049.44187238804,10656.0
63049.45187515798,10657.0
63049.46187792792,10663.0
63049.47188069786,10648.0
63049.4818834678,10648.0
63049.491886237745,10643.0
63049.50188900768,10670.0
63049.51189177763,10626.0
63049.521894547564,10656.0
63049.53189731751,10642.0
63049.541900087446,10619.0
63049.55190285739,10654.0
63049.561905627335,10610.0
63049.57190839727,10650.0
63049.58191116722,10640.0
63049.591913937154,10615.0
63049.6019167071,10623.0
63049.611919477036,10634.0
63049.62192224698,10631.0
63049.63192501692,10657.0
63049.64192778686,10664.0
63049.6519305568,10651.0
63049.661933326744,10664.0
63049.67193609668,10633.0
63049.681938866626,10678.0
63049.69194163656,10659.0
63049.70194440651,10656.0
63049.711947176445,10684.0
63049.72194994639,10673.0
63049.73195271633,10683.0
63049.74195548627,10683.0
63049.751958256216,10690.0
63049.76196102615,10711.0
63049.7719637961,10698.0
63049.781966566035,10676.0
63049.79196933598,10726.0
63049.80197210592,10705.0
63049.81197487586,10722.0
63049.8219776458,10755.0
63049.83198041574,10740.0
63049.84198318568,10745.0
63049.851985955625,10741.0
63049.86198872556,10742.0
63049.87199149551,10764.0
63049.881994265445,10767.0
63049.89199703539,10760.0
63049.901999805326,10780.0
63049.91200257527,10747.0
63049.92200534521,10810.0
63049.93200811515,10775.0
63049.9420108851,10790.0
63049.952013655035,10823.0
63049.96201642498,10807.0
63049.972019194916,10825.0
63049.98202196486,10803.0
63049.9920247348,10823.0
63050.00202750474,10837.0
63050.01203027468,10836.0
63050.022033044625,10830.0
63050.03203581456,10873.0
63050.04203858451,10852.0
63050.052041354444,10865.0
63050.06204412439,10869.0
63050.072046894325,10882.0
63050.08204966427,10893.0
63050.09205243421,10894.0
63050.10205520415,10920.0
63050.11205797409,10875.0
63050.122060744034,10893.0
63050.13206351397,10906.0
63050.142066283915,10950.0
63050.15206905386,10929.0
63050.1620718238,10897.0
63050.17207459374,10865.0
63050.18207736368,10847.0
63050.192080133624,10830.0
63050.20208290356,10809.0
63050.212085673505,10754.0
63050.22208844344,10760.0
63050.23209121339,10714.0
63050.242093983325,10728.0
63050.25209675327,10732.0
63050.26209952321,10710.0
63050.27210229315,10704.0
63050.28210506309,10714.0
63050.29210783303,10688.0
63050.30211060297,10678.0
63050.312113372915,10667.0
63050.32211614285,10666.0
63050.3321189128,10653.0
63050.34212168274,10661.0
63050.35212445268,10655.0
63050.36212722262,10659.0
63050.37212999256,10680.0
63050.382132762505,10663.0
63050.39213553244,10670.0
63050.40213830239,10669.0
63050.412141072324,10673.0
63050.42214384227,10659.0
63050.432146612206,10661.0
63050.44214938215,10646.0
63050.45215215209,10634.0
63050.46215492203,10658.0
63050.47215769197,10650.0
63050.482160461914,10641.0
63050.49216323185,10657.0
63050.502166001796,10656.0
63050.51216877173,10656.0
63050.52217154168,10650.0
63050.53217431162,10621.0
63050.54217708156,10644.0
63050.552179851504,10622.0
63050.56218262144,10631.0
63050.572185391386,10666.0
63050.58218816132,10645.0
63050.59219093127,10655.0
63050.602193701205,10650.0
63050.61219647115,10667.0
63050.62219924109,10666.0
63050.63220201103,10696.0
63050.64220478097,10669.0
63050.65220755091,10677.0
63050.66221032085,10692.0
63050.672213090795,10716.0
63050.68221586073,10703.0
63050.69221863068,10719.0
63050.702221400614,10725.0
63050.71222417056,10724.0
63050.722226940496,10713.0
63050.73222971044,10737.0
63050.742232480385,10737.0
63050.75223525032,10725.0
63050.76223802027,10811.0
63050.772240790204,10741.0
63050.78224356015,10761.0
63050.792246330086,10769.0
63050.80224910003,10783.0
63050.81225186997,10800.0
63050.82225463991,10785.0
63050.83225740985,10782.0
63050.842260179794,10827.0
63050.85226294973,10769.0
63050.862265719676,10806.0
63050.87226848961,10806.0
63050.88227125956,10831.0
63050.892274029495,10827.0
63050.90227679944,10858.0
63050.91227956938,10846.0
63050.92228233932,10852.0
63050.932285109266,10861.0
63050.9422878792,10862.0
63050.95229064915,10896.0
63050.962293419085,10862.0
63050.97229618903,10896.0
63050.98229895897,10857.0
63050.99230172891,10904.0
63051.00230449885,10879.0
63051.01230726879,10856.0
63051.02231003873,10834.0
63051.032312808675,10809.0
63051.04231557861,10793.0
63051.05231834856,10807.0
63051.062321118494,10736.0
63051.07232388844,10738.0
63051.082326658376,10686.0
63051.09232942832,10699.0
63051.10233219826,10703.0
63051.1123349682,10681.0
63051.12233773815,10661.0
63051.132340508084,10652.0
63051.14234327803,10645.0
63051.152346047966,10643.0
63051.16234881791,10624.0
63051.17235158785,10638.0
63051.18235435779,10614.0
63051.19235712773,10624.0
63051.202359897674,10659.0
63051.21236266761,10639.0
63051.222365437556,10610.0
63051.23236820749,10612.0
63051.24237097744,10614.0
63051.252373747375,10604.0
63051.26237651732,10622.0
63051.27237928726,10619.0
63051.2823820572,10594.0
63051.29238482714,10601.0
63051.30238759708,10630.0
63051.31239036703,10617.0
63051.322393136965,10603.0
63051.33239590691,10622.0
63051.34239867685,10646.0
63051.35240144679,10618.0
63051.36240421673,10600.0
63051.37240698667,10631.0
63051.38240975661,10606.0
63051.392412526555,10627.0
63051.40241529649,10598.0
63051.41241806644,10586.0
63051.422420836374,10628.0
63051.43242360632,10645.0
63051.442426376256,10616.0
63051.4524291462,10650.0
63051.46243191614,10624.0
63051.47243468608,10646.0
63051.48243745602,10658.0
63051.492440225964,10683.0
63051.5024429959,10671.0
63051.512445765846,10679.0
63051.52244853579,10711.0
63051.53245130573,10682.0
63051.54245407567,10686.0
63051.55245684561,10706.0
63051.562459615554,10696.0
63051.57246238549,10703.0
63051.582465155436,10736.0
63051.59246792537,10724.0
63051.60247069532,10748.0
63051.612473465255,10720.0
63051.6224762352,10728.0
63051.63247900514,10752.0
63051.64248177508,10759.0
63051.65248454502,10754.0
63051.66248731496,10776.0
63051.6724900849,10783.0
63051.682492854845,10773.0
63051.69249562478,10810.0
63051.70249839473,10778.0
63051.71250116467,10810.0
63051.72250393461,10803.0
63051.73250670455,10799.0
63051.74250947449,10802.0
63051.752512244435,10825.0
63051.76251501437,10822.0
63051.77251778432,10836.0
63051.782520554254,10821.0
63051.7925233242,10829.0
63051.802526094136,10884.0
63051.81252886408,10873.0
63051.82253163402,10899.0
63051.83253440396,10924.0
63051.8425371739,10895.0
63051.852539943844,10899.0
63051.86254271378,10908.0
63051.872545483726,10937.0
63051.88254825366,10920.0
63051.89255102361,10935.0
63051.90255379355,10899.0
63051.91255656349,10937.0
63051.922559333434,10890.0
63051.93256210337,10861.0
63051.942564873316,10821.0
63051.95256764325,10836.0
63051.9625704132,10819.0
63051.972573183135,10746.0
63051.98257595308,10751.0
63051.99257872302,10689.0
63052.00258149296,10702.0
63052.0125842629,10685.0
63052.02258703284,10675.0
63052.03258980278,10646.0
63052.042592572725,10635.0
63052.05259534266,10651.0
63052.06259811261,10636.0
63052.072600882544,10596.0
63052.08260365249,10595.0
63052.092606422426,10563.0
63052.10260919237,10574.0
63052.112611962315,10548.0
63052.12261473225,10575.0
63052.1326175022,10546.0
63052.142620272134,10535.0
63052.15262304208,10588.0
63052.162625812016,10547.0
63052.17262858196,10572.0
63052.1826313519,10532.0
63052.19263412184,10529.0
63052.20263689178,10553.0
63052.212639661724,10564.0
63052.22264243166,10531.0
63052.232645201606,10552.0
63052.24264797154,10543.0
63052.25265074149,10532.0
63052.262653511425,10538.0
63052.27265628137,10537.0
63052.28265905131,10545.0
63052.29266182125,10526.0
63052.302664591196,10538.0
63052.31266736113,10555.0
63052.32267013108,10546.0
63052.332672901015,10563.0
63052.34267567096,10571.0
63052.3526784409,10548.0
63052.36268121084,10527.0
63052.37268398078,10541.0
63052.38268675072,10552.0
63052.39268952066,10599.0
63052.402692290605,10575.0
63052.41269506054,10577.0
63052.42269783049,10606.0
63052.432700600424,10574.0
63052.44270337037,10594.0
63052.452706140306,10623.0
63052.46270891025,10629.0
63052.47271168019,10630.0
63052.48271445013,10633.0
63052.49271722008,10618.0
63052.502719990014,10663.0
63052.51272275996,10634.0
63052.522725529896,10666.0
63052.53272829984,10634.0
63052.54273106978,10639.0
63052.55273383972,10695.0
63052.56273660966,10674.0
63052.572739379604,10687.0
63052.58274214954,10695.0
63052.592744919486,10683.0
63052.60274768942,10698.0
63052.61275045937,10708.0
63052.622753229305,10739.0
63052.63275599925,10744.0
63052.64275876919,10717.0
63052.65276153913,10748.0
63052.66276430907,10726.0
63052.67276707901,10745.0
63052.68276984896,10732.0
63052.692772618895,10776.0
63052.70277538884,10783.0
63052.71277815878,10787.0
63052.72278092872,10776.0
63052.73278369866,10787.0
63052.7427864686,10795.0
63052.75278923854,10803.0
63052.762792008485,10839.0
63052.77279477842,10816.0
63052.78279754837,10806.0
63052.792800318304,10840.0
63052.80280308825,10841.0
63052.812805858186,10847.0
63052.82280862813,10871.0
63052.83281139807,10856.0
63052.84281416801,10895.0
63052.85281693795,10871.0
63052.862819707894,10870.0
63052.87282247783,10893.0
63052.882825247776,10848.0
63052.89282801772,10823.0
63052.90283078766,10824.0
63052.9128335576,10810.0
63052.92283632754,10756.0
63052.932839097484,10724.0
63052.94284186742,10705.0
63052.952844637366,10694.0
63052.9628474073,10663.0
63052.97285017725,10637.0
63052.982852947185,10591.0
63052.99285571713,10581.0
63053.00285848707,10563.0
63053.01286125701,10569.0
63053.02286402695,10611.0
63053.03286679689,10559.0
63053.04286956683,10548.0
63053.052872336775,10535.0
63053.06287510671,10521.0
63053.07287787666,10531.0
63053.0828806466,10500.0
63053.09288341654,10501.0
63053.10288618648,10500.0
63053.11288895642,10468.0
63053.122891726365,10508.0
63053.1328944963,10482.0
63053.14289726625,10497.0
63053.152900036184,10490.0
63053.16290280613,10509.0
63053.172905576066,10482.0
63053.18290834601,10490.0
63053.19291111595,10445.0
63053.20291388589,10484.0
63053.21291665583,10480.0
63053.222919425774,10481.0
63053.23292219571,10494.0
63053.242924965656,10476.0
63053.25292773559,10467.0
63053.26293050554,10478.0
63053.27293327548,10468.0
63053.28293604542,10491.0
63053.292938815364,10488.0
63053.3029415853,10466.0
63053.312944355246,10476.0
63053.32294712518,10464.0
63053.33294989513,10498.0
63053.342952665065,10513.0
63053.35295543501,10504.0
63053.36295820495,10509.0
63053.37296097489,10521.0
63053.38296374483,10468.0
63053.39296651477,10491.0
63053.40296928471,10488.0
63053.412972054655,10466.0
63053.42297482459,10476.0
63053.43297759454,10464.0
63053.442980364474,10498.0
63053.45298313442,10513.0
63053.46298590436,10504.0
63053.4729886743,10509.0
63053.482991444245,10521.0
63053.49299421418,10501.0
63053.50299698413,10541.0
63053.512999754064,10510.0
63053.52300252401,10543.0
63053.533005293946,10549.0
63053.54300806389,10517.0
63053.55301083383,10574.0
63053.56301360377,10552.0
63053.57301637371,10543.0
63053.583019143654,10598.0
63053.59302191359,10553.0
63053.603024683536,10577.0
63053.61302745347,10595.0
63053.62303022342,10591.0
63053.633032993355,10627.0
63053.6430357633,10598.0
63053.65303853324,10640.0
63053.66304130318,10674.0
63053.673044073126,10618.0
63053.68304684306,10644.0
63053.69304961301,10648.0
63053.703052382945,10640.0
63053.71305515289,10639.0
63053.72305792283,10642.0
63053.73306069277,10659.0
63053.74306346271,10688.0
63053.75306623265,10657.0
63053.76306900259,10709.0
63053.773071772535,10686.0
63053.78307454247,10687.0
63053.79307731242,10705.0
63053.803080082354,10714.0
63053.8130828523,10724.0
63053.823085622236,10721.0
63053.83308839218,10767.0
63053.84309116212,10741.0
63053.85309393206,10749.0
63053.86309670201,10772.0
63053.873099471944,10779.0
63053.88310224189,10752.0
63053.893105011826,10781.0
63053.90310778177,10789.0
63053.91311055171,10781.0
63053.92311332165,10811.0
63053.93311609159,10792.0
63053.943118861534,10803.0
63053.95312163147,10797.0
63053.963124401416,10812.0
63053.97312717135,10825.0
63053.9831299413,10796.0
63053.993132711235,10788.0
63054.00313548118,10791.0
63054.01313825112,10739.0
63054.02314102106,10707.0
63054.033143791,10704.0
63054.04314656094,10662.0
63054.05314933089,10646.0
63054.063152100825,10635.0
63054.07315487077,10586.0
63054.08315764071,10615.0
63054.09316041065,10579.0
63054.10316318059,10564.0
63054.11316595053,10555.0
63054.12316872047,10536.0
63054.133171490415,10542.0
63054.14317426035,10530.0
63054.1531770303,10513.0
63054.163179800235,10506.0
63054.17318257018,10518.0
63054.183185340116,10475.0
63054.19318811006,10546.0
63054.20319088,10496.0
63054.21319364994,10492.0
63054.22319641988,10496.0
63054.233199189825,10483.0
63054.24320195976,10534.0
63054.253204729706,10503.0
63054.26320749965,10488.0
63054.27321026959,10512.0
63054.28321303953,10484.0
63054.29321580947,10495.0
63054.303218579415,10520.0
63054.31322134935,10498.0
63054.323224119296,10518.0
63054.33322688923,10476.0
63054.34322965918,10495.0
63054.353232429115,10518.0
63054.36323519906,10473.0
63054.373237969,10494.0
63054.38324073894,10495.0
63054.39324350888,10471.0
63054.403246278824,10524.0
63054.41324904876,10507.0
63054.423251818705,10487.0
63054.43325458864,10508.0
63054.44325735859,10515.0
63054.45326012853,10518.0
63054.46326289847,10515.0
63054.473265668414,10511.0
63054.48326843835,10550.0
63054.493271208295,10520.0
63054.50327397823,10584.0
63054.51327674818,10564.0
63054.523279518115,10540.0
63054.53328228806,10591.0
63054.543285058,10571.0
63054.55328782794,10569.0
63054.56329059788,10609.0
63054.57329336782,10569.0
63054.58329613776,10595.0
63054.593298907705,10629.0
63054.60330167764,10592.0
63054.61330444759,10631.0
63054.623307217524,10626.0
63054.63330998747,10621.0
63054.64331275741,10657.0
63054.65331552735,10632.0
63054.663318297295,10658.0
63054.67332106723,10669.0
63054.68332383718,10658.0
63054.693326607114,10659.0
63054.70332937706,10681.0
63054.713332146996,10680.0
63054.72333491694,10675.0
63054.73333768688,10715.0
63054.74334045682,10700.0
63054.75334322676,10735.0
63054.763345996704,10719.0
63054.77334876664,10748.0
63054.783351536586,10738.0
63054.79335430652,10737.0
63054.80335707647,10736.0
63054.813359846405,10755.0
63054.82336261635,10774.0
63054.833365386294,10795.0
63054.84336815623,10756.0
63054.853370926176,10792.0
63054.86337369611,10773.0
63054.87337646606,10781.0
63054.883379235995,10797.0
63054.89338200594,10750.0
63054.90338477588,10750.0
63054.91338754582,10721.0
63054.92339031576,10713.0
63054.9333930857,10731.0
63054.94339585564,10690.0
63054.953398625585,10644.0
63054.96340139552,10650.0
63054.97340416547,10630.0
63054.983406935404,10643.0
63054.99340970535,10603.0
63055.003412475286,10596.0
63055.01341524523,10615.0
63055.02341801517,10606.0
63055.03342078511,10594.0
63055.04342355506,10576.0
63055.053426324994,10603.0
63055.06342909494,10586.0
63055.073431864876,10614.0
63055.08343463482,10592.0
63055.09343740476,10622.0
63055.1034401747,10591.0
63055.11344294464,10617.0
63055.123445714584,10576.0
63055.13344848452,10570.0
63055.143451254466,10601.0
63055.1534540244,10604.0
63055.16345679435,10623.0
63055.173459564285,10600.0
63055.18346233423,10616.0
63055.19346510417,10601.0
63055.20346787411,10631.0
63055.21347064405,10600.0
63055.22347341399,10619.0
63055.23347618394,10634.0
63055.243478953875,10604.0
63055.25348172382,10639.0
63055.26348449376,10636.0
63055.2734872637,10608.0
63055.28349003364,10625.0
63055.29349280358,10643.0
63055.30349557352,10619.0
63055.313498343465,10666.0
63055.3235011134,10631.0
63055.33350388335,10648.0
63055.343506653284,10649.0
63055.35350942323,10672.0
63055.363512193166,10664.0
63055.37351496311,10663.0
63055.38351773305,10663.0
63055.39352050299,10671.0
63055.40352327293,10708.0
63055.413526042874,10718.0
63055.42352881282,10706.0
63055.433531582756,10707.0
63055.4435343527,10722.0
63055.45353712264,10705.0
63055.46353989258,10716.0
63055.47354266252,10747.0
63055.483545432464,10754.0
63055.4935482024,10738.0
63055.503550972346,10757.0
63055.51355374228,10774.0
63055.52355651223,10800.0
63055.533559282165,10778.0
63055.54356205211,10805.0
63055.55356482205,10795.0
63055.56356759199,10812.0
63055.57357036193,10802.0
63055.58357313187,10825.0
63055.59357590181,10820.0
63055.603578671755,10853.0
63055.61358144169,10826.0
63055.62358421164,10832.0
63055.63358698158,10853.0
63055.64358975152,10846.0
63055.65359252146,10890.0
63055.6635952914,10927.0
63055.673598061345,10897.0
63055.68360083128,10882.0
63055.69360360123,10920.0
63055.703606371164,10938.0
63055.71360914111,10913.0
63055.723611911046,10953.0
63055.73361468099,10942.0
63055.74361745093,10965.0
63055.75362022087,10956.0
63055.76362299081,10982.0
63055.773625760754,10978.0
63055.78362853069,10972.0
63055.793631300636,10987.0
63055.80363407057,10985.0
63055.81363684052,10990.0
63055.82363961046,10989.0
63055.8336423804,10958.0
63055.843645150344,10938.0
63055.85364792028,10924.0
63055.863650690226,10900.0
63055.87365346016,10882.0
63055.88365623011,10894.0
63055.893659000045,10834.0
63055.90366176999,10841.0
63055.91366453993,10823.0
63055.92366730987,10789.0
63055.93367007981,10801.0
63055.94367284975,10767.0
63055.95367561969,10787.0
63055.963678389635,10757.0
63055.97368115957,10754.0
63055.98368392952,10800.0
63055.993686699454,10753.0
63056.0036894694,10750.0
63056.01369223934,10754.0
63056.02369500928,10744.0
63056.033697779225,10758.0
63056.04370054916,10746.0
63056.05370331911,10759.0
63056.063706089044,10743.0
63056.07370885899,10755.0
63056.083711628926,10743.0
63056.09371439887,10767.0
63056.10371716881,10732.0
63056.11371993875,10754.0
63056.12372270869,10768.0
63056.133725478634,10741.0
63056.14372824857,10768.0
63056.153731018516,10748.0
63056.16373378845,10758.0
63056.1737365584,10775.0
63056.183739328335,10751.0
63056.19374209828,10787.0
63056.203744868224,10748.0
63056.21374763816,10756.0
63056.223750408106,10794.0
63056.23375317804,10787.0
63056.24375594799,10762.0
63056.253758717925,10798.0
63056.26376148787,10783.0
63056.27376425781,10812.0
63056.28376702775,10794.0
63056.29376979769,10763.0
63056.30377256763,10824.0
63056.31377533757,10798.0
63056.323778107515,10847.0
63056.33378087745,10815.0
63056.3437836474,10813.0
63056.353786417334,10806.0
63056.36378918728,10836.0
63056.373791957216,10826.0
63056.38379472716,10865.0
63056.3937974971,10838.0
63056.40380026704,10857.0
63056.41380303699,10880.0
63056.423805806924,10858.0
63056.43380857687,10907.0
63056.443811346806,10879.0
63056.45381411675,10890.0
63056.46381688669,10900.0
63056.47381965663,10884.0
63056.48382242657,10912.0
63056.493825196514,10918.0
63056.50382796645,10915.0
63056.513830736396,10952.0
63056.52383350633,10939.0
63056.53383627628,10932.0
63056.543839046215,10959.0
63056.55384181616,10960.0
63056.5638445861,10958.0
63056.57384735604,10979.0
63056.58385012598,10999.0
63056.59385289592,10989.0
63056.60385566587,10981.0
63056.613858435805,10974.0
63056.62386120575,11017.0
63056.63386397569,11011.0
63056.64386674563,11014.0
63056.65386951557,11015.0
63056.66387228551,11055.0
63056.67387505545,11026.0
63056.683877825395,11047.0
63056.69388059533,11032.0
63056.70388336528,11035.0
63056.713886135214,11057.0
63056.72388890516,11099.0
63056.733891675096,11086.0
63056.74389444504,11092.0
63056.75389721498,11102.0
63056.76389998492,11100.0
63056.77390275486,11104.0
63056.783905524804,11122.0
63056.79390829475,11104.0
63056.803911064686,11119.0
63056.81391383463,11110.0
63056.82391660457,11085.0
63056.83391937451,11117.0
63056.84392214445,11073.0
63056.853924914394,11111.0
63056.86392768433,11058.0
63056.873930454276,11021.0
63056.88393322421,10997.0
63056.89393599416,10985.0
63056.903938764095,10953.0
63056.91394153404,10939.0
63056.92394430398,10939.0
63056.93394707392,10912.0
63056.94394984386,10950.0
63056.9539526138,10905.0
63056.96395538374,10899.0
63056.973958153685,10887.0
63056.98396092362,10897.0
63056.99396369357,10881.0
63057.00396646351,10875.0
63057.01396923345,10868.0
63057.02397200339,10855.0
63057.03397477333,10860.0
63057.043977543275,10852.0
63057.05398031321,10878.0
63057.06398308316,10887.0
63057.073985853094,10834.0
63057.08398862304,10853.0
63057.093991392976,10860.0
63057.10399416292,10874.0
63057.11399693286,10857.0
63057.1239997028,10846.0
63057.13400247274,10854.0
63057.144005242684,10831.0
63057.15400801262,10848.0
63057.164010782566,10837.0
63057.1740135525,10855.0
63057.18401632245,10854.0
63057.19401909239,10850.0
63057.20402186233,10854.0
63057.214024632274,10856.0
63057.22402740221,10848.0
63057.234030172156,10850.0
63057.24403294209,10886.0
63057.25403571204,10879.0
63057.264038481975,10869.0
63057.27404125192,10890.0
63057.28404402186,10861.0
63057.2940467918,10874.0
63057.30404956174,10874.0
63057.31405233168,10889.0
63057.32405510162,10926.0
63057.334057871565,10897.0
63057.3440606415,10895.0
63057.35406341145,10907.0
63057.364066181384,10891.0
63057.37406895133,10911.0
63057.38407172127,10959.0
63057.39407449121,10918.0
63057.404077261155,10933.0
63057.41408003109,10936.0
63057.42408280104,10920.0
63057.434085570974,10957.0
63057.44408834092,10946.0
63057.454091110856,10964.0
63057.4640938808,10985.0
63057.47409665074,10964.0
