timestamp,time_from_start_sec,PPG_1,PPG_2,PPG_3
62847.57026220311,0.0,172396.0,142746.0,13878.0
62847.580371367214,0.010109164104505908,172358.0,142733.0,13864.0
62847.590480531326,0.020218328216287773,172369.0,142742.0,13862.0
62847.60058969543,0.03032749232079368,172381.0,142732.0,13891.0
62847.610698859535,0.04043665642529959,172391.0,142746.0,13866.0
62847.62080802365,0.050545820537081454,172388.0,142707.0,13871.0
62847.63091718775,0.06065498464158736,172397.0,142753.0,13885.0
62847.641026351856,0.07076414874609327,172380.0,142748.0,13886.0
62847.65113551597,0.08087331285787513,172364.0,142719.0,13899.0
62847.66124468007,0.09098247696238104,172380.0,142722.0,13877.0
62847.671353844176,0.10109164106688695,172362.0,142751.0,13885.0
62847.68146300829,0.11120080517866882,172383.0,142751.0,13869.0
62847.69157217239,0.12130996928317472,172363.0,142712.0,13884.0
62847.7016813365,0.13141913338768063,172351.0,142716.0,13904.0
62847.71179050061,0.1415282974994625,172379.0,142719.0,13924.0
62847.72189966471,0.1516374616039684,172392.0,142738.0,13887.0
62847.73200882882,0.1617466257084743,172367.0,142732.0,13875.0
62847.74211799292,0.17185578981298022,172365.0,142719.0,13887.0
62847.752227157034,0.18196495392476209,172379.0,142729.0,13886.0
62847.76233632114,0.192074118029268,172385.0,142739.0,13891.0
62847.77244548524,0.2021832821337739,172338.0,142760.0,13884.0
62847.782554649355,0.21229244624555577,172357.0,142714.0,13904.0
62847.79266381346,0.22240161035006167,172386.0,142721.0,13891.0
62847.802772977564,0.23251077445456758,172404.0,142743.0,13900.0
62847.812882141676,0.24261993856634945,172361.0,142726.0,13905.0
62847.82299130578,0.25272910267085535,172392.0,142754.0,13889.0
62847.833100469885,0.26283826677536126,172358.0,142723.0,13879.0
62847.843209634,0.2729474308871431,172384.0,142733.0,13891.0
62847.8533187981,0.28305659499164904,172426.0,142730.0,13902.0
62847.863427962206,0.29316575909615494,172391.0,142738.0,13875.0
62847.87353712632,0.3032749232079368,172364.0,142728.0,13867.0
62847.88364629042,0.3133840873124427,172397.0,142746.0,13887.0
62847.89375545453,0.3234932514169486,172419.0,142758.0,13883.0
62847.90386461864,0.3336024155287305,172412.0,142741.0,13881.0
62847.91397378274,0.3437115796332364,172380.0,142758.0,13874.0
62847.92408294685,0.3538207437377423,172397.0,142735.0,13884.0
62847.93419211096,0.36392990784952417,172374.0,142763.0,13899.0
62847.94430127506,0.3740390719540301,172377.0,142759.0,13891.0
62847.95441043917,0.384148236058536,172362.0,142721.0,13885.0
62847.96451960328,0.39425740017031785,172398.0,142735.0,13904.0
62847.974628767384,0.40436656427482376,172384.0,142708.0,13891.0
62847.98473793149,0.41447572837932967,172434.0,142725.0,13907.0
62847.9948470956,0.42458489249111153,172408.0,142759.0,13922.0
62848.004956259705,0.43469405659561744,172397.0,142731.0,13882.0
62848.01506542381,0.44480322070012335,172402.0,142738.0,13897.0
62848.02517458792,0.4549123848119052,172391.0,142715.0,13884.0
62848.035283752026,0.4650215489164111,172389.0,142716.0,13886.0
62848.04539291613,0.47513071302091703,172398.0,142732.0,13894.0
62848.055502080235,0.48523987712542294,172394.0,142737.0,13888.0
62848.06561124435,0.4953490412372048,172395.0,142749.0,13931.0
62848.07572040845,0.5054582053417107,172359.0,142734.0,13909.0
62848.085829572556,0.5155673694462166,172378.0,142725.0,13896.0
62848.09593873667,0.5256765335579985,172403.0,142737.0,13906.0
62848.10604790077,0.5357856976625044,172417.0,142740.0,13890.0
62848.11615706488,0.5458948617670103,172426.0,142759.0,13917.0
62848.12626622899,0.5560040258787922,172403.0,142736.0,13889.0
62848.13637539309,0.5661131899832981,172414.0,142730.0,13902.0
62848.1464845572,0.576222354087804,172441.0,142750.0,13905.0
62848.15659372131,0.5863315181995858,172405.0,142716.0,13920.0
62848.16670288541,0.5964406823040918,172409.0,142735.0,13889.0
62848.17681204952,0.6065498464085977,172424.0,142726.0,13894.0
62848.18692121363,0.6166590105203795,172387.0,142742.0,13901.0
62848.197030377734,0.6267681746248854,172439.0,142760.0,13920.0
62848.20713954184,0.6368773387293913,172399.0,142720.0,13881.0
62848.21724870595,0.6469865028411732,172420.0,142763.0,13906.0
62848.227357870055,0.6570956669456791,172404.0,142755.0,13915.0
62848.23746703416,0.667204831050185,172394.0,142732.0,13921.0
62848.24757619827,0.6773139951619669,172414.0,142712.0,13869.0
62848.257685362376,0.6874231592664728,172430.0,142729.0,13888.0
62848.26779452648,0.6975323233709787,172416.0,142730.0,13911.0
62848.27790369059,0.7076414874827606,172421.0,142714.0,13910.0
62848.2880128547,0.7177506515872665,172373.0,142721.0,13877.0
62848.2981220188,0.7278598156917724,172393.0,142729.0,13899.0
62848.30823118291,0.7379689798035542,172364.0,142729.0,13872.0
62848.31834034702,0.7480781439080602,172368.0,142754.0,13896.0
62848.32844951112,0.7581873080125661,172372.0,142707.0,13887.0
62848.338558675234,0.7682964721243479,172386.0,142741.0,13880.0
62848.34866783934,0.7784056362288538,172356.0,142759.0,13918.0
62848.35877700344,0.7885148003333597,172403.0,142734.0,13920.0
62848.36888616755,0.7986239644378657,172359.0,142704.0,13875.0
62848.37899533166,0.8087331285496475,172385.0,142732.0,13886.0
62848.38910449576,0.8188422926541534,172388.0,142694.0,13882.0
62848.39921365987,0.8289514567586593,172388.0,142756.0,13900.0
62848.40932282398,0.8390606208704412,172384.0,142704.0,13885.0
62848.419431988084,0.8491697849749471,172433.0,142731.0,13915.0
62848.42954115219,0.859278949079453,172390.0,142743.0,13890.0
62848.4396503163,0.8693881131912349,172395.0,142725.0,13895.0
62848.449759480405,0.8794972772957408,172377.0,142727.0,13887.0
62848.45986864451,0.8896064414002467,172390.0,142758.0,13886.0
62848.46997780862,0.8997156055120286,172401.0,142740.0,13897.0
62848.480086972726,0.9098247696165345,172375.0,142731.0,13909.0
62848.49019613683,0.9199339337210404,172366.0,142730.0,13906.0
62848.50030530094,0.9300430978328222,172403.0,142757.0,13919.0
62848.51041446505,0.9401522619373281,172398.0,142734.0,13908.0
62848.52052362915,0.9502614260418341,172387.0,142719.0,13907.0
62848.53063279326,0.9603705901536159,172402.0,142749.0,13875.0
62848.54074195737,0.9704797542581218,172393.0,142724.0,13882.0
62848.55085112147,0.9805889183626277,172388.0,142730.0,13897.0
62848.560960285584,0.9906980824744096,172420.0,142763.0,13890.0
62848.57106944969,1.0008072465789155,172385.0,142741.0,13881.0
62848.58117861379,1.0109164106834214,172383.0,142731.0,13878.0
62848.591287777905,1.0210255747952033,172399.0,142739.0,13885.0
62848.60139694201,1.0311347388997092,172402.0,142767.0,13894.0
62848.611506106114,1.041243903004215,172370.0,142725.0,13855.0
62848.621615270225,1.051353067115997,172408.0,142729.0,13894.0
62848.63172443433,1.0614622312205029,172392.0,142732.0,13888.0
62848.641833598434,1.0715713953250088,172397.0,142746.0,13896.0
62848.651942762546,1.0816805594367906,172378.0,142709.0,13907.0
62848.66205192665,1.0917897235412966,172388.0,142736.0,13884.0
62848.672161090755,1.1018988876458025,172403.0,142737.0,13886.0
62848.68227025486,1.1120080517503084,172412.0,142733.0,13911.0
62848.69237941897,1.1221172158620902,172422.0,142721.0,13908.0
62848.702488583076,1.1322263799665961,172408.0,142708.0,13894.0
62848.71259774718,1.142335544071102,172409.0,142744.0,13897.0
62848.72270691129,1.152444708182884,172455.0,142762.0,13895.0
62848.7328160754,1.1625538722873898,172383.0,142746.0,13873.0
62848.7429252395,1.1726630363918957,172386.0,142718.0,13886.0
62848.75303440361,1.1827722005036776,172413.0,142754.0,13893.0
62848.76314356772,1.1928813646081835,172399.0,142770.0,13901.0
62848.77325273182,1.2029905287126894,172434.0,142736.0,13916.0
62848.783361895934,1.2130996928244713,172397.0,142709.0,13894.0
62848.79347106004,1.2232088569289772,172413.0,142740.0,13891.0
62848.80358022414,1.233318021033483,172410.0,142742.0,13902.0
62848.813689388255,1.243427185145265,172403.0,142726.0,13904.0
62848.82379855236,1.2535363492497709,172399.0,142738.0,13885.0
62848.833907716464,1.2636455133542768,172415.0,142740.0,13906.0
62848.844016880576,1.2737546774660586,172415.0,142762.0,13898.0
62848.85412604468,1.2838638415705645,172406.0,142762.0,13901.0
62848.864235208785,1.2939730056750705,172388.0,142737.0,13886.0
62848.874344372896,1.3040821697868523,172415.0,142733.0,13884.0
62848.884453537,1.3141913338913582,172409.0,142743.0,13901.0
62848.894562701105,1.3243004979958641,172435.0,142758.0,13920.0
62848.90467186522,1.334409662107646,172423.0,142749.0,13923.0
62848.91478102932,1.344518826212152,172401.0,142728.0,13876.0
62848.924890193426,1.3546279903166578,172431.0,142745.0,13905.0
62848.93499935754,1.3647371544284397,172423.0,142731.0,13897.0
62848.94510852164,1.3748463185329456,172400.0,142723.0,13901.0
62848.95521768575,1.3849554826374515,172445.0,142714.0,13892.0
62848.96532684986,1.3950646467492334,172426.0,142744.0,13903.0
62848.97543601396,1.4051738108537393,172428.0,142727.0,13895.0
62848.98554517807,1.4152829749582452,172428.0,142737.0,13903.0
62848.99565434217,1.425392139062751,172418.0,142725.0,13882.0
62849.005763506284,1.435501303174533,172439.0,142751.0,13892.0
62849.01587267039,1.4456104672790389,172431.0,142773.0,13907.0
62849.02598183449,1.4557196313835448,172398.0,142729.0,13893.0
62849.036090998605,1.4658287954953266,172415.0,142720.0,13883.0
62849.04620016271,1.4759379595998325,172428.0,142751.0,13904.0
62849.056309326814,1.4860471237043384,172432.0,142731.0,13922.0
62849.066418490926,1.4961562878161203,172452.0,142786.0,13918.0
62849.07652765503,1.5062654519206262,172413.0,142733.0,13893.0
62849.086636819135,1.5163746160251321,172455.0,142747.0,13901.0
62849.09674598325,1.526483780136914,172439.0,142726.0,13896.0
62849.10685514735,1.53659294424142,172461.0,142749.0,13916.0
62849.116964311455,1.5467021083459258,172428.0,142704.0,13893.0
62849.12707347557,1.5568112724577077,172449.0,142735.0,13902.0
62849.13718263967,1.5669204365622136,172441.0,142743.0,13884.0
62849.147291803776,1.5770296006667195,172392.0,142701.0,13859.0
62849.15740096789,1.5871387647785014,172425.0,142721.0,13885.0
62849.16751013199,1.5972479288830073,172434.0,142755.0,13902.0
62849.1776192961,1.6073570929875132,172448.0,142749.0,13897.0
62849.18772846021,1.617466257099295,172476.0,142750.0,13921.0
62849.19783762431,1.627575421203801,172432.0,142740.0,13891.0
62849.20794678842,1.6376845853083069,172445.0,142738.0,13887.0
62849.21805595253,1.6477937494200887,172438.0,142708.0,13900.0
62849.228165116634,1.6579029135245946,172461.0,142750.0,13926.0
62849.23827428074,1.6680120776291005,172411.0,142721.0,13889.0
62849.24838344485,1.6781212417408824,172429.0,142744.0,13894.0
62849.258492608955,1.6882304058453883,172422.0,142743.0,13895.0
62849.26860177306,1.6983395699498942,172424.0,142731.0,13896.0
62849.27871093717,1.708448734061676,172387.0,142709.0,13870.0
62849.288820101276,1.718557898166182,172412.0,142733.0,13860.0
62849.29892926538,1.728667062270688,172409.0,142731.0,13900.0
62849.309038429485,1.7387762263751938,172405.0,142758.0,13913.0
62849.3191475936,1.7488853904869757,172412.0,142718.0,13896.0
62849.3292567577,1.7589945545914816,172408.0,142738.0,13880.0
62849.339365921805,1.7691037186959875,172427.0,142741.0,13887.0
62849.34947508592,1.7792128828077693,172443.0,142742.0,13922.0
62849.35958425002,1.7893220469122753,172397.0,142724.0,13895.0
62849.369693414126,1.7994312110167812,172423.0,142730.0,13895.0
62849.37980257824,1.809540375128563,172426.0,142744.0,13904.0
62849.38991174234,1.819649539233069,172443.0,142760.0,13892.0
62849.40002090645,1.8297587033375748,172420.0,142748.0,13910.0
62849.41013007056,1.8398678674493567,172410.0,142714.0,13866.0
62849.42023923466,1.8499770315538626,172414.0,142746.0,13891.0
62849.43034839877,1.8600861956583685,172409.0,142761.0,13890.0
62849.44045756288,1.8701953597701504,172448.0,142727.0,13912.0
62849.450566726984,1.8803045238746563,172446.0,142746.0,13871.0
62849.46067589109,1.8904136879791622,172430.0,142747.0,13903.0
62849.4707850552,1.900522852090944,172404.0,142728.0,13888.0
62849.480894219305,1.91063201619545,172427.0,142749.0,13905.0
62849.49100338341,1.9207411802999559,172429.0,142716.0,13884.0
62849.50111254752,1.9308503444117378,172435.0,142748.0,13893.0
62849.511221711626,1.9409595085162437,172429.0,142720.0,13888.0
62849.52133087573,1.9510686726207496,172453.0,142742.0,13909.0
62849.53144003984,1.9611778367325314,172425.0,142718.0,13886.0
62849.54154920395,1.9712870008370373,172446.0,142760.0,13894.0
62849.55165836805,1.9813961649415432,172450.0,142721.0,13889.0
62849.56176753216,1.9915053290533251,172428.0,142748.0,13919.0
62849.57187669627,2.001614493157831,172433.0,142741.0,13887.0
62849.58198586037,2.011723657262337,172436.0,142745.0,13885.0
62849.59209502448,2.021832821374119,172394.0,142746.0,13887.0
62849.60220418859,2.0319419854786247,172457.0,142766.0,13913.0
62849.61231335269,2.0420511495831306,172416.0,142725.0,13904.0
62849.6224225168,2.0521603136876365,172411.0,142748.0,13883.0
62849.63253168091,2.0622694777994184,172434.0,142720.0,13907.0
62849.64264084501,2.0723786419039243,172463.0,142763.0,13889.0
62849.65275000912,2.08248780600843,172420.0,142733.0,13885.0
62849.66285917323,2.092596970120212,172431.0,142731.0,13886.0
62849.672968337334,2.102706134224718,172447.0,142746.0,13905.0
62849.68307750144,2.112815298329224,172478.0,142771.0,13925.0
62849.69318666555,2.1229244624410057,172415.0,142747.0,13886.0
62849.703295829655,2.1330336265455117,172424.0,142735.0,13886.0
62849.71340499376,2.1431427906500176,172435.0,142746.0,13907.0
62849.72351415787,2.1532519547617994,172426.0,142739.0,13899.0
62849.733623321976,2.1633611188663053,172428.0,142734.0,13908.0
62849.74373248608,2.1734702829708112,172429.0,142756.0,13905.0
62849.75384165019,2.183579447082593,172437.0,142746.0,13905.0
62849.7639508143,2.193688611187099,172480.0,142739.0,13920.0
62849.7740599784,2.203797775291605,172444.0,142722.0,13901.0
62849.78416914251,2.213906939403387,172462.0,142745.0,13905.0
62849.79427830662,2.2240161035078927,172450.0,142750.0,13906.0
62849.80438747072,2.2341252676123986,172465.0,142768.0,13883.0
62849.81449663483,2.2442344317241805,172474.0,142771.0,13929.0
62849.82460579894,2.2543435958286864,172383.0,142710.0,13867.0
62849.83471496304,2.2644527599331923,172432.0,142747.0,13905.0
62849.844824127154,2.274561924044974,172410.0,142755.0,13887.0
62849.85493329126,2.28467108814948,172470.0,142767.0,13927.0
62849.86504245536,2.294780252253986,172447.0,142728.0,13897.0
62849.875151619475,2.304889416365768,172447.0,142745.0,13899.0
62849.88526078358,2.3149985804702737,172444.0,142766.0,13925.0
62849.895369947684,2.3251077445747796,172468.0,142762.0,13920.0
62849.905479111796,2.3352169086865615,172438.0,142742.0,13919.0
62849.9155882759,2.3453260727910674,172453.0,142748.0,13896.0
62849.925697440005,2.3554352368955733,172435.0,142741.0,13885.0
62849.93580660411,2.3655444010000792,172452.0,142781.0,13935.0
62849.94591576822,2.375653565111861,172430.0,142734.0,13887.0
62849.956024932326,2.385762729216367,172445.0,142732.0,13885.0
62849.96613409643,2.395871893320873,172465.0,142773.0,13921.0
62849.97624326054,2.405981057432655,172469.0,142746.0,13917.0
62849.98635242465,2.4160902215371607,172431.0,142730.0,13884.0
62849.99646158875,2.4261993856416666,172465.0,142753.0,13889.0
62850.00657075286,2.4363085497534485,172451.0,142740.0,13934.0
62850.01667991697,2.4464177138579544,172472.0,142775.0,13917.0
62850.02678908107,2.4565268779624603,172467.0,142725.0,13926.0
62850.036898245184,2.466636042074242,172431.0,142755.0,13893.0
62850.04700740929,2.476745206178748,172464.0,142744.0,13903.0
62850.05711657339,2.486854370283254,172468.0,142770.0,13875.0
62850.067225737504,2.496963534395036,172450.0,142753.0,13904.0
62850.07733490161,2.5070726984995417,172483.0,142760.0,13919.0
62850.08744406571,2.5171818626040476,172456.0,142760.0,13899.0
62850.097553229825,2.5272910267158295,172457.0,142773.0,13899.0
62850.10766239393,2.5374001908203354,172477.0,142741.0,13917.0
62850.117771558034,2.5475093549248413,172421.0,142718.0,13905.0
62850.127880722146,2.557618519036623,172443.0,142746.0,13891.0
62850.13798988625,2.567727683141129,172429.0,142724.0,13893.0
62850.148099050355,2.577836847245635,172419.0,142711.0,13870.0
62850.15820821447,2.587946011357417,172413.0,142744.0,13874.0
62850.16831737857,2.5980551754619228,172431.0,142748.0,13897.0
62850.178426542676,2.6081643395664287,172435.0,142752.0,13900.0
62850.18853570679,2.6182735036782105,172439.0,142720.0,13880.0
62850.19864487089,2.6283826677827165,172438.0,142720.0,13885.0
62850.208754035,2.6384918318872224,172449.0,142753.0,13895.0
62850.21886319911,2.6486009959990042,172436.0,142763.0,13876.0
62850.22897236321,2.65871016010351,172459.0,142746.0,13908.0
62850.23908152732,2.668819324208016,172424.0,142753.0,13893.0
62850.24919069142,2.678928488312522,172436.0,142747.0,13893.0
62850.259299855534,2.689037652424304,172417.0,142756.0,13893.0
62850.26940901964,2.6991468165288097,172431.0,142741.0,13886.0
62850.27951818374,2.7092559806333156,172440.0,142723.0,13907.0
62850.289627347855,2.7193651447450975,172429.0,142750.0,13898.0
62850.29973651196,2.7294743088496034,172426.0,142734.0,13900.0
62850.30984567606,2.7395834729541093,172469.0,142760.0,13883.0
62850.319954840175,2.749692637065891,172471.0,142762.0,13917.0
62850.33006400428,2.759801801170397,172446.0,142752.0,13892.0
62850.340173168384,2.769910965274903,172422.0,142722.0,13886.0
62850.350282332496,2.780020129386685,172433.0,142787.0,13917.0
62850.3603914966,2.7901292934911908,172441.0,142750.0,13895.0
62850.370500660705,2.8002384575956967,172449.0,142749.0,13906.0
62850.38060982482,2.8103476217074785,172440.0,142747.0,13879.0
62850.39071898892,2.8204567858119844,172463.0,142751.0,13919.0
62850.400828153026,2.8305659499164904,172466.0,142774.0,13913.0
62850.41093731714,2.840675114028272,172439.0,142761.0,13882.0
62850.42104648124,2.850784278132778,172428.0,142735.0,13910.0
62850.43115564535,2.860893442237284,172445.0,142754.0,13899.0
62850.44126480946,2.871002606349066,172455.0,142778.0,13920.0
62850.45137397356,2.881111770453572,172417.0,142749.0,13876.0
62850.46148313767,2.8912209345580777,172456.0,142742.0,13899.0
62850.47159230178,2.9013300986698596,172471.0,142763.0,13911.0
62850.481701465884,2.9114392627743655,172433.0,142719.0,13893.0
62850.49181062999,2.9215484268788714,172406.0,142724.0,13897.0
62850.5019197941,2.9316575909906533,172450.0,142755.0,13895.0
62850.512028958205,2.941766755095159,172401.0,142749.0,13882.0
62850.52213812231,2.951875919199665,172462.0,142746.0,13902.0
62850.53224728642,2.961985083311447,172444.0,142742.0,13880.0
62850.542356450525,2.972094247415953,172450.0,142752.0,13909.0
62850.55246561463,2.9822034115204588,172438.0,142736.0,13878.0
62850.562574778734,2.9923125756249647,172475.0,142763.0,13914.0
62850.572683942846,3.0024217397367465,172441.0,142768.0,13894.0
62850.58279310695,3.0125309038412524,172461.0,142750.0,13910.0
62850.592902271055,3.0226400679457583,172473.0,142756.0,13910.0
62850.60301143517,3.03274923205754,172466.0,142777.0,13926.0
62850.61312059927,3.042858396162046,172444.0,142772.0,13889.0
62850.623229763376,3.052967560266552,172445.0,142732.0,13890.0
62850.63333892749,3.063076724378334,172448.0,142754.0,13882.0
62850.64344809159,3.07318588848284,172463.0,142733.0,13902.0
62850.6535572557,3.0832950525873457,172469.0,142770.0,13890.0
62850.66366641981,3.0934042166991276,172457.0,142747.0,13895.0
62850.67377558391,3.1035133808036335,172427.0,142735.0,13909.0
62850.68388474802,3.1136225449081394,172483.0,142773.0,13939.0
62850.69399391213,3.1237317090199213,172441.0,142736.0,13909.0
62850.704103076234,3.133840873124427,172458.0,142751.0,13904.0
62850.71421224034,3.143950037228933,172444.0,142750.0,13900.0
62850.72432140445,3.154059201340715,172441.0,142746.0,13888.0
62850.734430568555,3.164168365445221,172472.0,142770.0,13908.0
62850.74453973266,3.1742775295497268,172462.0,142748.0,13902.0
62850.75464889677,3.1843866936615086,172438.0,142728.0,13880.0
62850.764758060875,3.1944958577660145,172425.0,142758.0,13916.0
62850.77486722498,3.2046050218705204,172421.0,142728.0,13876.0
62850.78497638909,3.2147141859823023,172456.0,142741.0,13893.0
62850.795085553196,3.224823350086808,172472.0,142750.0,13876.0
62850.8051947173,3.234932514191314,172485.0,142764.0,13912.0
62850.81530388141,3.245041678303096,172473.0,142767.0,13914.0
62850.82541304552,3.255150842407602,172472.0,142747.0,13930.0
62850.83552220962,3.265260006512108,172487.0,142770.0,13909.0
62850.84563137373,3.2753691706238897,172439.0,142728.0,13901.0
62850.85574053784,3.2854783347283956,172443.0,142770.0,13911.0
62850.86584970194,3.2955874988329015,172445.0,142759.0,13885.0
62850.87595886605,3.3056966629374074,172489.0,142743.0,13916.0
62850.88606803016,3.3158058270491892,172468.0,142774.0,13887.0
62850.89617719426,3.325914991153695,172449.0,142742.0,13894.0
62850.90628635837,3.336024155258201,172455.0,142759.0,13878.0
62850.91639552248,3.346133319369983,172460.0,142753.0,13904.0
62850.926504686584,3.356242483474489,172446.0,142746.0,13890.0
62850.93661385069,3.3663516475789947,172462.0,142757.0,13893.0
62850.9467230148,3.3764608116907766,172429.0,142763.0,13902.0
62850.956832178905,3.3865699757952825,172444.0,142753.0,13900.0
62850.96694134301,3.3966791398997884,172427.0,142721.0,13888.0
62850.97705050712,3.4067883040115703,172418.0,142734.0,13895.0
62850.987159671226,3.416897468116076,172430.0,142740.0,13872.0
62850.99726883533,3.427006632220582,172444.0,142745.0,13901.0
62851.00737799944,3.437115796332364,172404.0,142736.0,13879.0
62851.017487163546,3.44722496043687,172399.0,142742.0,13897.0
62851.02759632765,3.457334124541376,172464.0,142771.0,13930.0
62851.03770549176,3.4674432886531577,172435.0,142727.0,13898.0
62851.04781465587,3.4775524527576636,172436.0,142743.0,13901.0
62851.05792381997,3.4876616168621695,172455.0,142769.0,13902.0
62851.06803298408,3.4977707809739513,172445.0,142767.0,13870.0
62851.07814214819,3.5078799450784572,172428.0,142738.0,13890.0
62851.08825131229,3.517989109182963,172417.0,142750.0,13888.0
62851.098360476404,3.528098273294745,172464.0,142759.0,13904.0
62851.10846964051,3.538207437399251,172416.0,142769.0,13898.0
62851.11857880461,3.548316601503757,172426.0,142746.0,13892.0
62851.128687968725,3.5584257656155387,172421.0,142744.0,13908.0
62851.13879713283,3.5685349297200446,172406.0,142733.0,13894.0
62851.148906296934,3.5786440938245505,172441.0,142741.0,13901.0
62851.159015461046,3.5887532579363324,172392.0,142712.0,13887.0
62851.16912462515,3.5988624220408383,172436.0,142729.0,13880.0
62851.179233789255,3.608971586145344,172413.0,142719.0,13891.0
62851.18934295336,3.61908075024985,172456.0,142749.0,13883.0
62851.19945211747,3.629189914361632,172428.0,142746.0,13899.0
62851.209561281576,3.639299078466138,172466.0,142763.0,13898.0
62851.21967044568,3.649408242570644,172414.0,142724.0,13869.0
62851.22977960979,3.6595174066824256,172457.0,142765.0,13886.0
62851.2398887739,3.6696265707869316,172441.0,142755.0,13915.0
62851.249997938,3.6797357348914375,172441.0,142764.0,13896.0
62851.26010710211,3.6898448990032193,172423.0,142731.0,13884.0
62851.27021626622,3.6999540631077252,172405.0,142751.0,13891.0
62851.28032543032,3.710063227212231,172428.0,142753.0,13884.0
62851.29043459443,3.720172391324013,172447.0,142713.0,13888.0
62851.30054375854,3.730281555428519,172416.0,142732.0,13890.0
62851.31065292264,3.740390719533025,172416.0,142739.0,13901.0
62851.320762086754,3.7504998836448067,172464.0,142764.0,13905.0
62851.33087125086,3.7606090477493126,172445.0,142742.0,13906.0
62851.34098041496,3.7707182118538185,172413.0,142758.0,13930.0
62851.351089579075,3.7808273759656004,172439.0,142736.0,13880.0
62851.36119874318,3.7909365400701063,172449.0,142758.0,13916.0
62851.371307907284,3.801045704174612,172434.0,142757.0,13895.0
62851.381417071396,3.811154868286394,172473.0,142733.0,13905.0
62851.3915262355,3.8212640323909,172429.0,142765.0,13921.0
62851.401635399605,3.831373196495406,172423.0,142748.0,13926.0
62851.41174456372,3.8414823606071877,172441.0,142736.0,13895.0
62851.42185372782,3.8515915247116936,172410.0,142753.0,13893.0
62851.431962891926,3.8617006888161995,172420.0,142721.0,13887.0
62851.44207205604,3.8718098529279814,172460.0,142762.0,13927.0
62851.45218122014,3.8819190170324873,172451.0,142750.0,13893.0
62851.46229038425,3.8920281811369932,172439.0,142732.0,13894.0
62851.47239954836,3.902137345248775,172412.0,142731.0,13880.0
62851.48250871246,3.912246509353281,172468.0,142779.0,13891.0
62851.49261787657,3.922355673457787,172456.0,142754.0,13903.0
62851.50272704067,3.932464837562293,172432.0,142738.0,13934.0
62851.51283620478,3.9425740016740747,172440.0,142745.0,13880.0
62851.52294536889,3.9526831657785806,172411.0,142764.0,13907.0
62851.53305453299,3.9627923298830865,172441.0,142743.0,13905.0
62851.543163697104,3.9729014939948684,172418.0,142722.0,13895.0
62851.55327286121,3.9830106580993743,172456.0,142753.0,13936.0
62851.56338202531,3.99311982220388,172440.0,142724.0,13926.0
62851.573491189425,4.003228986315662,172438.0,142738.0,13895.0
62851.58360035353,4.013338150420168,172468.0,142760.0,13902.0
62851.593709517634,4.023447314524674,172457.0,142781.0,13922.0
62851.603818681746,4.033556478636456,172412.0,142740.0,13902.0
62851.61392784585,4.043665642740962,172445.0,142751.0,13903.0
62851.624037009955,4.0537748068454675,172470.0,142768.0,13908.0
62851.63414617407,4.063883970957249,172417.0,142746.0,13884.0
62851.64425533817,4.073993135061755,172443.0,142765.0,13902.0
62851.654364502276,4.084102299166261,172440.0,142742.0,13923.0
62851.66447366639,4.094211463278043,172447.0,142766.0,13905.0
62851.67458283049,4.104320627382549,172421.0,142722.0,13900.0
62851.6846919946,4.114429791487055,172417.0,142744.0,13895.0
62851.69480115871,4.124538955598837,172453.0,142758.0,13905.0
62851.70491032281,4.134648119703343,172432.0,142753.0,13890.0
62851.71501948692,4.144757283807849,172452.0,142759.0,13881.0
62851.72512865103,4.1548664479196304,172425.0,142719.0,13876.0
62851.73523781513,4.164975612024136,172446.0,142744.0,13895.0
62851.74534697924,4.175084776128642,172425.0,142729.0,13880.0
62851.75545614335,4.185193940240424,172410.0,142763.0,13871.0
62851.765565307454,4.19530310434493,172425.0,142744.0,13886.0
62851.77567447156,4.205412268449436,172431.0,142776.0,13918.0
62851.78578363567,4.215521432561218,172422.0,142752.0,13886.0
62851.795892799775,4.225630596665724,172413.0,142755.0,13863.0
62851.80600196388,4.23573976077023,172412.0,142724.0,13876.0
62851.816111127984,4.2458489248747355,172443.0,142762.0,13905.0
62851.826220292096,4.255958088986517,172396.0,142727.0,13887.0
62851.8363294562,4.266067253091023,172382.0,142724.0,13894.0
62851.846438620305,4.276176417195529,172385.0,142725.0,13854.0
62851.85654778442,4.286285581307311,172441.0,142745.0,13902.0
62851.86665694852,4.296394745411817,172416.0,142744.0,13890.0
62851.876766112626,4.306503909516323,172434.0,142712.0,13896.0
62851.88687527674,4.316613073628105,172378.0,142727.0,13872.0
62851.89698444084,4.326722237732611,172422.0,142759.0,13889.0
62851.90709360495,4.336831401837117,172413.0,142737.0,13892.0
62851.91720276906,4.346940565948898,172390.0,142729.0,13879.0
62851.92731193316,4.357049730053404,172393.0,142730.0,13884.0
62851.93742109727,4.36715889415791,172410.0,142758.0,13906.0
62851.94753026138,4.377268058269692,172433.0,142737.0,13886.0
62851.957639425484,4.387377222374198,172421.0,142697.0,13909.0
62851.96774858959,4.397486386478704,172434.0,142747.0,13895.0
62851.9778577537,4.407595550590486,172432.0,142730.0,13897.0
62851.987966917804,4.417704714694992,172404.0,142740.0,13894.0
62851.99807608191,4.427813878799498,172437.0,142772.0,13912.0
62852.00818524602,4.4379230429112795,172405.0,142702.0,13868.0
62852.018294410125,4.448032207015785,172423.0,142740.0,13912.0
62852.02840357423,4.458141371120291,172420.0,142734.0,13893.0
62852.03851273834,4.468250535232073,172423.0,142745.0,13885.0
62852.048621902446,4.478359699336579,172399.0,142737.0,13887.0
62852.05873106655,4.488468863441085,172415.0,142738.0,13869.0
62852.06884023066,4.498578027552867,172415.0,142731.0,13909.0
62852.07894939477,4.508687191657373,172398.0,142768.0,13893.0
62852.08905855887,4.518796355761879,172358.0,142712.0,13883.0
62852.09916772298,4.5289055198736605,172382.0,142749.0,13909.0
62852.10927688709,4.539014683978166,172420.0,142727.0,13911.0
62852.11938605119,4.549123848082672,172407.0,142735.0,13888.0
62852.1294952153,4.559233012187178,172410.0,142721.0,13885.0
62852.13960437941,4.56934217629896,172417.0,142708.0,13887.0
62852.14971354351,4.579451340403466,172449.0,142758.0,13898.0
62852.15982270762,4.589560504507972,172419.0,142736.0,13894.0
62852.16993187173,4.599669668619754,172403.0,142719.0,13904.0
62852.180041035834,4.60977883272426,172418.0,142739.0,13886.0
62852.19015019994,4.619887996828766,172441.0,142758.0,13932.0
62852.20025936405,4.6299971609405475,172419.0,142747.0,13903.0
62852.210368528155,4.640106325045053,172407.0,142711.0,13880.0
62852.22047769226,4.650215489149559,172440.0,142755.0,13875.0
62852.23058685637,4.660324653261341,172429.0,142720.0,13905.0
62852.240696020475,4.670433817365847,172420.0,142737.0,13896.0
62852.25080518458,4.680542981470353,172422.0,142763.0,13909.0
62852.26091434869,4.690652145582135,172408.0,142738.0,13873.0
62852.271023512796,4.700761309686641,172450.0,142770.0,13909.0
62852.2811326769,4.710870473791147,172426.0,142754.0,13900.0
62852.29124184101,4.7209796379029285,172428.0,142718.0,13895.0
62852.30135100512,4.731088802007434,172436.0,142719.0,13895.0
62852.31146016922,4.74119796611194,172440.0,142764.0,13891.0
62852.32156933333,4.751307130223722,172426.0,142740.0,13909.0
62852.33167849744,4.761416294328228,172394.0,142713.0,13910.0
62852.34178766154,4.771525458432734,172392.0,142720.0,13880.0
62852.351896825654,4.781634622544516,172409.0,142763.0,13903.0
62852.36200598976,4.791743786649022,172418.0,142742.0,13910.0
62852.37211515386,4.801852950753528,172432.0,142725.0,13927.0
62852.382224317975,4.81196211486531,172389.0,142721.0,13882.0
62852.39233348208,4.8220712789698155,172433.0,142712.0,13897.0
62852.402442646184,4.832180443074321,172437.0,142745.0,13895.0
62852.412551810296,4.842289607186103,172438.0,142724.0,13922.0
62852.4226609744,4.852398771290609,172402.0,142734.0,13879.0
62852.432770138505,4.862507935395115,172427.0,142756.0,13890.0
62852.44287930261,4.872617099499621,172429.0,142732.0,13907.0
62852.45298846672,4.882726263611403,172449.0,142767.0,13906.0
62852.463097630825,4.892835427715909,172409.0,142716.0,13878.0
62852.47320679493,4.902944591820415,172417.0,142738.0,13888.0
62852.48331595904,4.9130537559321965,172425.0,142727.0,13917.0
62852.493425123146,4.923162920036702,172389.0,142721.0,13871.0
62852.50353428725,4.933272084141208,172376.0,142693.0,13863.0
62852.51364345136,4.94338124825299,172366.0,142728.0,13862.0
62852.52375261547,4.953490412357496,172383.0,142714.0,13861.0
62852.53386177957,4.963599576462002,172400.0,142709.0,13888.0
62852.54397094368,4.973708740573784,172383.0,142732.0,13870.0
62852.55408010779,4.98381790467829,172385.0,142695.0,13874.0
62852.56418927189,4.993927068782796,172419.0,142734.0,13888.0
62852.574298436004,5.0040362328945776,172398.0,142735.0,13884.0
62852.58440760011,5.0141453969990835,172376.0,142716.0,13886.0
62852.59451676421,5.024254561103589,172380.0,142713.0,13876.0
62852.604625928325,5.034363725215371,172396.0,142708.0,13900.0
62852.61473509243,5.044472889319877,172380.0,142738.0,13879.0
62852.624844256534,5.054582053424383,172364.0,142698.0,13845.0
62852.634953420646,5.064691217536165,172381.0,142727.0,13876.0
62852.64506258475,5.074800381640671,172408.0,142740.0,13895.0
62852.655171748855,5.084909545745177,172384.0,142725.0,13879.0
62852.66528091297,5.095018709856959,172369.0,142759.0,13908.0
62852.67539007707,5.1051278739614645,172363.0,142708.0,13864.0
62852.685499241175,5.11523703806597,172390.0,142740.0,13884.0
62852.69560840529,5.125346202177752,172390.0,142728.0,13886.0
62852.70571756939,5.135455366282258,172397.0,142717.0,13892.0
62852.715826733496,5.145564530386764,172375.0,142723.0,13864.0
62852.72593589761,5.155673694498546,172404.0,142763.0,13877.0
62852.73604506171,5.165782858603052,172403.0,142733.0,13887.0
62852.74615422582,5.175892022707558,172366.0,142742.0,13916.0
62852.75626338992,5.186001186812064,172367.0,142719.0,13884.0
62852.76637255403,5.1961103509238455,172375.0,142764.0,13892.0
62852.77648171814,5.2062195150283515,172375.0,142723.0,13890.0
62852.78659088224,5.216328679132857,172409.0,142722.0,13894.0
62852.796700046354,5.226437843244639,172379.0,142691.0,13894.0
62852.80680921046,5.236547007349145,172418.0,142746.0,13902.0
62852.81691837456,5.246656171453651,172393.0,142733.0,13891.0
62852.827027538675,5.256765335565433,172409.0,142754.0,13902.0
62852.83713670278,5.266874499669939,172363.0,142744.0,13883.0
62852.847245866884,5.276983663774445,172398.0,142716.0,13873.0
62852.857355030996,5.287092827886227,172386.0,142732.0,13888.0
62852.8674641951,5.2972019919907325,172399.0,142762.0,13885.0
62852.877573359205,5.307311156095238,172356.0,142722.0,13871.0
62852.88768252332,5.31742032020702,172398.0,142733.0,13884.0
62852.89779168742,5.327529484311526,172395.0,142725.0,13921.0
62852.907900851525,5.337638648416032,172382.0,142750.0,13889.0
62852.91801001564,5.347747812527814,172368.0,142689.0,13883.0
62852.92811917974,5.35785697663232,172368.0,142734.0,13879.0
62852.938228343846,5.367966140736826,172431.0,142739.0,13900.0
62852.94833750796,5.378075304848608,172388.0,142748.0,13886.0
62852.95844667206,5.3881844689531135,172398.0,142719.0,13896.0
62852.96855583617,5.3982936330576194,172352.0,142734.0,13874.0
62852.97866500028,5.408402797169401,172407.0,142756.0,13892.0
62852.98877416438,5.418511961273907,172401.0,142720.0,13901.0
62852.99888332849,5.428621125378413,172401.0,142746.0,13922.0
62853.0089924926,5.438730289490195,172391.0,142743.0,13889.0
62853.019101656704,5.448839453594701,172401.0,142740.0,13910.0
62853.02921082081,5.458948617699207,172414.0,142760.0,13932.0
62853.03931998492,5.469057781810989,172384.0,142732.0,13878.0
62853.049429149025,5.479166945915495,172370.0,142710.0,13883.0
62853.05953831313,5.4892761100200005,172398.0,142700.0,13901.0
62853.069647477234,5.499385274124506,172412.0,142738.0,13891.0
62853.079756641346,5.509494438236288,172422.0,142752.0,13914.0
62853.08986580545,5.519603602340794,172391.0,142718.0,13926.0
62853.099974969555,5.5297127664453,172405.0,142731.0,13890.0
62853.11008413367,5.539821930557082,172402.0,142732.0,13890.0
62853.12019329777,5.549931094661588,172417.0,142716.0,13901.0
62853.130302461876,5.560040258766094,172385.0,142706.0,13881.0
62853.14041162599,5.570149422877876,172418.0,142739.0,13881.0
62853.15052079009,5.5802585869823815,172404.0,142742.0,13906.0
62853.160629954196,5.590367751086887,172411.0,142778.0,13916.0
62853.17073911831,5.600476915198669,172365.0,142717.0,13884.0
62853.18084828241,5.610586079303175,172356.0,142736.0,13877.0
62853.19095744652,5.620695243407681,172403.0,142722.0,13903.0
62853.20106661063,5.630804407519463,172431.0,142735.0,13925.0
62853.21117577473,5.640913571623969,172396.0,142709.0,13893.0
62853.22128493884,5.651022735728475,172407.0,142700.0,13889.0
62853.23139410295,5.661131899840257,172402.0,142729.0,13895.0
62853.241503267054,5.671241063944763,172403.0,142741.0,13926.0
62853.25161243116,5.6813502280492685,172415.0,142736.0,13914.0
62853.26172159527,5.69145939216105,172387.0,142703.0,13891.0
62853.271830759375,5.701568556265556,172419.0,142734.0,13898.0
62853.28193992348,5.711677720370062,172386.0,142751.0,13902.0
62853.29204908759,5.721786884481844,172406.0,142701.0,13915.0
62853.302158251696,5.73189604858635,172382.0,142715.0,13890.0
62853.3122674158,5.742005212690856,172393.0,142731.0,13904.0
62853.32237657991,5.752114376802638,172387.0,142738.0,13905.0
62853.33248574402,5.762223540907144,172402.0,142756.0,13903.0
62853.34259490812,5.7723327050116495,172388.0,142761.0,13900.0
62853.35270407223,5.782441869123431,172391.0,142722.0,13892.0
62853.36281323634,5.792551033227937,172378.0,142755.0,13881.0
62853.37292240044,5.802660197332443,172382.0,142738.0,13884.0
62853.38303156455,5.812769361436949,172346.0,142713.0,13872.0
62853.39314072866,5.822878525548731,172373.0,142714.0,13865.0
62853.40324989276,5.832987689653237,172368.0,142725.0,13876.0
62853.41335905687,5.843096853757743,172359.0,142731.0,13869.0
62853.42346822098,5.853206017869525,172345.0,142699.0,13870.0
62853.43357738508,5.863315181974031,172341.0,142723.0,13893.0
62853.44368654919,5.8734243460785365,172359.0,142724.0,13882.0
62853.4537957133,5.883533510190318,172390.0,142719.0,13900.0
62853.463904877404,5.893642674294824,172364.0,142706.0,13874.0
62853.47401404151,5.90375183839933,172345.0,142705.0,13857.0
62853.48412320562,5.913861002511112,172356.0,142722.0,13878.0
62853.494232369725,5.923970166615618,172390.0,142740.0,13874.0
62853.50434153383,5.934079330720124,172350.0,142706.0,13869.0
62853.51445069794,5.944188494831906,172340.0,142722.0,13881.0
62853.524559862046,5.954297658936412,172358.0,142724.0,13886.0
62853.53466902615,5.9644068230409175,172378.0,142755.0,13885.0
62853.54477819026,5.974515987152699,172335.0,142702.0,13866.0
62853.55488735437,5.984625151257205,172359.0,142726.0,13867.0
62853.56499651847,5.994734315361711,172367.0,142722.0,13878.0
62853.57510568258,6.004843479473493,172350.0,142740.0,13891.0
62853.58521484669,6.014952643577999,172339.0,142712.0,13889.0
62853.59532401079,6.025061807682505,172346.0,142718.0,13862.0
62853.605433174904,6.035170971794287,172360.0,142721.0,13878.0
62853.61554233901,6.045280135898793,172361.0,142711.0,13877.0
62853.62565150311,6.055389300003299,172345.0,142716.0,13877.0
62853.635760667225,6.06549846411508,172384.0,142737.0,13876.0
62853.64586983133,6.075607628219586,172373.0,142733.0,13882.0
62853.65597899543,6.085716792324092,172394.0,142754.0,13912.0
62853.666088159545,6.095825956435874,172381.0,142748.0,13891.0
62853.67619732365,6.10593512054038,172330.0,142694.0,13884.0
62853.686306487754,6.116044284644886,172357.0,142730.0,13874.0
62853.69641565186,6.126153448749392,172335.0,142747.0,13903.0
62853.70652481597,6.136262612861174,172374.0,142746.0,13913.0
62853.716633980075,6.14637177696568,172346.0,142714.0,13897.0
62853.72674314418,6.1564809410701855,172367.0,142733.0,13883.0
62853.73685230829,6.166590105181967,172382.0,142740.0,13881.0
62853.746961472396,6.176699269286473,172354.0,142714.0,13901.0
62853.7570706365,6.186808433390979,172350.0,142713.0,13873.0
62853.76717980061,6.196917597502761,172385.0,142719.0,13905.0
62853.77728896472,6.207026761607267,172370.0,142753.0,13889.0
62853.78739812882,6.217135925711773,172395.0,142756.0,13892.0
62853.79750729293,6.227245089823555,172350.0,142737.0,13880.0
62853.80761645704,6.237354253928061,172353.0,142725.0,13870.0
62853.81772562114,6.2474634180325666,172370.0,142737.0,13884.0
62853.827834785254,6.257572582144348,172359.0,142764.0,13906.0
62853.83794394936,6.267681746248854,172348.0,142704.0,13885.0
62853.84805311346,6.27779091035336,172334.0,142728.0,13864.0
62853.858162277575,6.287900074465142,172374.0,142733.0,13888.0
62853.86827144168,6.298009238569648,172376.0,142743.0,13913.0
62853.87838060578,6.308118402674154,172348.0,142709.0,13881.0
62853.888489769895,6.318227566785936,172345.0,142710.0,13868.0
62853.898598934,6.328336730890442,172368.0,142730.0,13903.0
62853.908708098104,6.338445894994948,172402.0,142761.0,13911.0
62853.918817262216,6.3485550591067295,172374.0,142736.0,13905.0
62853.92892642632,6.358664223211235,172379.0,142738.0,13879.0
62853.939035590425,6.368773387315741,172379.0,142735.0,13901.0
62853.94914475454,6.378882551427523,172350.0,142740.0,13885.0
62853.95925391864,6.388991715532029,172353.0,142746.0,13910.0
62853.969363082746,6.399100879636535,172367.0,142690.0,13915.0
62853.97947224686,6.409210043748317,172377.0,142746.0,13888.0
62853.98958141096,6.419319207852823,172364.0,142727.0,13891.0
62853.99969057507,6.429428371957329,172371.0,142731.0,13885.0
62854.00979973917,6.4395375360618345,172397.0,142731.0,13907.0
62854.01990890328,6.449646700173616,172376.0,142716.0,13892.0
62854.03001806739,6.459755864278122,172353.0,142720.0,13913.0
62854.04012723149,6.469865028382628,172343.0,142725.0,13881.0
62854.050236395604,6.47997419249441,172403.0,142754.0,13917.0
62854.06034555971,6.490083356598916,172381.0,142737.0,13900.0
62854.07045472381,6.500192520703422,172403.0,142767.0,13906.0
62854.080563887925,6.510301684815204,172358.0,142722.0,13912.0
62854.09067305203,6.52041084891971,172394.0,142728.0,13891.0
62854.100782216134,6.530520013024216,172343.0,142731.0,13872.0
62854.110891380245,6.5406291771359975,172346.0,142731.0,13905.0
62854.12100054435,6.550738341240503,172370.0,142739.0,13893.0
62854.131109708454,6.560847505345009,172373.0,142742.0,13897.0
62854.141218872566,6.570956669456791,172359.0,142724.0,13884.0
62854.15132803667,6.581065833561297,172393.0,142722.0,13903.0
62854.161437200775,6.591174997665803,172405.0,142755.0,13904.0
62854.17154636489,6.601284161777585,172366.0,142719.0,13879.0
62854.18165552899,6.611393325882091,172360.0,142695.0,13877.0
62854.191764693096,6.621502489986597,172386.0,142729.0,13900.0
62854.20187385721,6.6316116540983785,172404.0,142750.0,13895.0
62854.21198302131,6.641720818202884,172353.0,142719.0,13867.0
62854.22209218542,6.65182998230739,172368.0,142706.0,13884.0
62854.23220134953,6.661939146419172,172373.0,142734.0,13887.0
62854.24231051363,6.672048310523678,172352.0,142715.0,13876.0
62854.25241967774,6.682157474628184,172339.0,142716.0,13908.0
62854.26252884185,6.692266638739966,172355.0,142700.0,13877.0
62854.272638005954,6.702375802844472,172364.0,142719.0,13889.0
62854.28274717006,6.712484966948978,172364.0,142726.0,13898.0
62854.29285633417,6.7225941310607595,172353.0,142703.0,13881.0
62854.302965498275,6.7327032951652654,172325.0,142729.0,13861.0
62854.31307466238,6.742812459269771,172353.0,142726.0,13885.0
62854.323183826484,6.752921623374277,172346.0,142737.0,13863.0
62854.333292990596,6.763030787486059,172347.0,142718.0,13881.0
62854.3434021547,6.773139951590565,172373.0,142738.0,13885.0
62854.353511318805,6.783249115695071,172347.0,142727.0,13878.0
62854.363620482916,6.793358279806853,172345.0,142727.0,13894.0
62854.37372964702,6.803467443911359,172340.0,142720.0,13879.0
62854.383838811125,6.813576608015865,172321.0,142705.0,13891.0
62854.39394797524,6.8236857721276465,172350.0,142741.0,13880.0
62854.40405713934,6.833794936232152,172356.0,142749.0,13884.0
62854.414166303446,6.843904100336658,172326.0,142731.0,13883.0
62854.42427546756,6.85401326444844,172352.0,142731.0,13900.0
62854.43438463166,6.864122428552946,172364.0,142739.0,13884.0
62854.44449379577,6.874231592657452,172333.0,142761.0,13893.0
62854.45460295988,6.884340756769234,172366.0,142752.0,13891.0
62854.46471212398,6.89444992087374,172370.0,142750.0,13906.0
62854.47482128809,6.904559084978246,172348.0,142739.0,13885.0
62854.4849304522,6.9146682490900275,172377.0,142762.0,13870.0
62854.495039616304,6.924777413194533,172317.0,142717.0,13840.0
62854.50514878041,6.934886577299039,172315.0,142704.0,13876.0
62854.51525794452,6.944995741410821,172347.0,142737.0,13908.0
62854.525367108625,6.955104905515327,172326.0,142730.0,13901.0
62854.53547627273,6.965214069619833,172333.0,142724.0,13881.0
62854.54558543684,6.975323233731615,172340.0,142716.0,13874.0
62854.555694600946,6.985432397836121,172352.0,142726.0,13886.0
62854.56580376505,6.995541561940627,172345.0,142707.0,13883.0
62854.57591292916,7.005650726052409,172333.0,142717.0,13881.0
62854.58602209327,7.0157598901569145,172321.0,142718.0,13867.0
62854.59613125737,7.02586905426142,172348.0,142719.0,13880.0
62854.60624042148,7.035978218373202,172349.0,142745.0,13887.0
62854.61634958559,7.046087382477708,172344.0,142712.0,13873.0
62854.62645874969,7.056196546582214,172377.0,142737.0,13883.0
62854.636567913796,7.06630571068672,172341.0,142685.0,13932.0
62854.64667707791,7.076414874798502,172340.0,142732.0,13892.0
62854.65678624201,7.086524038903008,172352.0,142728.0,13861.0
62854.66689540612,7.096633203007514,172354.0,142739.0,13861.0
62854.67700457023,7.1067423671192955,172326.0,142738.0,13874.0
62854.68711373433,7.116851531223801,172355.0,142735.0,13882.0
62854.69722289844,7.126960695328307,172322.0,142735.0,13906.0
62854.70733206255,7.137069859440089,172355.0,142749.0,13901.0
62854.717441226654,7.147179023544595,172374.0,142766.0,13902.0
62854.72755039076,7.157288187649101,172368.0,142739.0,13890.0
62854.73765955487,7.167397351760883,172361.0,142694.0,13873.0
62854.747768718975,7.177506515865389,172360.0,142700.0,13877.0
62854.75787788308,7.187615679969895,172404.0,142753.0,13875.0
62854.76798704719,7.197724844081677,172328.0,142708.0,13878.0
62854.778096211296,7.2078340081861825,172338.0,142709.0,13893.0
62854.7882053754,7.217943172290688,172373.0,142726.0,13910.0
62854.79831453951,7.22805233640247,172384.0,142712.0,13909.0
62854.80842370362,7.238161500506976,172365.0,142734.0,13889.0
62854.81853286772,7.248270664611482,172335.0,142721.0,13889.0
62854.82864203183,7.258379828723264,172345.0,142725.0,13881.0
62854.83875119594,7.26848899282777,172392.0,142749.0,13897.0
62854.84886036004,7.278598156932276,172361.0,142729.0,13897.0
62854.85896952415,7.288707321044058,172341.0,142716.0,13904.0
62854.86907868826,7.2988164851485635,172347.0,142717.0,13875.0
62854.87918785236,7.308925649253069,172334.0,142719.0,13859.0
62854.889297016474,7.319034813364851,172363.0,142736.0,13893.0
62854.89940618058,7.329143977469357,172361.0,142681.0,13895.0
62854.90951534468,7.339253141573863,172363.0,142737.0,13909.0
62854.919624508795,7.349362305685645,172388.0,142726.0,13876.0
62854.9297336729,7.359471469790151,172372.0,142727.0,13910.0
62854.939842837004,7.369580633894657,172360.0,142741.0,13886.0
62854.94995200111,7.379689797999163,172344.0,142731.0,13897.0
62854.96006116522,7.389798962110945,172352.0,142762.0,13903.0
62854.970170329325,7.3999081262154505,172356.0,142736.0,13901.0
62854.98027949343,7.410017290319956,172371.0,142760.0,13899.0
62854.99038865754,7.420126454431738,172399.0,142753.0,13897.0
62855.000497821646,7.430235618536244,172380.0,142727.0,13887.0
62855.01060698575,7.44034478264075,172374.0,142727.0,13898.0
62855.02071614986,7.450453946752532,172381.0,142735.0,13895.0
62855.03082531397,7.460563110857038,172371.0,142727.0,13894.0
62855.04093447807,7.470672274961544,172372.0,142749.0,13900.0
62855.05104364218,7.480781439073326,172381.0,142705.0,13920.0
62855.06115280629,7.4908906031778315,172374.0,142726.0,13902.0
62855.07126197039,7.500999767282337,172374.0,142711.0,13906.0
62855.0813711345,7.511108931394119,172398.0,142737.0,13877.0
62855.09148029861,7.521218095498625,172385.0,142745.0,13912.0
62855.10158946271,7.531327259603131,172368.0,142734.0,13907.0
62855.111698626824,7.541436423714913,172393.0,142734.0,13922.0
62855.12180779093,7.551545587819419,172339.0,142759.0,13895.0
62855.13191695503,7.561654751923925,172384.0,142740.0,13907.0
62855.142026119145,7.571763916035707,172359.0,142734.0,13879.0
62855.15213528325,7.5818730801402126,172327.0,142704.0,13877.0
62855.162244447354,7.5919822442447185,172376.0,142730.0,13865.0
62855.172353611466,7.6020914083565,172364.0,142740.0,13874.0
62855.18246277557,7.612200572461006,172337.0,142723.0,13876.0
62855.192571939675,7.622309736565512,172299.0,142702.0,13891.0
62855.20268110379,7.632418900677294,172335.0,142730.0,13874.0
62855.21279026789,7.6425280647818,172333.0,142721.0,13857.0
62855.222899431996,7.652637228886306,172336.0,142722.0,13873.0
62855.23300859611,7.662746392998088,172333.0,142731.0,13853.0
62855.24311776021,7.672855557102594,172333.0,142741.0,13863.0
62855.25322692432,7.6829647212070995,172357.0,142720.0,13908.0
62855.26333608842,7.693073885311605,172342.0,142734.0,13884.0
62855.27344525253,7.703183049423387,172296.0,142725.0,13866.0
62855.28355441664,7.713292213527893,172300.0,142725.0,13873.0
62855.29366358074,7.723401377632399,172365.0,142761.0,13901.0
62855.30377274485,7.733510541744181,172337.0,142744.0,13921.0
62855.31388190896,7.743619705848687,172318.0,142710.0,13878.0
62855.32399107306,7.753728869953193,172328.0,142704.0,13879.0
62855.334100237174,7.763838034064975,172357.0,142763.0,13894.0
62855.34420940128,7.7739471981694805,172333.0,142727.0,13888.0
62855.35431856538,7.7840563622739865,172320.0,142723.0,13883.0
62855.364427729495,7.794165526385768,172343.0,142711.0,13877.0
62855.3745368936,7.804274690490274,172340.0,142740.0,13906.0
62855.384646057704,7.81438385459478,172329.0,142742.0,13872.0
62855.394755221816,7.824493018706562,172351.0,142727.0,13883.0
62855.40486438592,7.834602182811068,172337.0,142731.0,13854.0
62855.414973550025,7.844711346915574,172322.0,142707.0,13863.0
62855.42508271414,7.854820511027356,172327.0,142730.0,13892.0
62855.43519187824,7.864929675131862,172309.0,142741.0,13860.0
62855.445301042346,7.8750388392363675,172308.0,142719.0,13870.0
62855.45541020646,7.885148003348149,172355.0,142753.0,13904.0
62855.46551937056,7.895257167452655,172339.0,142706.0,13896.0
62855.47562853467,7.905366331557161,172330.0,142724.0,13874.0
62855.48573769878,7.915475495668943,172318.0,142706.0,13889.0
62855.49584686288,7.925584659773449,172339.0,142753.0,13852.0
62855.50595602699,7.935693823877955,172337.0,142743.0,13879.0
62855.5160651911,7.945802987989737,172342.0,142741.0,13890.0
62855.526174355204,7.955912152094243,172339.0,142710.0,13893.0
62855.53628351931,7.9660213161987485,172338.0,142762.0,13919.0
62855.54639268341,7.9761304803032544,172314.0,142715.0,13866.0
62855.556501847524,7.986239644415036,172344.0,142728.0,13889.0
62855.56661101163,7.996348808519542,172329.0,142704.0,13856.0
62855.57672017573,8.006457972624048,172355.0,142735.0,13920.0
62855.586829339845,8.01656713673583,172357.0,142749.0,13916.0
62855.59693850395,8.026676300840336,172347.0,142722.0,13893.0
62855.607047668054,8.036785464944842,172320.0,142730.0,13885.0
62855.617156832166,8.046894629056624,172366.0,142749.0,13907.0
62855.62726599627,8.05700379316113,172366.0,142727.0,13898.0
62855.637375160375,8.067112957265635,172353.0,142731.0,13890.0
62855.64748432449,8.077222121377417,172329.0,142708.0,13881.0
62855.65759348859,8.087331285481923,172370.0,142749.0,13870.0
62855.667702652696,8.09744044958643,172356.0,142738.0,13924.0
62855.67781181681,8.107549613698211,172367.0,142739.0,13885.0
62855.68792098091,8.117658777802717,172343.0,142713.0,13892.0
62855.69803014502,8.127767941907223,172333.0,142779.0,13912.0
62855.70813930913,8.137877106019005,172353.0,142725.0,13907.0
62855.71824847323,8.14798627012351,172350.0,142730.0,13898.0
62855.72835763734,8.158095434228017,172380.0,142775.0,13912.0
62855.73846680145,8.168204598339798,172380.0,142729.0,13902.0
62855.748575965554,8.178313762444304,172380.0,142756.0,13919.0
62855.75868512966,8.18842292654881,172349.0,142734.0,13878.0
62855.76879429377,8.198532090660592,172328.0,142716.0,13903.0
62855.778903457875,8.208641254765098,172359.0,142743.0,13890.0
62855.78901262198,8.218750418869604,172335.0,142707.0,13886.0
62855.79912178609,8.228859582981386,172333.0,142742.0,13872.0
62855.809230950195,8.238968747085892,172370.0,142721.0,13899.0
62855.8193401143,8.249077911190398,172378.0,142760.0,13877.0
62855.82944927841,8.25918707530218,172371.0,142733.0,13890.0
62855.839558442516,8.269296239406685,172288.0,142697.0,13904.0
62855.84966760662,8.279405403511191,172341.0,142735.0,13899.0
62855.859776770725,8.289514567615697,172311.0,142728.0,13885.0
62855.86988593484,8.299623731727479,172377.0,142752.0,13904.0
62855.87999509894,8.309732895831985,172332.0,142712.0,13890.0
62855.890104263046,8.31984205993649,172327.0,142707.0,13906.0
62855.90021342716,8.329951224048273,172383.0,142738.0,13897.0
62855.91032259126,8.340060388152779,172336.0,142698.0,13899.0
62855.92043175537,8.350169552257285,172366.0,142727.0,13886.0
62855.93054091948,8.360278716369066,172338.0,142727.0,13873.0
62855.94065008358,8.370387880473572,172354.0,142753.0,13908.0
62855.95075924769,8.380497044578078,172329.0,142702.0,13887.0
62855.9608684118,8.39060620868986,172342.0,142728.0,13879.0
62855.970977575904,8.400715372794366,172337.0,142713.0,13865.0
62855.98108674001,8.410824536898872,172329.0,142729.0,13861.0
62855.99119590412,8.420933701010654,172311.0,142718.0,13897.0
62856.001305068225,8.43104286511516,172325.0,142707.0,13881.0
62856.01141423233,8.441152029219666,172271.0,142699.0,13869.0
62856.02152339644,8.451261193331447,172306.0,142738.0,13883.0
62856.031632560545,8.461370357435953,172342.0,142711.0,13891.0
62856.04174172465,8.47147952154046,172328.0,142723.0,13887.0
62856.05185088876,8.481588685652241,172299.0,142694.0,13887.0
62856.061960052866,8.491697849756747,172315.0,142712.0,13870.0
62856.07206921697,8.501807013861253,172354.0,142741.0,13880.0
62856.08217838108,8.511916177973035,172344.0,142726.0,13878.0
62856.09228754519,8.52202534207754,172327.0,142717.0,13900.0
62856.10239670929,8.532134506182047,172325.0,142728.0,13879.0
62856.1125058734,8.542243670293828,172361.0,142749.0,13917.0
62856.12261503751,8.552352834398334,172328.0,142728.0,13862.0
62856.13272420161,8.56246199850284,172368.0,142722.0,13884.0
62856.142833365724,8.572571162614622,172338.0,142737.0,13878.0
62856.15294252983,8.582680326719128,172328.0,142749.0,13906.0
62856.16305169393,8.592789490823634,172316.0,142723.0,13892.0
62856.17316085804,8.60289865492814,172326.0,142713.0,13890.0
62856.18327002215,8.613007819039922,172300.0,142719.0,13866.0
62856.193379186254,8.623116983144428,172334.0,142732.0,13903.0
62856.20348835036,8.633226147248934,172342.0,142727.0,13906.0
62856.21359751447,8.643335311360715,172337.0,142734.0,13882.0
62856.223706678575,8.653444475465221,172320.0,142696.0,13882.0
62856.23381584268,8.663553639569727,172344.0,142751.0,13896.0
62856.24392500679,8.673662803681509,172308.0,142714.0,13874.0
62856.254034170895,8.683771967786015,172331.0,142728.0,13889.0
62856.264143335,8.693881131890521,172309.0,142712.0,13870.0
62856.27425249911,8.703990296002303,172308.0,142750.0,13898.0
62856.284361663216,8.714099460106809,172380.0,142734.0,13938.0
62856.29447082732,8.724208624211315,172325.0,142739.0,13887.0
62856.30457999143,8.734317788323096,172298.0,142708.0,13893.0
62856.31468915554,8.744426952427602,172355.0,142733.0,13895.0
62856.32479831964,8.754536116532108,172306.0,142702.0,13907.0
62856.33490748375,8.76464528064389,172332.0,142735.0,13889.0
62856.34501664786,8.774754444748396,172323.0,142730.0,13887.0
62856.35512581196,8.784863608852902,172346.0,142746.0,13892.0
62856.365234976074,8.794972772964684,172356.0,142759.0,13918.0
62856.37534414018,8.80508193706919,172352.0,142728.0,13888.0
62856.38545330428,8.815191101173696,172347.0,142719.0,13890.0
62856.395562468395,8.825300265285478,172333.0,142727.0,13883.0
62856.4056716325,8.835409429389983,172364.0,142748.0,13901.0
62856.415780796604,8.84551859349449,172323.0,142727.0,13879.0
62856.425889960716,8.855627757606271,172297.0,142708.0,13870.0
62856.43599912482,8.865736921710777,172314.0,142715.0,13879.0
62856.446108288925,8.875846085815283,172324.0,142738.0,13898.0
62856.45621745304,8.885955249927065,172337.0,142732.0,13892.0
62856.46632661714,8.89606441403157,172327.0,142703.0,13885.0
62856.476435781246,8.906173578136077,172310.0,142712.0,13865.0
62856.48654494535,8.916282742240583,172373.0,142758.0,13894.0
62856.49665410946,8.926391906352364,172355.0,142739.0,13928.0
62856.506763273566,8.93650107045687,172338.0,142720.0,13902.0
62856.51687243767,8.946610234561376,172328.0,142703.0,13875.0
62856.52698160178,8.956719398673158,172359.0,142714.0,13900.0
62856.53709076589,8.966828562777664,172372.0,142737.0,13905.0
62856.54719992999,8.97693772688217,172325.0,142692.0,13892.0
62856.5573090941,8.987046890993952,172359.0,142753.0,13861.0
62856.56741825821,8.997156055098458,172359.0,142707.0,13894.0
62856.57752742231,9.007265219202964,172378.0,142746.0,13905.0
62856.587636586424,9.017374383314746,172359.0,142730.0,13895.0
62856.59774575053,9.027483547419251,172325.0,142717.0,13884.0
62856.60785491463,9.037592711523757,172348.0,142757.0,13894.0
62856.617964078745,9.04770187563554,172373.0,142753.0,13920.0
62856.62807324285,9.057811039740045,172354.0,142727.0,13893.0
62856.638182406954,9.067920203844551,172326.0,142703.0,13890.0
62856.648291571066,9.078029367956333,172392.0,142766.0,13895.0
62856.65840073517,9.088138532060839,172390.0,142739.0,13923.0
62856.668509899275,9.098247696165345,172366.0,142729.0,13905.0
62856.67861906339,9.108356860277127,172295.0,142711.0,13888.0
62856.68872822749,9.118466024381632,172327.0,142743.0,13912.0
62856.698837391596,9.128575188486138,172361.0,142731.0,13880.0
62856.70894655571,9.13868435259792,172363.0,142735.0,13887.0
62856.71905571981,9.148793516702426,172357.0,142698.0,13899.0
62856.72916488392,9.158902680806932,172386.0,142739.0,13918.0
62856.73927404803,9.169011844918714,172393.0,142765.0,13916.0
62856.74938321213,9.17912100902322,172364.0,142735.0,13884.0
62856.75949237624,9.189230173127726,172339.0,142736.0,13872.0
62856.76960154035,9.199339337239508,172352.0,142713.0,13885.0
62856.77971070445,9.209448501344013,172348.0,142749.0,13896.0
62856.78981986856,9.21955766544852,172369.0,142731.0,13899.0
62856.79992903266,9.229666829553025,172335.0,142722.0,13881.0
62856.810038196774,9.239775993664807,172350.0,142724.0,13886.0
62856.82014736088,9.249885157769313,172389.0,142755.0,13885.0
62856.83025652498,9.259994321873819,172335.0,142718.0,13884.0
62856.840365689095,9.2701034859856,172311.0,142701.0,13863.0
62856.8504748532,9.280212650090107,172323.0,142741.0,13896.0
62856.860584017304,9.290321814194613,172339.0,142731.0,13889.0
62856.870693181416,9.300430978306395,172324.0,142719.0,13878.0
62856.88080234552,9.3105401424109,172348.0,142752.0,13887.0
62856.890911509625,9.320649306515406,172311.0,142700.0,13876.0
62856.90102067374,9.330758470627188,172336.0,142723.0,13866.0
62856.91112983784,9.340867634731694,172329.0,142722.0,13894.0
62856.921239001946,9.3509767988362,172312.0,142751.0,13882.0
62856.93134816606,9.361085962947982,172299.0,142715.0,13882.0
62856.94145733016,9.371195127052488,172300.0,142738.0,13882.0
62856.95156649427,9.381304291156994,172369.0,142743.0,13921.0
62856.96167565838,9.391413455268776,172327.0,142720.0,13898.0
62856.97178482248,9.401522619373281,172307.0,142679.0,13882.0
62856.98189398659,9.411631783477787,172313.0,142696.0,13879.0
62856.9920031507,9.42174094758957,172361.0,142740.0,13865.0
62857.0021123148,9.431850111694075,172340.0,142733.0,13885.0
62857.01222147891,9.441959275798581,172316.0,142725.0,13890.0
62857.02233064302,9.452068439910363,172332.0,142707.0,13866.0
62857.032439807124,9.462177604014869,172347.0,142698.0,13882.0
62857.04254897123,9.472286768119375,172349.0,142739.0,13884.0
62857.05265813534,9.482395932231157,172315.0,142717.0,13886.0
62857.062767299445,9.492505096335663,172336.0,142727.0,13888.0
62857.07287646355,9.502614260440168,172347.0,142704.0,13879.0
62857.08298562766,9.51272342455195,172343.0,142755.0,13881.0
62857.093094791766,9.522832588656456,172304.0,142728.0,13882.0
62857.10320395587,9.532941752760962,172306.0,142705.0,13874.0
62857.113313119975,9.543050916865468,172335.0,142729.0,13876.0
62857.12342228409,9.55316008097725,172341.0,142734.0,13889.0
62857.13353144819,9.563269245081756,172313.0,142695.0,13889.0
62857.143640612296,9.573378409186262,172307.0,142711.0,13871.0
62857.15374977641,9.583487573298044,172308.0,142703.0,13874.0
62857.16385894051,9.59359673740255,172338.0,142740.0,13884.0
62857.17396810462,9.603705901507055,172321.0,142726.0,13915.0
62857.18407726873,9.613815065618837,172312.0,142710.0,13864.0
62857.19418643283,9.623924229723343,172315.0,142753.0,13890.0
62857.20429559694,9.634033393827849,172337.0,142736.0,13881.0
62857.21440476105,9.644142557939631,172340.0,142679.0,13901.0
62857.22451392515,9.654251722044137,172309.0,142717.0,13890.0
62857.23462308926,9.664360886148643,172352.0,142742.0,13915.0
62857.24473225337,9.674470050260425,172353.0,142730.0,13900.0
62857.254841417474,9.68457921436493,172367.0,142762.0,13908.0
62857.26495058158,9.694688378469436,172322.0,142729.0,13873.0
62857.27505974569,9.704797542581218,172337.0,142732.0,13874.0
62857.285168909795,9.714906706685724,172344.0,142736.0,13890.0
62857.2952780739,9.72501587079023,172359.0,142750.0,13896.0
62857.30538723801,9.735125034902012,172375.0,142756.0,13918.0
62857.315496402116,9.745234199006518,172339.0,142719.0,13893.0
62857.32560556622,9.755343363111024,172343.0,142732.0,13888.0
62857.33571473033,9.765452527222806,172335.0,142709.0,13901.0
62857.34582389444,9.775561691327312,172305.0,142719.0,13871.0
62857.35593305854,9.785670855431817,172384.0,142736.0,13917.0
62857.36604222265,9.7957800195436,172380.0,142731.0,13915.0
62857.37615138676,9.805889183648105,172349.0,142760.0,13895.0
62857.38626055086,9.815998347752611,172340.0,142751.0,13897.0
62857.396369714974,9.826107511864393,172331.0,142727.0,13866.0
62857.40647887908,9.836216675968899,172343.0,142721.0,13907.0
62857.41658804318,9.846325840073405,172354.0,142734.0,13897.0
62857.42669720729,9.85643500417791,172358.0,142734.0,13911.0
62857.4368063714,9.866544168289693,172345.0,142729.0,13880.0
62857.446915535504,9.876653332394199,172383.0,142743.0,13909.0
62857.45702469961,9.886762496498704,172367.0,142739.0,13900.0
62857.46713386372,9.896871660610486,172339.0,142711.0,13875.0
62857.477243027824,9.906980824714992,172372.0,142733.0,13883.0
62857.48735219193,9.917089988819498,172371.0,142751.0,13896.0
62857.49746135604,9.92719915293128,172356.0,142730.0,13901.0
62857.507570520145,9.937308317035786,172343.0,142739.0,13901.0
62857.51767968425,9.947417481140292,172394.0,142768.0,13916.0
62857.52778884836,9.957526645252074,172366.0,142733.0,13898.0
62857.537898012466,9.96763580935658,172370.0,142740.0,13906.0
62857.54800717657,9.977744973461085,172352.0,142713.0,13879.0
62857.55811634068,9.987854137572867,172344.0,142716.0,13891.0
62857.56822550479,9.997963301677373,172373.0,142736.0,13879.0
62857.57833466889,10.00807246578188,172368.0,142743.0,13902.0
62857.588443833,10.018181629893661,172378.0,142720.0,13899.0
62857.59855299711,10.028290793998167,172356.0,142716.0,13912.0
62857.60866216121,10.038399958102673,172384.0,142767.0,13933.0
62857.618771325324,10.048509122214455,172394.0,142744.0,13917.0
62857.62888048943,10.05861828631896,172375.0,142729.0,13890.0
62857.63898965353,10.068727450423467,172376.0,142716.0,13911.0
62857.649098817645,10.078836614535248,172406.0,142747.0,13913.0
62857.65920798175,10.088945778639754,172395.0,142728.0,13897.0
62857.669317145854,10.09905494274426,172360.0,142730.0,13891.0
62857.679426309965,10.109164106856042,172403.0,142743.0,13920.0
62857.68953547407,10.119273270960548,172371.0,142760.0,13912.0
62857.699644638175,10.129382435065054,172385.0,142734.0,13905.0
62857.709753802286,10.139491599176836,172398.0,142731.0,13910.0
62857.71986296639,10.149600763281342,172415.0,142764.0,13922.0
62857.729972130495,10.159709927385848,172399.0,142727.0,13908.0
62857.7400812946,10.169819091490353,172395.0,142751.0,13911.0
62857.75019045871,10.179928255602135,172384.0,142775.0,13885.0
62857.760299622816,10.190037419706641,172382.0,142761.0,13894.0
62857.77040878692,10.200146583811147,172345.0,142753.0,13903.0
62857.78051795103,10.210255747922929,172371.0,142731.0,13918.0
62857.79062711514,10.220364912027435,172354.0,142754.0,13884.0
62857.80073627924,10.23047407613194,172357.0,142719.0,13871.0
62857.81084544335,10.240583240243723,172346.0,142723.0,13891.0
62857.82095460746,10.250692404348229,172340.0,142719.0,13879.0
62857.83106377156,10.260801568452735,172349.0,142741.0,13880.0
62857.841172935674,10.270910732564516,172350.0,142712.0,13902.0
62857.85128209978,10.281019896669022,172358.0,142752.0,13886.0
62857.86139126388,10.291129060773528,172372.0,142724.0,13905.0
62857.871500427995,10.30123822488531,172359.0,142733.0,13887.0
62857.8816095921,10.311347388989816,172353.0,142690.0,13916.0
62857.891718756204,10.321456553094322,172369.0,142728.0,13893.0
62857.901827920316,10.331565717206104,172330.0,142725.0,13862.0
62857.91193708442,10.34167488131061,172362.0,142744.0,13892.0
62857.922046248525,10.351784045415116,172359.0,142752.0,13874.0
62857.932155412636,10.361893209526897,172381.0,142750.0,13904.0
62857.94226457674,10.372002373631403,172333.0,142716.0,13897.0
62857.952373740845,10.38211153773591,172364.0,142740.0,13888.0
62857.96248290496,10.392220701847691,172384.0,142734.0,13893.0
62857.97259206906,10.402329865952197,172404.0,142735.0,13897.0
62857.982701233166,10.412439030056703,172366.0,142717.0,13897.0
62857.99281039728,10.422548194168485,172377.0,142750.0,13896.0
62858.00291956138,10.43265735827299,172370.0,142718.0,13873.0
62858.01302872549,10.442766522377497,172376.0,142761.0,13868.0
62858.0231378896,10.452875686489278,172373.0,142751.0,13880.0
62858.0332470537,10.462984850593784,172359.0,142743.0,13891.0
62858.04335621781,10.47309401469829,172357.0,142743.0,13881.0
62858.05346538191,10.483203178802796,172366.0,142733.0,13877.0
62858.063574546024,10.493312342914578,172354.0,142724.0,13904.0
62858.07368371013,10.503421507019084,172383.0,142736.0,13886.0
62858.08379287423,10.51353067112359,172403.0,142762.0,13905.0
62858.093902038345,10.523639835235372,172399.0,142758.0,13920.0
62858.10401120245,10.533748999339878,172352.0,142728.0,13913.0
62858.114120366554,10.543858163444384,172394.0,142756.0,13869.0
62858.124229530666,10.553967327556165,172363.0,142733.0,13901.0
62858.13433869477,10.564076491660671,172419.0,142768.0,13910.0
62858.144447858875,10.574185655765177,172383.0,142722.0,13924.0
62858.15455702299,10.584294819876959,172371.0,142742.0,13876.0
62858.16466618709,10.594403983981465,172383.0,142715.0,13897.0
62858.174775351195,10.604513148085971,172352.0,142721.0,13871.0
62858.18488451531,10.614622312197753,172408.0,142758.0,13913.0
62858.19499367941,10.624731476302259,172344.0,142723.0,13884.0
62858.205102843516,10.634840640406765,172380.0,142753.0,13899.0
62858.21521200763,10.644949804518546,172352.0,142753.0,13874.0
62858.22532117173,10.655058968623052,172411.0,142776.0,13910.0
62858.23543033584,10.665168132727558,172374.0,142709.0,13894.0
62858.24553949995,10.67527729683934,172372.0,142740.0,13893.0
62858.25564866405,10.685386460943846,172366.0,142722.0,13902.0
62858.26575782816,10.695495625048352,172402.0,142763.0,13915.0
62858.27586699227,10.705604789160134,172350.0,142773.0,13898.0
62858.285976156374,10.71571395326464,172389.0,142739.0,13901.0
62858.29608532048,10.725823117369146,172404.0,142745.0,13924.0
62858.30619448459,10.735932281480927,172351.0,142762.0,13907.0
62858.316303648695,10.746041445585433,172358.0,142737.0,13903.0
62858.3264128128,10.75615060968994,172391.0,142751.0,13886.0
62858.33652197691,10.766259773801721,172394.0,142749.0,13866.0
62858.346631141016,10.776368937906227,172406.0,142741.0,13911.0
62858.35674030512,10.786478102010733,172386.0,142747.0,13895.0
62858.366849469225,10.796587266115239,172385.0,142752.0,13888.0
62858.37695863334,10.80669643022702,172364.0,142727.0,13904.0
62858.38706779744,10.816805594331527,172408.0,142772.0,13920.0
62858.397176961545,10.826914758436033,172383.0,142746.0,13896.0
62858.40728612566,10.837023922547814,172397.0,142759.0,13903.0
62858.41739528976,10.84713308665232,172328.0,142700.0,13890.0
62858.427504453866,10.857242250756826,172409.0,142767.0,13902.0
62858.43761361798,10.867351414868608,172388.0,142733.0,13913.0
62858.44772278208,10.877460578973114,172395.0,142740.0,13900.0
62858.45783194619,10.88756974307762,172405.0,142729.0,13896.0
62858.4679411103,10.897678907189402,172406.0,142736.0,13910.0
62858.4780502744,10.907788071293908,172408.0,142743.0,13902.0
62858.48815943851,10.917897235398414,172396.0,142740.0,13906.0
62858.49826860262,10.928006399510195,172385.0,142739.0,13885.0
62858.508377766724,10.938115563614701,172403.0,142730.0,13909.0
62858.51848693083,10.948224727719207,172410.0,142760.0,13917.0
62858.52859609494,10.95833389183099,172408.0,142741.0,13883.0
62858.538705259045,10.968443055935495,172380.0,142751.0,13910.0
62858.54881442315,10.978552220040001,172393.0,142770.0,13931.0
62858.55892358726,10.988661384151783,172385.0,142726.0,13901.0
62858.569032751366,10.998770548256289,172352.0,142740.0,13884.0
62858.57914191547,11.008879712360795,172427.0,142730.0,13898.0
62858.58925107958,11.018988876472577,172428.0,142779.0,13891.0
62858.59936024369,11.029098040577082,172424.0,142765.0,13920.0
62858.60946940779,11.039207204681588,172364.0,142728.0,13894.0
62858.6195785719,11.04931636879337,172403.0,142757.0,13894.0
62858.62968773601,11.059425532897876,172379.0,142768.0,13885.0
62858.63979690011,11.069534697002382,172423.0,142772.0,13924.0
62858.64990606422,11.079643861114164,172370.0,142719.0,13892.0
62858.66001522833,11.08975302521867,172393.0,142749.0,13887.0
62858.67012439243,11.099862189323176,172379.0,142713.0,13884.0
62858.68023355654,11.109971353427682,172412.0,142742.0,13913.0
62858.69034272065,11.120080517539463,172327.0,142730.0,13861.0
62858.70045188475,11.13018968164397,172373.0,142749.0,13890.0
62858.71056104886,11.140298845748475,172398.0,142732.0,13903.0
62858.72067021297,11.150408009860257,172379.0,142756.0,13920.0
62858.730779377074,11.160517173964763,172362.0,142729.0,13877.0
62858.74088854118,11.170626338069269,172383.0,142742.0,13887.0
62858.75099770529,11.18073550218105,172379.0,142747.0,13876.0
62858.761106869395,11.190844666285557,172395.0,142768.0,13923.0
62858.7712160335,11.200953830390063,172356.0,142735.0,13906.0
62858.78132519761,11.211062994501845,172388.0,142748.0,13893.0
62858.791434361716,11.22117215860635,172412.0,142776.0,13896.0
62858.80154352582,11.231281322710856,172417.0,142763.0,13914.0
62858.81165268993,11.241390486822638,172392.0,142724.0,13893.0
62858.82176185404,11.251499650927144,172353.0,142710.0,13887.0
62858.83187101814,11.26160881503165,172362.0,142728.0,13890.0
62858.84198018225,11.271717979143432,172407.0,142772.0,13880.0
62858.85208934636,11.281827143247938,172392.0,142763.0,13926.0
62858.86219851046,11.291936307352444,172395.0,142744.0,13890.0
62858.872307674574,11.302045471464226,172387.0,142759.0,13881.0
62858.88241683868,11.312154635568731,172392.0,142759.0,13899.0
62858.89252600278,11.322263799673237,172376.0,142748.0,13881.0
62858.902635166894,11.33237296378502,172398.0,142756.0,13892.0
62858.912744331,11.342482127889525,172366.0,142736.0,13883.0
62858.9228534951,11.352591291994031,172388.0,142736.0,13880.0
62858.932962659215,11.362700456105813,172396.0,142767.0,13917.0
62858.94307182332,11.372809620210319,172391.0,142749.0,13876.0
62858.953180987424,11.382918784314825,172349.0,142699.0,13909.0
62858.963290151536,11.393027948426607,172385.0,142751.0,13892.0
62858.97339931564,11.403137112531113,172394.0,142729.0,13892.0
62858.983508479745,11.413246276635618,172369.0,142752.0,13893.0
62858.99361764385,11.423355440740124,172399.0,142727.0,13891.0
62859.00372680796,11.433464604851906,172393.0,142751.0,13885.0
62859.013835972066,11.443573768956412,172414.0,142764.0,13895.0
62859.02394513617,11.453682933060918,172391.0,142748.0,13911.0
62859.03405430028,11.4637920971727,172391.0,142744.0,13900.0
62859.04416346439,11.473901261277206,172357.0,142756.0,13892.0
62859.05427262849,11.484010425381712,172392.0,142762.0,13898.0
62859.0643817926,11.494119589493494,172410.0,142772.0,13919.0
62859.07449095671,11.504228753598,172395.0,142754.0,13897.0
62859.08460012081,11.514337917702505,172368.0,142738.0,13859.0
62859.094709284924,11.524447081814287,172413.0,142756.0,13908.0
62859.10481844903,11.534556245918793,172369.0,142724.0,13872.0
62859.11492761313,11.544665410023299,172388.0,142756.0,13899.0
62859.125036777245,11.554774574135081,172395.0,142749.0,13891.0
62859.13514594135,11.564883738239587,172411.0,142746.0,13904.0
62859.14525510545,11.574992902344093,172415.0,142743.0,13903.0
62859.155364269565,11.585102066455875,172404.0,142758.0,13901.0
62859.16547343367,11.59521123056038,172401.0,142758.0,13888.0
62859.175582597774,11.605320394664886,172427.0,142762.0,13903.0
62859.185691761886,11.615429558776668,172381.0,142736.0,13911.0
62859.19580092599,11.625538722881174,172400.0,142749.0,13894.0
62859.205910090095,11.63564788698568,172378.0,142754.0,13896.0
62859.21601925421,11.645757051097462,172420.0,142746.0,13951.0
62859.22612841831,11.655866215201968,172397.0,142761.0,13885.0
62859.236237582416,11.665975379306474,172395.0,142746.0,13896.0
62859.24634674653,11.676084543418256,172362.0,142719.0,13887.0
62859.25645591063,11.686193707522762,172424.0,142760.0,13889.0
62859.26656507474,11.696302871627267,172404.0,142769.0,13927.0
62859.27667423885,11.70641203573905,172407.0,142753.0,13909.0
62859.28678340295,11.716521199843555,172369.0,142747.0,13886.0
62859.29689256706,11.726630363948061,172383.0,142786.0,13898.0
62859.30700173116,11.736739528052567,172392.0,142761.0,13885.0
62859.317110895274,11.746848692164349,172406.0,142765.0,13901.0
62859.32722005938,11.756957856268855,172390.0,142736.0,13897.0
62859.33732922348,11.76706702037336,172439.0,142762.0,13925.0
62859.347438387595,11.777176184485143,172433.0,142769.0,13903.0
62859.3575475517,11.787285348589648,172417.0,142732.0,13904.0
62859.3676567158,11.797394512694154,172397.0,142720.0,13929.0
62859.377765879915,11.807503676805936,172393.0,142758.0,13897.0
62859.38787504402,11.817612840910442,172409.0,142764.0,13898.0
62859.397984208124,11.827722005014948,172410.0,142754.0,13889.0
62859.408093372236,11.83783116912673,172401.0,142756.0,13905.0
62859.41820253634,11.847940333231236,172418.0,142747.0,13875.0
62859.428311700445,11.858049497335742,172430.0,142773.0,13923.0
62859.43842086456,11.868158661447524,172408.0,142752.0,13906.0
62859.44853002866,11.87826782555203,172401.0,142753.0,13909.0
62859.458639192766,11.888376989656535,172387.0,142757.0,13892.0
62859.46874835688,11.898486153768317,172433.0,142751.0,13923.0
62859.47885752098,11.908595317872823,172422.0,142733.0,13910.0
62859.48896668509,11.91870448197733,172381.0,142722.0,13870.0
62859.4990758492,11.928813646089111,172350.0,142724.0,13866.0
62859.5091850133,11.938922810193617,172420.0,142760.0,13879.0
62859.51929417741,11.949031974298123,172392.0,142733.0,13878.0
62859.52940334152,11.959141138409905,172390.0,142734.0,13884.0
62859.539512505624,11.96925030251441,172382.0,142751.0,13914.0
62859.54962166973,11.979359466618916,172373.0,142766.0,13906.0
62859.55973083384,11.989468630730698,172400.0,142744.0,13916.0
62859.569839997945,11.999577794835204,172378.0,142753.0,13879.0
62859.57994916205,12.00968695893971,172359.0,142727.0,13890.0
62859.59005832616,12.019796123051492,172405.0,142744.0,13904.0
62859.600167490265,12.029905287155998,172402.0,142765.0,13904.0
62859.61027665437,12.040014451260504,172382.0,142744.0,13878.0
62859.620385818474,12.05012361536501,172347.0,142737.0,13886.0
62859.630494982586,12.060232779476792,172387.0,142767.0,13910.0
62859.64060414669,12.070341943581298,172389.0,142732.0,13903.0
62859.650713310795,12.080451107685803,172385.0,142740.0,13894.0
62859.66082247491,12.090560271797585,172405.0,142741.0,13875.0
62859.67093163901,12.100669435902091,172382.0,142751.0,13872.0
62859.681040803116,12.110778600006597,172409.0,142775.0,13918.0
62859.69114996723,12.120887764118379,172403.0,142757.0,13891.0
62859.70125913133,12.130996928222885,172349.0,142763.0,13906.0
62859.71136829544,12.14110609232739,172400.0,142771.0,13917.0
62859.72147745955,12.151215256439173,172353.0,142739.0,13886.0
62859.73158662365,12.161324420543679,172390.0,142751.0,13894.0
62859.74169578776,12.171433584648184,172356.0,142721.0,13896.0
62859.75180495187,12.181542748759966,172386.0,142732.0,13885.0
62859.761914115974,12.191651912864472,172402.0,142764.0,13893.0
62859.77202328008,12.201761076968978,172380.0,142741.0,13918.0
62859.78213244419,12.21187024108076,172377.0,142734.0,13898.0
62859.792241608295,12.221979405185266,172381.0,142738.0,13888.0
62859.8023507724,12.232088569289772,172412.0,142769.0,13906.0
62859.81245993651,12.242197733401554,172428.0,142759.0,13909.0
62859.822569100616,12.25230689750606,172391.0,142771.0,13889.0
62859.83267826472,12.262416061610566,172416.0,142766.0,13871.0
62859.84278742883,12.272525225722347,172408.0,142769.0,13903.0
62859.852896592936,12.282634389826853,172368.0,142742.0,13908.0
62859.86300575704,12.29274355393136,172396.0,142749.0,13896.0
62859.87311492115,12.302852718043141,172379.0,142742.0,13889.0
62859.88322408526,12.312961882147647,172400.0,142785.0,13902.0
62859.89333324936,12.323071046252153,172425.0,142763.0,13926.0
62859.90344241347,12.333180210363935,172392.0,142746.0,13895.0
62859.91355157758,12.34328937446844,172364.0,142733.0,13885.0
62859.92366074168,12.353398538572947,172418.0,142760.0,13899.0
62859.93376990579,12.363507702677452,172390.0,142731.0,13909.0
62859.9438790699,12.373616866789234,172399.0,142758.0,13896.0
62859.953988234,12.38372603089374,172376.0,142757.0,13890.0
62859.96409739811,12.393835194998246,172390.0,142766.0,13895.0
62859.97420656222,12.403944359110028,172422.0,142779.0,13915.0
62859.984315726324,12.414053523214534,172408.0,142757.0,13896.0
62859.99442489043,12.42416268731904,172381.0,142731.0,13900.0
62860.00453405454,12.434271851430822,172404.0,142751.0,13897.0
62860.014643218645,12.444381015535328,172426.0,142790.0,13911.0
62860.02475238275,12.454490179639834,172384.0,142743.0,13873.0
62860.03486154686,12.464599343751615,172362.0,142743.0,13903.0
62860.044970710966,12.474708507856121,172408.0,142772.0,13916.0
62860.05507987507,12.484817671960627,172405.0,142781.0,13916.0
62860.06518903918,12.494926836072409,172406.0,142758.0,13905.0
62860.07529820329,12.505036000176915,172404.0,142748.0,13890.0
62860.08540736739,12.51514516428142,172374.0,142738.0,13895.0
62860.0955165315,12.525254328393203,172392.0,142763.0,13928.0
62860.10562569561,12.535363492497709,172397.0,142763.0,13892.0
62860.11573485971,12.545472656602215,172373.0,142741.0,13891.0
62860.12584402382,12.555581820713996,172395.0,142771.0,13903.0
62860.13595318793,12.565690984818502,172437.0,142750.0,13911.0
62860.14606235203,12.575800148923008,172403.0,142757.0,13899.0
62860.156171516144,12.58590931303479,172370.0,142730.0,13860.0
62860.16628068025,12.596018477139296,172373.0,142731.0,13892.0
62860.17638984435,12.606127641243802,172408.0,142772.0,13870.0
62860.186499008465,12.616236805355584,172401.0,142751.0,13942.0
62860.19660817257,12.62634596946009,172402.0,142768.0,13901.0
62860.206717336674,12.636455133564596,172388.0,142718.0,13884.0
62860.216826500786,12.646564297676377,172374.0,142753.0,13902.0
62860.22693566489,12.656673461780883,172388.0,142760.0,13888.0
62860.237044828995,12.66678262588539,172415.0,142747.0,13907.0
62860.2471539931,12.676891789989895,172423.0,142770.0,13897.0
62860.25726315721,12.687000954101677,172442.0,142766.0,13901.0
62860.267372321316,12.697110118206183,172428.0,142760.0,13910.0
62860.27748148542,12.707219282310689,172419.0,142761.0,13897.0
62860.28759064953,12.71732844642247,172398.0,142737.0,13918.0
62860.29769981364,12.727437610526977,172389.0,142743.0,13902.0
62860.30780897774,12.737546774631483,172412.0,142770.0,13908.0
62860.31791814185,12.747655938743264,172408.0,142752.0,13898.0
62860.32802730596,12.75776510284777,172428.0,142745.0,13881.0
62860.33813647006,12.767874266952276,172422.0,142761.0,13870.0
62860.34824563417,12.777983431064058,172378.0,142746.0,13870.0
62860.35835479828,12.788092595168564,172390.0,142743.0,13880.0
62860.36846396238,12.79820175927307,172369.0,142728.0,13877.0
62860.378573126494,12.808310923384852,172350.0,142740.0,13861.0
62860.3886822906,12.818420087489358,172409.0,142776.0,13908.0
62860.3987914547,12.828529251593864,172379.0,142753.0,13879.0
62860.408900618815,12.838638415705645,172376.0,142726.0,13883.0
62860.41900978292,12.848747579810151,172353.0,142725.0,13856.0
62860.429118947024,12.858856743914657,172386.0,142756.0,13899.0
62860.439228111136,12.86896590802644,172366.0,142740.0,13891.0
62860.44933727524,12.879075072130945,172357.0,142739.0,13908.0
62860.459446439345,12.889184236235451,172372.0,142757.0,13887.0
62860.46955560346,12.899293400347233,172396.0,142769.0,13922.0
62860.47966476756,12.909402564451739,172374.0,142744.0,13893.0
62860.489773931666,12.919511728556245,172413.0,142724.0,13903.0
62860.49988309578,12.929620892668026,172370.0,142719.0,13876.0
62860.50999225988,12.939730056772532,172411.0,142776.0,13904.0
62860.52010142399,12.949839220877038,172376.0,142751.0,13898.0
62860.5302105881,12.95994838498882,172388.0,142764.0,13882.0
62860.5403197522,12.970057549093326,172343.0,142762.0,13883.0
62860.55042891631,12.980166713197832,172356.0,142756.0,13876.0
62860.56053808041,12.990275877302338,172387.0,142758.0,13901.0
62860.57064724452,13.00038504141412,172347.0,142739.0,13879.0
62860.58075640863,13.010494205518626,172356.0,142718.0,13874.0
62860.59086557273,13.020603369623132,172376.0,142743.0,13877.0
62860.600974736844,13.030712533734913,172382.0,142747.0,13881.0
62860.61108390095,13.04082169783942,172387.0,142722.0,13891.0
62860.62119306505,13.050930861943925,172361.0,142731.0,13905.0
62860.631302229165,13.061040026055707,172349.0,142736.0,13874.0
62860.64141139327,13.071149190160213,172369.0,142739.0,13870.0
62860.651520557374,13.081258354264719,172365.0,142737.0,13892.0
62860.661629721486,13.0913675183765,172388.0,142747.0,13875.0
62860.67173888559,13.101476682481007,172371.0,142722.0,13880.0
62860.681848049695,13.111585846585513,172368.0,142738.0,13874.0
62860.69195721381,13.121695010697294,172386.0,142722.0,13896.0
62860.70206637791,13.1318041748018,172367.0,142719.0,13906.0
62860.712175542016,13.141913338906306,172377.0,142748.0,13888.0
62860.72228470613,13.152022503018088,172358.0,142731.0,13893.0
62860.73239387023,13.162131667122594,172386.0,142745.0,13892.0
62860.74250303434,13.1722408312271,172375.0,142720.0,13879.0
62860.75261219845,13.182349995338882,172386.0,142748.0,13867.0
62860.76272136255,13.192459159443388,172372.0,142730.0,13910.0
62860.77283052666,13.202568323547894,172378.0,142757.0,13889.0
62860.78293969077,13.212677487659676,172385.0,142779.0,13909.0
62860.79304885487,13.222786651764181,172342.0,142726.0,13874.0
62860.80315801898,13.232895815868687,172401.0,142751.0,13924.0
62860.81326718309,13.24300497998047,172378.0,142747.0,13891.0
62860.823376347194,13.253114144084975,172346.0,142704.0,13882.0
62860.8334855113,13.263223308189481,172348.0,142738.0,13878.0
62860.84359467541,13.273332472301263,172361.0,142751.0,13902.0
62860.853703839515,13.283441636405769,172388.0,142749.0,13901.0
62860.86381300362,13.293550800510275,172366.0,142747.0,13880.0
62860.873922167724,13.30365996461478,172373.0,142739.0,13893.0
62860.884031331836,13.313769128726562,172364.0,142728.0,13870.0
62860.89414049594,13.323878292831068,172380.0,142747.0,13892.0
62860.904249660045,13.333987456935574,172395.0,142725.0,13891.0
62860.91435882416,13.344096621047356,172392.0,142757.0,13878.0
62860.92446798826,13.354205785151862,172370.0,142725.0,13884.0
62860.934577152366,13.364314949256368,172392.0,142752.0,13911.0
62860.94468631648,13.37442411336815,172392.0,142768.0,13907.0
62860.95479548058,13.384533277472656,172345.0,142740.0,13873.0
62860.96490464469,13.394642441577162,172406.0,142751.0,13903.0
62860.9750138088,13.404751605688944,172371.0,142744.0,13889.0
62860.9851229729,13.41486076979345,172357.0,142742.0,13902.0
62860.99523213701,13.424969933897955,172417.0,142786.0,13911.0
62861.00534130112,13.435079098009737,172406.0,142725.0,13929.0
62861.015450465224,13.445188262114243,172391.0,142750.0,13884.0
62861.02555962933,13.455297426218749,172358.0,142722.0,13898.0
62861.03566879344,13.465406590330531,172401.0,142776.0,13908.0
62861.045777957544,13.475515754435037,172377.0,142758.0,13914.0
62861.05588712165,13.485624918539543,172349.0,142752.0,13877.0
62861.06599628576,13.495734082651325,172386.0,142732.0,13895.0
62861.076105449865,13.50584324675583,172369.0,142731.0,13893.0
62861.08621461397,13.515952410860336,172374.0,142746.0,13883.0
62861.09632377808,13.526061574972118,172378.0,142754.0,13880.0
62861.106432942186,13.536170739076624,172381.0,142740.0,13895.0
62861.11654210629,13.54627990318113,172353.0,142723.0,13894.0
62861.1266512704,13.556389067292912,172364.0,142730.0,13905.0
62861.13676043451,13.566498231397418,172395.0,142758.0,13913.0
62861.14686959861,13.576607395501924,172382.0,142738.0,13879.0
62861.15697876272,13.586716559613706,172361.0,142734.0,13861.0
62861.16708792683,13.596825723718212,172381.0,142741.0,13893.0
62861.17719709093,13.606934887822717,172359.0,142719.0,13860.0
62861.18730625504,13.617044051927223,172365.0,142744.0,13871.0
62861.19741541915,13.627153216039005,172371.0,142777.0,13863.0
62861.20752458325,13.637262380143511,172385.0,142764.0,13903.0
62861.21763374736,13.647371544248017,172333.0,142743.0,13869.0
62861.22774291147,13.657480708359799,172323.0,142758.0,13901.0
62861.237852075574,13.667589872464305,172332.0,142758.0,13884.0
62861.24796123968,13.67769903656881,172345.0,142700.0,13883.0
62861.25807040379,13.687808200680593,172338.0,142718.0,13871.0
62861.268179567895,13.697917364785098,172360.0,142752.0,13879.0
62861.278288732,13.708026528889604,172329.0,142738.0,13863.0
62861.28839789611,13.718135693001386,172393.0,142767.0,13892.0
62861.298507060215,13.728244857105892,172337.0,142724.0,13864.0
62861.30861622432,13.738354021210398,172363.0,142741.0,13884.0
62861.31872538843,13.74846318532218,172361.0,142739.0,13882.0
62861.328834552536,13.758572349426686,172354.0,142736.0,13897.0
62861.33894371664,13.768681513531192,172335.0,142736.0,13864.0
62861.34905288075,13.778790677642974,172358.0,142753.0,13879.0
62861.35916204486,13.78889984174748,172365.0,142737.0,13906.0
62861.36927120896,13.799009005851985,172369.0,142754.0,13913.0
62861.37938037307,13.809118169963767,172324.0,142720.0,13874.0
62861.38948953718,13.819227334068273,172346.0,142749.0,13877.0
62861.39959870128,13.829336498172779,172313.0,142738.0,13881.0
62861.409707865394,13.839445662284561,172386.0,142771.0,13915.0
62861.4198170295,13.849554826389067,172357.0,142723.0,13886.0
62861.4299261936,13.859663990493573,172339.0,142755.0,13876.0
62861.440035357715,13.869773154605355,172347.0,142715.0,13880.0
62861.45014452182,13.87988231870986,172379.0,142753.0,13854.0
62861.460253685924,13.889991482814366,172328.0,142746.0,13876.0
62861.470362850036,13.900100646926148,172357.0,142749.0,13884.0
62861.48047201414,13.910209811030654,172344.0,142724.0,13891.0
62861.490581178245,13.92031897513516,172313.0,142752.0,13926.0
62861.50069034235,13.930428139239666,172323.0,142734.0,13869.0
62861.51079950646,13.940537303351448,172345.0,142725.0,13871.0
62861.520908670565,13.950646467455954,172355.0,142735.0,13877.0
62861.53101783467,13.96075563156046,172347.0,142722.0,13913.0
62861.54112699878,13.970864795672242,172363.0,142721.0,13910.0
62861.551236162886,13.980973959776748,172382.0,142744.0,13897.0
62861.56134532699,13.991083123881253,172360.0,142754.0,13889.0
62861.5714544911,14.001192287993035,172396.0,142725.0,13915.0
62861.58156365521,14.011301452097541,172369.0,142723.0,13887.0
62861.59167281931,14.021410616202047,172350.0,142717.0,13868.0
62861.60178198342,14.031519780313829,172362.0,142743.0,13893.0
62861.61189114753,14.041628944418335,172374.0,142756.0,13874.0
62861.62200031163,14.05173810852284,172385.0,142749.0,13898.0
62861.632109475744,14.061847272634623,172337.0,142722.0,13873.0
62861.64221863985,14.071956436739129,172352.0,142742.0,13891.0
62861.65232780395,14.082065600843634,172308.0,142752.0,13888.0
62861.662436968065,14.092174764955416,172330.0,142743.0,13901.0
62861.67254613217,14.102283929059922,172379.0,142778.0,13927.0
62861.682655296274,14.112393093164428,172362.0,142745.0,13891.0
62861.692764460386,14.12250225727621,172341.0,142721.0,13894.0
62861.70287362449,14.132611421380716,172380.0,142722.0,13923.0
62861.712982788595,14.142720585485222,172347.0,142722.0,13885.0
62861.72309195271,14.152829749597004,172365.0,142745.0,13893.0
62861.73320111681,14.16293891370151,172387.0,142739.0,13897.0
62861.743310280915,14.173048077806015,172380.0,142757.0,13915.0
62861.75341944503,14.183157241917797,172335.0,142746.0,13868.0
62861.76352860913,14.193266406022303,172370.0,142749.0,13891.0
62861.773637773236,14.20337557012681,172380.0,142761.0,13878.0
62861.78374693735,14.213484734238591,172380.0,142756.0,13899.0
62861.79385610145,14.223593898343097,172339.0,142729.0,13892.0
62861.80396526556,14.233703062447603,172356.0,142743.0,13888.0
62861.81407442966,14.243812226552109,172335.0,142742.0,13896.0
62861.82418359377,14.25392139066389,172389.0,142749.0,13913.0
62861.83429275788,14.264030554768397,172367.0,142720.0,13890.0
62861.84440192198,14.274139718872902,172354.0,142741.0,13900.0
62861.854511086094,14.284248882984684,172390.0,142726.0,13891.0
62861.8646202502,14.29435804708919,172386.0,142730.0,13900.0
62861.8747294143,14.304467211193696,172339.0,142752.0,13878.0
62861.884838578415,14.314576375305478,172368.0,142736.0,13864.0
62861.89494774252,14.324685539409984,172374.0,142769.0,13892.0
62861.905056906624,14.33479470351449,172352.0,142763.0,13888.0
62861.915166070736,14.344903867626272,172336.0,142727.0,13875.0
62861.92527523484,14.355013031730778,172320.0,142723.0,13896.0
62861.935384398945,14.365122195835283,172349.0,142734.0,13887.0
62861.94549356306,14.375231359947065,172323.0,142737.0,13871.0
62861.95560272716,14.385340524051571,172309.0,142742.0,13886.0
62861.965711891266,14.395449688156077,172332.0,142706.0,13864.0
62861.97582105538,14.405558852267859,172337.0,142738.0,13881.0
62861.98593021948,14.415668016372365,172348.0,142738.0,13894.0
62861.996039383586,14.42577718047687,172341.0,142715.0,13881.0
62862.0061485477,14.435886344588653,172307.0,142724.0,13862.0
62862.0162577118,14.445995508693159,172333.0,142735.0,13878.0
62862.02636687591,14.456104672797665,172328.0,142738.0,13863.0
62862.03647604002,14.466213836909446,172309.0,142713.0,13889.0
62862.04658520412,14.476323001013952,172289.0,142696.0,13871.0
62862.05669436823,14.486432165118458,172339.0,142739.0,13876.0
62862.06680353234,14.49654132923024,172312.0,142751.0,13874.0
62862.076912696444,14.506650493334746,172329.0,142735.0,13892.0
62862.08702186055,14.516759657439252,172306.0,142739.0,13863.0
62862.09713102466,14.526868821551034,172331.0,142738.0,13875.0
62862.107240188765,14.53697798565554,172301.0,142717.0,13872.0
62862.11734935287,14.547087149760046,172365.0,142755.0,13884.0
62862.127458516974,14.557196313864551,172299.0,142721.0,13851.0
62862.137567681086,14.567305477976333,172336.0,142747.0,13876.0
62862.14767684519,14.57741464208084,172342.0,142742.0,13911.0
62862.157786009295,14.587523806185345,172321.0,142739.0,13895.0
62862.16789517341,14.597632970297127,172293.0,142738.0,13858.0
62862.17800433751,14.607742134401633,172313.0,142737.0,13880.0
62862.188113501616,14.617851298506139,172310.0,142738.0,13871.0
62862.19822266573,14.62796046261792,172338.0,142770.0,13898.0
62862.20833182983,14.638069626722427,172317.0,142726.0,13892.0
62862.21844099394,14.648178790826933,172324.0,142746.0,13856.0
62862.22855015805,14.658287954938714,172295.0,142743.0,13888.0
62862.23865932215,14.66839711904322,172350.0,142758.0,13898.0
62862.24876848626,14.678506283147726,172348.0,142712.0,13899.0
62862.25887765037,14.688615447259508,172309.0,142747.0,13855.0
62862.26898681447,14.698724611364014,172323.0,142733.0,13873.0
62862.27909597858,14.70883377546852,172357.0,142762.0,13879.0
62862.28920514269,14.718942939580302,172329.0,142729.0,13883.0
62862.299314306794,14.729052103684808,172297.0,142720.0,13897.0
62862.3094234709,14.739161267789314,172331.0,142763.0,13880.0
62862.31953263501,14.749270431901095,172321.0,142743.0,13881.0
62862.329641799115,14.759379596005601,172318.0,142731.0,13879.0
62862.33975096322,14.769488760110107,172313.0,142717.0,13877.0
62862.34986012733,14.77959792422189,172330.0,142734.0,13894.0
62862.359969291436,14.789707088326395,172317.0,142731.0,13893.0
62862.37007845554,14.799816252430901,172310.0,142723.0,13906.0
62862.38018761965,14.809925416542683,172323.0,142735.0,13881.0
62862.39029678376,14.820034580647189,172340.0,142754.0,13881.0
62862.40040594786,14.830143744751695,172351.0,142746.0,13894.0
62862.41051511197,14.840252908863476,172358.0,142762.0,13900.0
62862.42062427608,14.850362072967982,172332.0,142735.0,13873.0
62862.43073344018,14.860471237072488,172334.0,142745.0,13875.0
62862.44084260429,14.870580401176994,172350.0,142727.0,13869.0
62862.4509517684,14.880689565288776,172358.0,142759.0,13903.0
62862.4610609325,14.890798729393282,172307.0,142740.0,13885.0
62862.47117009661,14.900907893497788,172338.0,142748.0,13886.0
62862.48127926072,14.91101705760957,172341.0,142769.0,13892.0
62862.49138842482,14.921126221714076,172324.0,142713.0,13863.0
62862.50149758893,14.931235385818582,172325.0,142710.0,13875.0
62862.51160675304,14.941344549930363,172352.0,142749.0,13888.0
62862.521715917144,14.95145371403487,172306.0,142705.0,13884.0
62862.53182508125,14.961562878139375,172354.0,142760.0,13893.0
62862.54193424536,14.971672042251157,172334.0,142736.0,13899.0
62862.552043409465,14.981781206355663,172343.0,142740.0,13904.0
62862.56215257357,14.991890370460169,172344.0,142744.0,13877.0
62862.57226173768,15.00199953457195,172341.0,142709.0,13917.0
62862.582370901786,15.012108698676457,172328.0,142732.0,13876.0
62862.59248006589,15.022217862780963,172340.0,142745.0,13894.0
62862.60258923,15.032327026892744,172345.0,142736.0,13870.0
62862.61269839411,15.04243619099725,172368.0,142726.0,13891.0
62862.62280755821,15.052545355101756,172329.0,142756.0,13891.0
62862.63291672232,15.062654519213538,172347.0,142746.0,13878.0
62862.64302588643,15.072763683318044,172326.0,142741.0,13902.0
62862.65313505053,15.08287284742255,172354.0,142749.0,13894.0
62862.663244214644,15.092982011534332,172357.0,142746.0,13912.0
62862.67335337875,15.103091175638838,172340.0,142734.0,13878.0
62862.68346254285,15.113200339743344,172336.0,142722.0,13886.0
62862.693571706965,15.123309503855126,172359.0,142803.0,13893.0
62862.70368087107,15.133418667959631,172352.0,142736.0,13906.0
62862.71379003517,15.143527832064137,172307.0,142724.0,13878.0
62862.723899199285,15.15363699617592,172338.0,142740.0,13892.0
62862.73400836339,15.163746160280425,172312.0,142723.0,13885.0
62862.744117527494,15.173855324384931,172367.0,142768.0,13919.0
62862.7542266916,15.183964488489437,172324.0,142708.0,13886.0
62862.76433585571,15.194073652601219,172337.0,142732.0,13877.0
62862.774445019815,15.204182816705725,172307.0,142697.0,13874.0
62862.78455418392,15.21429198081023,172357.0,142746.0,13904.0
62862.79466334803,15.224401144922012,172300.0,142722.0,13857.0
62862.804772512136,15.234510309026518,172312.0,142730.0,13877.0
62862.81488167624,15.244619473131024,172326.0,142717.0,13879.0
62862.82499084035,15.254728637242806,172308.0,142756.0,13876.0
62862.83510000446,15.264837801347312,172290.0,142741.0,13871.0
62862.84520916856,15.274946965451818,172301.0,142720.0,13877.0
62862.85531833267,15.2850561295636,172299.0,142707.0,13865.0
62862.86542749678,15.295165293668106,172328.0,142748.0,13863.0
62862.87553666088,15.305274457772612,172300.0,142723.0,13862.0
62862.885645824994,15.315383621884394,172307.0,142738.0,13878.0
62862.8957549891,15.3254927859889,172278.0,142736.0,13875.0
62862.9058641532,15.335601950093405,172303.0,142741.0,13899.0
62862.915973317315,15.345711114205187,172299.0,142723.0,13874.0
62862.92608248142,15.355820278309693,172308.0,142733.0,13876.0
62862.936191645524,15.365929442414199,172290.0,142709.0,13866.0
62862.946300809635,15.37603860652598,172332.0,142730.0,13854.0
62862.95640997374,15.386147770630487,172335.0,142744.0,13893.0
62862.966519137844,15.396256934734993,172273.0,142719.0,13850.0
62862.976628301956,15.406366098846775,172259.0,142693.0,13854.0
62862.98673746606,15.41647526295128,172324.0,142755.0,13894.0
62862.996846630165,15.426584427055786,172291.0,142720.0,13862.0
62863.00695579428,15.436693591167568,172313.0,142731.0,13872.0
62863.01706495838,15.446802755272074,172293.0,142721.0,13869.0
62863.027174122486,15.45691191937658,172315.0,142712.0,13883.0
62863.0372832866,15.467021083488362,172331.0,142747.0,13892.0
62863.0473924507,15.477130247592868,172300.0,142742.0,13864.0
62863.05750161481,15.487239411697374,172279.0,142721.0,13895.0
62863.06761077891,15.49734857580188,172290.0,142721.0,13881.0
62863.07771994302,15.507457739913661,172307.0,142706.0,13865.0
62863.08782910713,15.517566904018167,172294.0,142725.0,13873.0
62863.09793827123,15.527676068122673,172301.0,142710.0,13861.0
62863.108047435344,15.537785232234455,172311.0,142727.0,13852.0
62863.11815659945,15.547894396338961,172277.0,142732.0,13899.0
62863.12826576355,15.558003560443467,172289.0,142721.0,13885.0
62863.138374927665,15.568112724555249,172299.0,142740.0,13876.0
62863.14848409177,15.578221888659755,172277.0,142741.0,13874.0
62863.158593255874,15.58833105276426,172335.0,142748.0,13891.0
62863.168702419985,15.598440216876043,172324.0,142723.0,13908.0
62863.17881158409,15.608549380980548,172322.0,142739.0,13881.0
62863.188920748195,15.618658545085054,172293.0,142735.0,13881.0
62863.199029912306,15.628767709196836,172339.0,142757.0,13894.0
62863.20913907641,15.638876873301342,172315.0,142738.0,13911.0
62863.219248240515,15.648986037405848,172313.0,142746.0,13884.0
62863.22935740463,15.65909520151763,172286.0,142732.0,13872.0
62863.23946656873,15.669204365622136,172279.0,142756.0,13895.0
62863.249575732836,15.679313529726642,172302.0,142747.0,13895.0
62863.25968489695,15.689422693838424,172310.0,142741.0,13883.0
62863.26979406105,15.69953185794293,172273.0,142715.0,13897.0
62863.27990322516,15.709641022047435,172296.0,142708.0,13880.0
62863.29001238927,15.719750186159217,172316.0,142734.0,13907.0
62863.30012155337,15.729859350263723,172320.0,142734.0,13879.0
62863.31023071748,15.739968514368229,172290.0,142735.0,13885.0
62863.32033988159,15.750077678480011,172312.0,142748.0,13874.0
62863.330449045694,15.760186842584517,172329.0,142752.0,13907.0
62863.3405582098,15.770296006689023,172316.0,142732.0,13879.0
62863.35066737391,15.780405170800805,172336.0,142735.0,13853.0
62863.360776538015,15.79051433490531,172320.0,142732.0,13859.0
62863.37088570212,15.800623499009816,172321.0,142772.0,13911.0
62863.380994866224,15.810732663114322,172310.0,142736.0,13879.0
62863.391104030336,15.820841827226104,172300.0,142721.0,13864.0
62863.40121319444,15.83095099133061,172300.0,142729.0,13874.0
62863.411322358545,15.841060155435116,172325.0,142720.0,13884.0
62863.421431522656,15.851169319546898,172315.0,142737.0,13890.0
62863.43154068676,15.861278483651404,172331.0,142706.0,13899.0
62863.441649850865,15.87138764775591,172312.0,142717.0,13867.0
62863.45175901498,15.881496811867692,172327.0,142752.0,13880.0
62863.46186817908,15.891605975972197,172321.0,142738.0,13930.0
62863.471977343186,15.901715140076703,172325.0,142749.0,13888.0
62863.4820865073,15.911824304188485,172336.0,142745.0,13890.0
62863.4921956714,15.921933468292991,172344.0,142757.0,13909.0
62863.50230483551,15.932042632397497,172298.0,142743.0,13888.0
62863.51241399962,15.942151796509279,172322.0,142713.0,13887.0
62863.52252316372,15.952260960613785,172306.0,142725.0,13884.0
62863.53263232783,15.96237012471829,172355.0,142753.0,13894.0
62863.54274149194,15.972479288830073,172312.0,142748.0,13898.0
62863.552850656044,15.982588452934579,172333.0,142745.0,13892.0
62863.56295982015,15.992697617039084,172318.0,142719.0,13902.0
62863.57306898426,16.002806781150866,172340.0,142763.0,13887.0
62863.583178148365,16.012915945255372,172365.0,142758.0,13909.0
62863.59328731247,16.023025109359878,172342.0,142738.0,13894.0
62863.60339647658,16.03313427347166,172322.0,142738.0,13900.0
62863.613505640686,16.043243437576166,172364.0,142773.0,13895.0
62863.62361480479,16.053352601680672,172364.0,142756.0,13902.0
62863.6337239689,16.063461765792454,172312.0,142721.0,13877.0
62863.64383313301,16.07357092989696,172290.0,142721.0,13902.0
62863.65394229711,16.083680094001465,172287.0,142726.0,13870.0
62863.66405146122,16.093789258113247,172333.0,142753.0,13911.0
62863.67416062533,16.103898422217753,172325.0,142727.0,13876.0
62863.68426978943,16.11400758632226,172302.0,142702.0,13893.0
62863.694378953536,16.124116750426765,172324.0,142736.0,13908.0
62863.70448811765,16.134225914538547,172269.0,142697.0,13860.0
62863.71459728175,16.144335078643053,172292.0,142730.0,13880.0
62863.72470644586,16.15444424274756,172278.0,142705.0,13872.0
62863.73481560997,16.16455340685934,172274.0,142682.0,13863.0
62863.74492477407,16.174662570963847,172296.0,142741.0,13891.0
62863.75503393818,16.184771735068352,172281.0,142724.0,13864.0
62863.76514310229,16.194880899180134,172265.0,142683.0,13829.0
62863.775252266394,16.20499006328464,172283.0,142713.0,13864.0
62863.7853614305,16.215099227389146,172303.0,142731.0,13876.0
62863.79547059461,16.225208391500928,172288.0,142716.0,13874.0
62863.805579758715,16.235317555605434,172264.0,142728.0,13854.0
62863.81568892282,16.24542671970994,172284.0,142748.0,13882.0
62863.82579808693,16.25553588382172,172298.0,142756.0,13862.0
62863.835907251036,16.265645047926228,172286.0,142725.0,13877.0
62863.84601641514,16.275754212030733,172286.0,142718.0,13865.0
62863.85612557925,16.285863376142515,172246.0,142716.0,13846.0
62863.86623474336,16.29597254024702,172275.0,142750.0,13847.0
62863.87634390746,16.306081704351527,172272.0,142716.0,13898.0
62863.88645307157,16.31619086846331,172264.0,142733.0,13876.0
62863.89656223568,16.326300032567815,172240.0,142729.0,13865.0
62863.90667139978,16.33640919667232,172246.0,142746.0,13884.0
62863.91678056389,16.346518360784103,172247.0,142724.0,13863.0
62863.926889728,16.35662752488861,172273.0,142719.0,13880.0
62863.9369988921,16.366736688993115,172254.0,142692.0,13871.0
62863.947108056214,16.376845853104896,172278.0,142696.0,13876.0
62863.95721722032,16.386955017209402,172292.0,142748.0,13852.0
62863.96732638442,16.397064181313908,172283.0,142716.0,13869.0
62863.977435548535,16.40717334542569,172282.0,142712.0,13882.0
62863.98754471264,16.417282509530196,172263.0,142693.0,13878.0
62863.997653876744,16.427391673634702,172271.0,142714.0,13897.0
62864.00776304085,16.437500837739208,172270.0,142718.0,13868.0
62864.01787220496,16.44761000185099,172256.0,142686.0,13860.0
62864.027981369065,16.457719165955496,172299.0,142698.0,13903.0
62864.03809053317,16.46782833006,172299.0,142731.0,13907.0
62864.04819969728,16.477937494171783,172266.0,142726.0,13875.0
62864.058308861386,16.48804665827629,172296.0,142733.0,13858.0
62864.06841802549,16.498155822380795,172307.0,142745.0,13894.0
62864.0785271896,16.508264986492577,172277.0,142734.0,13880.0
62864.08863635371,16.518374150597083,172289.0,142733.0,13880.0
62864.09874551781,16.52848331470159,172263.0,142721.0,13862.0
62864.10885468192,16.53859247881337,172268.0,142718.0,13869.0
62864.11896384603,16.548701642917877,172310.0,142735.0,13888.0
62864.12907301013,16.558810807022383,172282.0,142729.0,13877.0
62864.13918217424,16.568919971134164,172270.0,142708.0,13874.0
62864.14929133835,16.57902913523867,172265.0,142724.0,13895.0
62864.15940050245,16.589138299343176,172282.0,142711.0,13871.0
62864.169509666564,16.599247463454958,172260.0,142702.0,13875.0
62864.17961883067,16.609356627559464,172279.0,142699.0,13887.0
62864.18972799477,16.61946579166397,172294.0,142744.0,13899.0
62864.199837158885,16.62957495577575,172262.0,142703.0,13868.0
62864.20994632299,16.639684119880258,172284.0,142721.0,13886.0
62864.220055487094,16.649793283984764,172277.0,142720.0,13877.0
62864.230164651206,16.659902448096545,172277.0,142753.0,13878.0
62864.24027381531,16.67001161220105,172282.0,142728.0,13876.0
62864.250382979415,16.680120776305557,172296.0,142723.0,13876.0
62864.26049214353,16.69022994041734,172289.0,142731.0,13861.0
62864.27060130763,16.700339104521845,172338.0,142744.0,13910.0
62864.280710471736,16.71044826862635,172283.0,142731.0,13876.0
62864.29081963585,16.720557432738133,172290.0,142721.0,13886.0
62864.30092879995,16.73066659684264,172263.0,142719.0,13884.0
62864.31103796406,16.740775760947145,172263.0,142700.0,13856.0
62864.32114712816,16.75088492505165,172270.0,142716.0,13871.0
62864.33125629227,16.760994089163432,172296.0,142718.0,13892.0
62864.34136545638,16.77110325326794,172295.0,142717.0,13873.0
62864.35147462048,16.781212417372444,172301.0,142718.0,13874.0
62864.361583784594,16.791321581484226,172262.0,142725.0,13857.0
62864.3716929487,16.801430745588732,172283.0,142724.0,13868.0
62864.3818021128,16.811539909693238,172290.0,142722.0,13882.0
62864.391911276914,16.82164907380502,172284.0,142693.0,13894.0
62864.40202044102,16.831758237909526,172284.0,142706.0,13897.0
62864.41212960512,16.84186740201403,172275.0,142713.0,13877.0
62864.422238769235,16.851976566125813,172299.0,142737.0,13878.0
62864.43234793334,16.86208573023032,172274.0,142698.0,13858.0
62864.442457097444,16.872194894334825,172300.0,142703.0,13905.0
62864.452566261556,16.882304058446607,172287.0,142713.0,13887.0
62864.46267542566,16.892413222551113,172308.0,142729.0,13883.0
62864.472784589765,16.90252238665562,172316.0,142752.0,13878.0
62864.48289375388,16.9126315507674,172263.0,142730.0,13879.0
62864.49300291798,16.922740714871907,172311.0,142700.0,13861.0
62864.503112082086,16.932849878976413,172309.0,142727.0,13879.0
62864.5132212462,16.942959043088194,172312.0,142761.0,13887.0
62864.5233304103,16.9530682071927,172299.0,142768.0,13911.0
62864.53343957441,16.963177371297206,172322.0,142752.0,13913.0
62864.54354873852,16.973286535408988,172299.0,142729.0,13898.0
62864.55365790262,16.983395699513494,172265.0,142716.0,13891.0
62864.56376706673,16.993504863618,172231.0,142710.0,13871.0
62864.57387623084,17.003614027729782,172273.0,142707.0,13859.0
62864.583985394944,17.013723191834288,172289.0,142723.0,13876.0
62864.59409455905,17.023832355938794,172274.0,142710.0,13873.0
62864.60420372316,17.033941520050575,172310.0,142750.0,13910.0
62864.614312887265,17.04405068415508,172237.0,142707.0,13838.0
62864.62442205137,17.054159848259587,172270.0,142720.0,13864.0
62864.63453121547,17.064269012364093,172304.0,142766.0,13890.0
62864.644640379585,17.074378176475875,172254.0,142699.0,13848.0
62864.65474954369,17.08448734058038,172284.0,142736.0,13893.0
62864.664858707794,17.094596504684887,172264.0,142725.0,13862.0
62864.674967871906,17.10470566879667,172240.0,142713.0,13878.0
62864.68507703601,17.114814832901175,172288.0,142756.0,13910.0
62864.695186200115,17.12492399700568,172246.0,142700.0,13873.0
62864.70529536423,17.135033161117462,172237.0,142697.0,13850.0
62864.71540452833,17.14514232522197,172257.0,142690.0,13870.0
62864.725513692436,17.155251489326474,172294.0,142733.0,13869.0
62864.73562285655,17.165360653438256,172278.0,142734.0,13900.0
62864.74573202065,17.175469817542762,172265.0,142719.0,13855.0
62864.75584118476,17.185578981647268,172265.0,142716.0,13862.0
62864.76595034887,17.19568814575905,172277.0,142742.0,13862.0
62864.77605951297,17.205797309863556,172234.0,142707.0,13860.0
62864.78616867708,17.21590647396806,172239.0,142721.0,13875.0
62864.79627784119,17.226015638079843,172270.0,142732.0,13882.0
62864.806387005294,17.23612480218435,172246.0,142720.0,13890.0
62864.8164961694,17.246233966288855,172254.0,142704.0,13858.0
62864.82660533351,17.256343130400637,172254.0,142715.0,13859.0
62864.836714497615,17.266452294505143,172227.0,142716.0,13870.0
62864.84682366172,17.27656145860965,172281.0,142720.0,13893.0
62864.85693282583,17.28667062272143,172281.0,142725.0,13886.0
62864.867041989935,17.296779786825937,172255.0,142685.0,13871.0
62864.87715115404,17.306888950930443,172261.0,142724.0,13871.0
62864.88726031815,17.316998115042225,172279.0,142735.0,13851.0
62864.897369482256,17.32710727914673,172266.0,142717.0,13900.0
62864.90747864636,17.337216443251236,172252.0,142712.0,13871.0
62864.91758781047,17.347325607363018,172268.0,142730.0,13873.0
62864.92769697458,17.357434771467524,172229.0,142734.0,13867.0
62864.93780613868,17.36754393557203,172255.0,142715.0,13860.0
62864.947915302786,17.377653099676536,172255.0,142714.0,13890.0
62864.9580244669,17.387762263788318,172266.0,142722.0,13872.0
62864.968133631,17.397871427892824,172255.0,142739.0,13900.0
62864.97824279511,17.40798059199733,172267.0,142737.0,13907.0
62864.98835195922,17.41808975610911,172260.0,142695.0,13857.0
62864.99846112332,17.428198920213617,172268.0,142724.0,13876.0
62865.00857028743,17.438308084318123,172286.0,142728.0,13876.0
62865.01867945154,17.448417248429905,172286.0,142722.0,13902.0
62865.028788615644,17.45852641253441,172244.0,142723.0,13897.0
62865.03889777975,17.468635576638917,172278.0,142728.0,13881.0
62865.04900694386,17.4787447407507,172305.0,142762.0,13898.0
62865.059116107965,17.488853904855205,172279.0,142738.0,13906.0
62865.06922527207,17.49896306895971,172239.0,142698.0,13883.0
62865.07933443618,17.509072233071493,172280.0,142737.0,13872.0
62865.089443600285,17.519181397176,172260.0,142723.0,13893.0
62865.09955276439,17.529290561280504,172279.0,142718.0,13882.0
62865.1096619285,17.539399725392286,172251.0,142703.0,13869.0
62865.119771092606,17.549508889496792,172260.0,142723.0,13877.0
62865.12988025671,17.559618053601298,172258.0,142712.0,13881.0
62865.13998942082,17.56972721771308,172292.0,142760.0,13903.0
62865.15009858493,17.579836381817586,172258.0,142724.0,13852.0
62865.16020774903,17.58994554592209,172269.0,142731.0,13869.0
62865.17031691314,17.600054710033874,172279.0,142732.0,13895.0
62865.18042607725,17.61016387413838,172308.0,142743.0,13883.0
62865.19053524135,17.620273038242885,172255.0,142712.0,13870.0
62865.200644405464,17.630382202354667,172279.0,142731.0,13871.0
62865.21075356957,17.640491366459173,172283.0,142740.0,13897.0
62865.22086273367,17.65060053056368,172291.0,142754.0,13898.0
62865.230971897785,17.66070969467546,172254.0,142704.0,13909.0
62865.24108106189,17.670818858779967,172249.0,142741.0,13892.0
62865.251190225994,17.680928022884473,172275.0,142714.0,13889.0
62865.2612993901,17.69103718698898,172295.0,142735.0,13904.0
62865.27140855421,17.70114635110076,172289.0,142701.0,13898.0
62865.281517718315,17.711255515205266,172265.0,142706.0,13873.0
62865.29162688242,17.721364679309772,172287.0,142733.0,13885.0
62865.30173604653,17.731473843421554,172303.0,142744.0,13893.0
62865.311845210636,17.74158300752606,172284.0,142730.0,13897.0
62865.32195437474,17.751692171630566,172269.0,142703.0,13876.0
62865.33206353885,17.761801335742348,172297.0,142727.0,13892.0
62865.342172702956,17.771910499846854,172276.0,142745.0,13885.0
62865.35228186706,17.78201966395136,172278.0,142714.0,13891.0
62865.36239103117,17.79212882806314,172280.0,142726.0,13906.0
62865.37250019528,17.802237992167647,172282.0,142731.0,13890.0
62865.38260935938,17.812347156272153,172283.0,142742.0,13909.0
62865.39271852349,17.822456320383935,172280.0,142721.0,13906.0
62865.4028276876,17.83256548448844,172257.0,142708.0,13866.0
62865.4129368517,17.842674648592947,172305.0,142725.0,13890.0
62865.423046015814,17.85278381270473,172298.0,142734.0,13888.0
62865.43315517992,17.862892976809235,172272.0,142698.0,13883.0
62865.44326434402,17.87300214091374,172298.0,142698.0,13892.0
62865.453373508135,17.883111305025523,172301.0,142731.0,13886.0
62865.46348267224,17.89322046913003,172296.0,142733.0,13867.0
62865.473591836344,17.903329633234534,172316.0,142745.0,13910.0
62865.483701000456,17.913438797346316,172266.0,142710.0,13874.0
62865.49381016456,17.923547961450822,172273.0,142719.0,13884.0
62865.503919328665,17.933657125555328,172274.0,142752.0,13878.0
62865.51402849278,17.94376628966711,172275.0,142735.0,13888.0
62865.52413765688,17.953875453771616,172243.0,142692.0,13881.0
62865.534246820986,17.96398461787612,172250.0,142716.0,13868.0
62865.5443559851,17.974093781987904,172254.0,142688.0,13878.0
62865.5544651492,17.98420294609241,172296.0,142734.0,13857.0
62865.56457431331,17.994312110196915,172255.0,142696.0,13869.0
62865.57468347741,18.00442127430142,172253.0,142721.0,13884.0
62865.58479264152,18.014530438413203,172256.0,142743.0,13863.0
62865.59490180563,18.02463960251771,172270.0,142732.0,13884.0
62865.60501096973,18.034748766622215,172233.0,142701.0,13870.0
62865.61512013384,18.044857930733997,172250.0,142724.0,13851.0
62865.62522929795,18.054967094838503,172252.0,142716.0,13883.0
62865.63533846205,18.06507625894301,172258.0,142733.0,13913.0
62865.645447626164,18.07518542305479,172222.0,142699.0,13876.0
62865.65555679027,18.085294587159296,172218.0,142700.0,13847.0
62865.66566595437,18.095403751263802,172250.0,142729.0,13879.0
62865.675775118485,18.105512915375584,172284.0,142732.0,13898.0
62865.68588428259,18.11562207948009,172270.0,142712.0,13882.0
62865.695993446694,18.125731243584596,172209.0,142696.0,13858.0
62865.706102610806,18.135840407696378,172254.0,142730.0,13869.0
62865.71621177491,18.145949571800884,172270.0,142739.0,13843.0
62865.726320939015,18.15605873590539,172247.0,142730.0,13898.0
62865.73643010313,18.16616790001717,172252.0,142700.0,13860.0
62865.74653926723,18.176277064121678,172268.0,142728.0,13868.0
62865.756648431336,18.186386228226183,172272.0,142750.0,13882.0
62865.76675759545,18.196495392337965,172263.0,142710.0,13878.0
62865.77686675955,18.20660455644247,172251.0,142709.0,13876.0
62865.78697592366,18.216713720546977,172243.0,142705.0,13885.0
62865.79708508777,18.22682288465876,172253.0,142709.0,13879.0
62865.80719425187,18.236932048763265,172281.0,142728.0,13896.0
62865.81730341598,18.24704121286777,172232.0,142730.0,13862.0
62865.82741258009,18.257150376979553,172254.0,142730.0,13877.0
62865.83752174419,18.26725954108406,172251.0,142709.0,13872.0
62865.8476309083,18.277368705188564,172270.0,142710.0,13897.0
62865.85774007241,18.287477869300346,172223.0,142702.0,13858.0
62865.867849236514,18.297587033404852,172255.0,142728.0,13879.0
62865.87795840062,18.307696197509358,172281.0,142746.0,13861.0
62865.88806756472,18.317805361613864,172279.0,142731.0,13902.0
62865.898176728835,18.327914525725646,172225.0,142692.0,13871.0
62865.90828589294,18.338023689830152,172229.0,142712.0,13858.0
62865.918395057044,18.348132853934658,172218.0,142727.0,13874.0
62865.928504221156,18.35824201804644,172275.0,142729.0,13907.0
62865.93861338526,18.368351182150946,172242.0,142709.0,13878.0
62865.948722549365,18.37846034625545,172239.0,142734.0,13862.0
62865.95883171348,18.388569510367233,172268.0,142718.0,13885.0
62865.96894087758,18.39867867447174,172276.0,142756.0,13893.0
62865.979050041686,18.408787838576245,172237.0,142718.0,13868.0
62865.9891592058,18.418897002688027,172236.0,142717.0,13869.0
62865.9992683699,18.429006166792533,172269.0,142725.0,13873.0
62866.00937753401,18.43911533089704,172269.0,142740.0,13887.0
62866.01948669812,18.44922449500882,172281.0,142743.0,13864.0
62866.02959586222,18.459333659113327,172242.0,142706.0,13881.0
62866.03970502633,18.469442823217832,172254.0,142739.0,13888.0
62866.04981419044,18.479551987329614,172246.0,142741.0,13897.0
62866.05992335454,18.48966115143412,172247.0,142689.0,13876.0
62866.07003251865,18.499770315538626,172248.0,142725.0,13869.0
62866.08014168276,18.509879479650408,172281.0,142731.0,13886.0
62866.090250846864,18.519988643754914,172295.0,142738.0,13920.0
62866.10036001097,18.53009780785942,172280.0,142718.0,13891.0
62866.11046917508,18.5402069719712,172261.0,142728.0,13869.0
62866.120578339185,18.550316136075708,172295.0,142731.0,13881.0
62866.13068750329,18.560425300180214,172274.0,142735.0,13880.0
62866.1407966674,18.570534464291995,172283.0,142753.0,13909.0
62866.150905831506,18.5806436283965,172274.0,142733.0,13872.0
62866.16101499561,18.590752792501007,172275.0,142736.0,13884.0
62866.17112415972,18.60086195661279,172269.0,142768.0,13888.0
62866.18123332383,18.610971120717295,172244.0,142716.0,13884.0
62866.19134248793,18.6210802848218,172261.0,142716.0,13896.0
62866.201451652036,18.631189448926307,172281.0,142734.0,13882.0
62866.21156081615,18.64129861303809,172293.0,142705.0,13883.0
62866.22166998025,18.651407777142595,172309.0,142760.0,13890.0
62866.23177914436,18.6615169412471,172283.0,142724.0,13881.0
62866.24188830847,18.671626105358882,172290.0,142732.0,13888.0
62866.25199747257,18.68173526946339,172291.0,142733.0,13892.0
62866.26210663668,18.691844433567894,172294.0,142707.0,13890.0
62866.27221580079,18.701953597679676,172258.0,142735.0,13871.0
62866.28232496489,18.712062761784182,172300.0,142733.0,13894.0
62866.292434129,18.722171925888688,172283.0,142727.0,13862.0
62866.30254329311,18.73228109000047,172313.0,142732.0,13879.0
62866.312652457214,18.742390254104976,172265.0,142702.0,13896.0
62866.32276162132,18.75249941820948,172272.0,142726.0,13889.0
62866.33287078543,18.762608582321263,172274.0,142724.0,13909.0
62866.342979949535,18.77271774642577,172308.0,142757.0,13915.0
62866.35308911364,18.782826910530275,172296.0,142712.0,13911.0
62866.36319827775,18.792936074642057,172281.0,142731.0,13892.0
62866.373307441856,18.803045238746563,172292.0,142708.0,13884.0
62866.38341660596,18.81315440285107,172268.0,142720.0,13898.0
62866.39352577007,18.82326356696285,172301.0,142717.0,13917.0
62866.40363493418,18.833372731067357,172257.0,142710.0,13868.0
62866.41374409828,18.843481895171863,172304.0,142737.0,13893.0
62866.42385326239,18.853591059283644,172264.0,142770.0,13879.0
62866.4339624265,18.86370022338815,172319.0,142721.0,13912.0
62866.4440715906,18.873809387492656,172279.0,142684.0,13866.0
62866.454180754714,18.883918551604438,172277.0,142722.0,13888.0
62866.46428991882,18.894027715708944,172263.0,142693.0,13876.0
62866.47439908292,18.90413687981345,172243.0,142708.0,13868.0
62866.484508247035,18.914246043925232,172234.0,142728.0,13869.0
62866.49461741114,18.924355208029738,172276.0,142724.0,13880.0
62866.504726575244,18.934464372134244,172262.0,142716.0,13879.0
62866.51483573935,18.94457353623875,172279.0,142722.0,13886.0
62866.52494490346,18.95468270035053,172243.0,142709.0,13848.0
62866.535054067564,18.964791864455037,172263.0,142725.0,13863.0
62866.54516323167,18.974901028559543,172253.0,142724.0,13868.0
62866.55527239578,18.985010192671325,172282.0,142741.0,13887.0
62866.565381559885,18.99511935677583,172248.0,142715.0,13871.0
62866.57549072399,19.005228520880337,172226.0,142726.0,13865.0
62866.5855998881,19.01533768499212,172241.0,142744.0,13861.0
62866.595709052206,19.025446849096625,172225.0,142705.0,13857.0
62866.60581821631,19.03555601320113,172242.0,142708.0,13867.0
62866.61592738042,19.045665177312912,172257.0,142718.0,13875.0
62866.62603654453,19.05577434141742,172254.0,142712.0,13870.0
62866.63614570863,19.065883505521924,172260.0,142739.0,13860.0
62866.64625487274,19.075992669633706,172275.0,142728.0,13900.0
62866.65636403685,19.086101833738212,172272.0,142730.0,13881.0
62866.66647320095,19.096210997842718,172253.0,142739.0,13873.0
62866.676582365064,19.1063201619545,172271.0,142712.0,13891.0
62866.68669152917,19.116429326059006,172274.0,142715.0,13864.0
62866.69680069327,19.12653849016351,172263.0,142737.0,13872.0
62866.706909857385,19.136647654275293,172241.0,142716.0,13877.0
62866.71701902149,19.1467568183798,172279.0,142731.0,13910.0
62866.727128185594,19.156865982484305,172281.0,142739.0,13901.0
62866.737237349706,19.166975146596087,172274.0,142741.0,13854.0
62866.74734651381,19.177084310700593,172253.0,142716.0,13904.0
62866.757455677915,19.1871934748051,172261.0,142760.0,13874.0
62866.767564842026,19.19730263891688,172289.0,142759.0,13916.0
62866.77767400613,19.207411803021387,172281.0,142734.0,13882.0
62866.787783170235,19.217520967125893,172258.0,142734.0,13881.0
62866.79789233435,19.227630131237675,172288.0,142758.0,13880.0
62866.80800149845,19.23773929534218,172247.0,142715.0,13909.0
62866.818110662556,19.247848459446686,172263.0,142725.0,13876.0
62866.82821982666,19.257957623551192,172276.0,142742.0,13879.0
62866.83832899077,19.268066787662974,172296.0,142765.0,13893.0
62866.84843815488,19.27817595176748,172275.0,142706.0,13894.0
62866.85854731898,19.288285115871986,172261.0,142696.0,13890.0
62866.86865648309,19.298394279983768,172273.0,142733.0,13888.0
62866.8787656472,19.308503444088274,172280.0,142753.0,13899.0
62866.8888748113,19.31861260819278,172278.0,142759.0,13892.0
62866.898983975414,19.32872177230456,172252.0,142740.0,13883.0
