timestamp,time_from_segment_start_sec,selected_channel_name,backup_channel_name,selected_channel_raw,selected_channel_clipped,selected_channel_detrended,selected_channel_filtered,selected_channel_filtered_z
62858.87673065645,0.0,PPG_1,PPG_2,129691.0,129691.0,231.05036554999242,-0.246307594754077,-0.011457081745769206
62858.88678130601,0.0100506495655281,PPG_1,PPG_2,129711.0,129711.0,251.09221599846205,2.2519708286352067,0.09893156019962507
62858.89683195558,0.0201012991310562,PPG_1,PPG_2,129692.0,129692.0,232.13406644694624,4.632325427598179,0.2041096336553121
62858.90688260515,0.0301519487038604,PPG_1,PPG_2,129701.0,129701.0,241.17591689543042,6.772869247060767,0.2986914556983964
62858.91693325472,0.0402025982693885,PPG_1,PPG_2,129704.0,129704.0,244.21776734390005,8.572081587340207,0.3781912444150578
62858.92698390429,0.0502532478421926,PPG_1,PPG_2,129706.0,129706.0,246.25961779238423,9.955857274884313,0.439334597163474
62858.937034553855,0.0603038974077208,PPG_1,PPG_2,129691.0,129691.0,231.30146824086842,10.881644412282443,0.4802413207180285
62858.94708520342,0.0703545469732489,PPG_1,PPG_2,129704.0,129704.0,244.3433186893526,11.339942135673034,0.5004916110051773
62858.957135852994,0.080405196546053,PPG_1,PPG_2,129722.0,129722.0,262.38516913782223,11.35386947212482,0.5011070026854783
62858.96718650256,0.0904558461115812,PPG_1,PPG_2,129701.0,129701.0,241.42701958630641,10.976937732054358,0.4844519403421691
62858.97723715213,0.1005064956843853,PPG_1,PPG_2,129678.0,129678.0,218.4688700347906,10.287847779626667,0.4540038912718368
62858.9872878017,0.1105571452499134,PPG_1,PPG_2,129695.0,129695.0,235.51072048326023,9.382238818307332,0.41398875827557224
62858.99733845126,0.1206077948154416,PPG_1,PPG_2,129709.0,129709.0,249.5525709317444,8.364232973419504,0.3690072695601608
62859.00738910083,0.1306584443882457,PPG_1,PPG_2,129689.0,129689.0,229.5944213802286,7.340606641324437,0.32377743464599495
62859.0174397504,0.1407090939537738,PPG_1,PPG_2,129705.0,129705.0,245.63627182869823,6.417322502352102,0.28298130829086715
62859.027490399974,0.1507597435265779,PPG_1,PPG_2,129703.0,129703.0,243.6781222771824,5.696430615802798,0.2511280626315338
62859.03754104954,0.1608103930921061,PPG_1,PPG_2,129698.0,129698.0,238.7199727256666,5.271815462647658,0.23236606650355948
62859.047591699105,0.1708610426576342,PPG_1,PPG_2,129671.0,129671.0,211.76182317413623,5.223056733467828,0.23021161892607825
62859.05764234868,0.1809116922304383,PPG_1,PPG_2,129694.0,129694.0,234.8036736226204,5.608216649098047,0.24723025048458225
62859.06769299824,0.1909623417959665,PPG_1,PPG_2,129703.0,129703.0,243.8455240711046,6.458244922094956,0.28478950160440686
62859.07774364781,0.2010129913614946,PPG_1,PPG_2,129699.0,129699.0,239.88737451957422,7.774991166717838,0.342971099127642
62859.08779429738,0.2110636409342987,PPG_1,PPG_2,129698.0,129698.0,238.9292249680584,9.53186251504265,0.42060001366281363
62859.09784494695,0.2211142904998269,PPG_1,PPG_2,129691.0,129691.0,231.9710754165426,11.674976722665207,0.5152954105803373
62859.10789559652,0.231164940072631,PPG_1,PPG_2,129706.0,129706.0,247.01292586502677,14.124285219119734,0.6235202729886378
62859.117946246086,0.2412155896381591,PPG_1,PPG_2,129709.0,129709.0,250.0547763134964,16.77559234859635,0.7406706236713329
62859.12799689565,0.2512662392036873,PPG_1,PPG_2,129667.0,129667.0,208.0966267619806,19.50417794878862,0.8612355919379019
62859.138047545224,0.2613168887764914,PPG_1,PPG_2,129738.0,129738.0,279.13847721046477,22.170664059865526,0.9790566393489052
62859.14809819479,0.2713675383420195,PPG_1,PPG_2,129714.0,129714.0,255.1803276589344,24.630056608550746,1.0877270745246885
62859.15814884436,0.2814181879148236,PPG_1,PPG_2,129695.0,129695.0,236.22217810741859,26.743246234289963,1.181100227322438
62859.16819949393,0.2914688374803518,PPG_1,PPG_2,129740.0,129740.0,281.26402855590277,28.388324937045855,1.253789484928942
62859.178250143494,0.3015194870458799,PPG_1,PPG_2,129701.0,129701.0,242.3058790043724,29.469925011070465,1.3015809409099113
62859.18830079307,0.311570136618684,PPG_1,PPG_2,129730.0,129730.0,271.3477294528566,29.92613797422386,1.3217391142219417
62859.19835144263,0.3216207861842122,PPG_1,PPG_2,129680.0,129680.0,221.38957990134077,29.73271724264103,1.3131926481100715
62859.208402092205,0.3316714357570163,PPG_1,PPG_2,129732.0,129732.0,273.4314303498104,28.905265244635114,1.276630949670168
62859.21845274177,0.3417220853225444,PPG_1,PPG_2,129742.0,129742.0,283.4732807982946,27.50092885543393,1.2145791041324294
62859.228503391336,0.3517727348880726,PPG_1,PPG_2,129713.0,129713.0,254.51513124677876,25.61871556322661,1.1314118449378123
62859.23855404091,0.3618233844608767,PPG_1,PPG_2,129665.0,129665.0,206.55698169526295,23.394702636105162,1.0331418665417003
62859.248604690474,0.3718740340264048,PPG_1,PPG_2,129707.0,129707.0,248.59883214373258,20.991147117484036,0.9269386399289551
62859.25865534005,0.3819246835992089,PPG_1,PPG_2,129715.0,129715.0,256.64068259221676,18.584194010744778,0.8205852878799338
62859.26870598961,0.3919753331647371,PPG_1,PPG_2,129728.0,129728.0,269.68253304070095,16.35444135508755,0.722061694501493
62859.27875663918,0.4020259827302652,PPG_1,PPG_2,129681.0,129681.0,222.72438348917058,14.478344329265108,0.6391646879471271
62859.28880728875,0.4120766323030693,PPG_1,PPG_2,129676.0,129676.0,217.76623393765476,13.116031072170415,0.578969671672331
62859.29885793832,0.4221272818685975,PPG_1,PPG_2,129695.0,129695.0,236.80808438613894,12.395808953643247,0.5471460203054872
62859.30890858788,0.4321779314341256,PPG_1,PPG_2,129694.0,129694.0,235.84993483460858,12.400196338637642,0.5473398807922483
62859.318959237455,0.4422285810069297,PPG_1,PPG_2,129697.0,129697.0,238.89178528309276,13.156983856156781,0.5807792066568285
62859.32900988702,0.4522792305724579,PPG_1,PPG_2,129670.0,129670.0,211.93363573157694,14.635065778458817,0.6460895638049338
62859.33906053659,0.462329880145262,PPG_1,PPG_2,129714.0,129714.0,255.97548618004657,16.744052926239124,0.7392770263968412
62859.34911118616,0.4723805297107901,PPG_1,PPG_2,129710.0,129710.0,252.01733662853076,19.337819052077073,0.8538848769368861
62859.35916183573,0.4824311792763183,PPG_1,PPG_2,129671.0,129671.0,213.05918707701494,22.221431213564085,0.9812998309402629
62859.3692124853,0.4924818288491224,PPG_1,PPG_2,129680.0,129680.0,222.10103752549912,25.160314357000875,1.1111569821700589
62859.37926313486,0.5025324784146505,PPG_1,PPG_2,129731.0,129731.0,273.14288797396875,27.892951948474913,1.23190099125553
62859.389313784435,0.5125831279874546,PPG_1,PPG_2,129696.0,129696.0,238.18473842245294,30.14958758761864,1.3316124330381887
62859.399364434,0.5226337775529828,PPG_1,PPG_2,129707.0,129707.0,249.22658887093712,31.675847364547035,1.3990515713078278
62859.409415083566,0.5326844271185109,PPG_1,PPG_2,129722.0,129722.0,264.26843931940675,32.25730031983033,1.424743584450935
62859.41946573314,0.542735076691315,PPG_1,PPG_2,129739.0,129739.0,281.31028976789094,31.74168163135475,1.4019605166192617
62859.429516382705,0.5527857262568432,PPG_1,PPG_2,129707.0,129707.0,249.35214021637512,30.055611344324014,1.3274600096031937
62859.43956703228,0.5628363758296473,PPG_1,PPG_2,129696.0,129696.0,238.39399066484475,27.21194503572299,1.2018100984429811
62859.44961768184,0.5728870253951754,PPG_1,PPG_2,129718.0,129718.0,260.43584111332893,23.306234674086866,1.0292328313871528
62859.45966833141,0.5829376749607036,PPG_1,PPG_2,129676.0,129676.0,218.47769156181312,18.504407015746203,0.8170598289317482
62859.46971898098,0.5929883245335077,PPG_1,PPG_2,129680.0,129680.0,222.51954201028275,13.024803614621847,0.5749387057669155
62859.47976963055,0.6030389740990358,PPG_1,PPG_2,129674.0,129674.0,216.56139245876693,7.11751612107077,0.31391998267781757
62859.48982028012,0.61308962367184,PPG_1,PPG_2,129692.0,129692.0,234.60324290725111,1.044040272758303,0.045558080134621454
62859.499870929685,0.6231402732373681,PPG_1,PPG_2,129667.0,129667.0,209.64509335572075,-4.941258076016466,-0.2189076215956558
62859.50992157925,0.6331909228028962,PPG_1,PPG_2,129644.0,129644.0,186.68694380420493,-10.608804506938952,-0.46933317377379785
62859.51997222882,0.6432415723757003,PPG_1,PPG_2,129640.0,129640.0,182.7287942526891,-15.771062622652902,-0.6974321148006194
62859.53002287839,0.6532922219412285,PPG_1,PPG_2,129635.0,129635.0,177.7706447011733,-20.296596589893547,-0.8973968361240778
62859.54007352796,0.6633428715140326,PPG_1,PPG_2,129639.0,129639.0,181.81249514964293,-24.116590486440874,-1.0661866453509765
62859.55012417753,0.6733935210795607,PPG_1,PPG_2,129648.0,129648.0,190.8543455981271,-27.221475399735702,-1.203378731615876
62859.56017482709,0.6834441706450889,PPG_1,PPG_2,129643.0,129643.0,185.8961960466113,-29.648803174359617,-1.3106323563874325
62859.570225476666,0.693494820217893,PPG_1,PPG_2,129645.0,129645.0,187.93804649508093,-31.46598363089754,-1.3909260822143539
62859.58027612623,0.7035454697834211,PPG_1,PPG_2,129650.0,129650.0,192.9798969435651,-32.75209086200561,-1.4477538678242403
62859.5903267758,0.7135961193489493,PPG_1,PPG_2,129647.0,129647.0,190.0217473920493,-33.58229040233735,-1.4844369688521
62859.60037742537,0.7236467689217534,PPG_1,PPG_2,129640.0,129640.0,183.06359784051892,-34.01761861439493,-1.5036723309637252
62859.610428074935,0.7336974184872815,PPG_1,PPG_2,129630.0,129630.0,173.1054482890031,-34.101722652898445,-1.5073885422977409
62859.62047872451,0.7437480680600856,PPG_1,PPG_2,129655.0,129655.0,198.1472987374873,-33.864409252055125,-1.4969026397701126
62859.63052937407,0.7537987176256138,PPG_1,PPG_2,129590.0,129590.0,133.18914918595692,-33.33039240322731,-1.4733066329495084
62859.64058002364,0.7638493671911419,PPG_1,PPG_2,129632.0,129632.0,175.2309996344411,-32.53051903003924,-1.4379635204413659
62859.65063067321,0.773900016763946,PPG_1,PPG_2,129620.0,129620.0,163.2728500829253,-31.5112448098067,-1.3929259874394295
62859.66068132278,0.7839506663294742,PPG_1,PPG_2,129647.0,129647.0,190.31470053140947,-30.338268361146216,-1.3410969855198198
62859.67073197235,0.7940013159022783,PPG_1,PPG_2,129636.0,129636.0,179.3565509798791,-29.093704921864727,-1.2861048490986164
62859.68078262192,0.8040519654678064,PPG_1,PPG_2,129635.0,129635.0,178.3984014283633,-27.869745651667984,-1.2320231261134753
62859.69083327148,0.8141026150333346,PPG_1,PPG_2,129606.0,129606.0,149.44025187684747,-26.761721092694852,-1.1830640808917452
62859.700883921054,0.8241532646061387,PPG_1,PPG_2,129660.0,129660.0,203.4821023253171,-25.860669713358476,-1.143250328686726
62859.71093457062,0.8342039141716668,PPG_1,PPG_2,129654.0,129654.0,197.52395277380128,-25.244073531321916,-1.1160054809842068
62859.72098522019,0.8442545637444709,PPG_1,PPG_2,129639.0,129639.0,182.56580322228547,-24.965970659409592,-1.1037172595977902
62859.73103586976,0.8543052133099991,PPG_1,PPG_2,129642.0,129642.0,185.6076536707551,-25.050608057894575,-1.1074570379143611
62859.74108651932,0.8643558628755272,PPG_1,PPG_2,129611.0,129611.0,154.64950411923928,-25.492268148185296,-1.1269721796664685
62859.751137168896,0.8744065124483313,PPG_1,PPG_2,129605.0,129605.0,148.69135456772347,-26.259294107711547,-1.1608639001473655
62859.76118781846,0.8844571620138595,PPG_1,PPG_2,129677.0,129677.0,220.7332050161931,-27.297446818497914,-1.2067355959530572
62859.771238468034,0.8945078115866636,PPG_1,PPG_2,129628.0,129628.0,171.77505546467728,-28.529678464931404,-1.261182841199403
62859.7812891176,0.9045584611521916,PPG_1,PPG_2,129619.0,129619.0,162.81690591316146,-29.85472794682652,-1.3197313246059934
62859.791339767165,0.91460911071772,PPG_1,PPG_2,129650.0,129650.0,193.85875636164565,-31.149013840280737,-1.3769204916459352
62859.80139041674,0.924659760290524,PPG_1,PPG_2,129621.0,129621.0,164.90060681011528,-32.2731953622528,-1.4265934465691286
62859.811441066304,0.934710409856052,PPG_1,PPG_2,129624.0,129624.0,167.94245725859946,-33.082419558228985,-1.4623497334532687
62859.82149171587,0.9447610594215804,PPG_1,PPG_2,129613.0,129613.0,156.98430770708364,-33.4393063587922,-1.478119092414054
62859.83154236544,0.9548117089943844,PPG_1,PPG_2,129623.0,129623.0,167.02615815555328,-33.22792281883111,-1.4687789237253062
62859.84159301501,0.9648623585599124,PPG_1,PPG_2,129618.0,129618.0,162.06800860403746,-32.366082941018284,-1.4306977663989444
62859.85164366458,0.9749130081327166,PPG_1,PPG_2,129632.0,129632.0,176.10985905252164,-30.814206032364805,-1.3621267125048522
62859.861694314146,0.9849636576982448,PPG_1,PPG_2,129618.0,129618.0,162.15170950099127,-28.58057128378327,-1.2634315854167144
62859.87174496371,0.9950143072637728,PPG_1,PPG_2,129616.0,129616.0,160.19355994947546,-25.723416248314606,-1.1371856629286408
62859.88179561328,1.005064956836577,PPG_1,PPG_2,129618.0,129618.0,162.23541039795964,-22.349434992609957,-0.988103316749959
62859.89184626285,1.0151156064021052,PPG_1,PPG_2,129633.0,129633.0,177.27726084642927,-18.60694011337238,-0.822737870153275
62859.90189691242,1.0251662559749093,PPG_1,PPG_2,129661.0,129661.0,205.31911129491345,-14.672486267946114,-0.6488905468416395
62859.91194756199,1.0352169055404374,PPG_1,PPG_2,129634.0,129634.0,178.36096174339764,-10.732642176880908,-0.47480505075860113
62859.921998211554,1.0452675551059656,PPG_1,PPG_2,129648.0,129648.0,192.40281219186727,-6.964973740256212,-0.30832728826194294
62859.93204886113,1.0553182046787697,PPG_1,PPG_2,129649.0,129649.0,193.44466264035145,-3.52136682674469,-0.15616847080692187
62859.94209951069,1.0653688542442978,PPG_1,PPG_2,129683.0,129683.0,227.48651308883564,-0.5145134861015052,-0.023307996291727
62859.952150160265,1.075419503817102,PPG_1,PPG_2,129647.0,129647.0,191.52836353731982,1.9915255469047093,0.08742355505410117
62859.96220080983,1.08547015338263,PPG_1,PPG_2,129672.0,129672.0,216.57021398578945,3.984311209920772,0.17547655225773498
62859.97225145939,1.0955208029481582,PPG_1,PPG_2,129647.0,129647.0,191.61206443427363,5.497972291304936,0.24235900602079918
62859.98230210897,1.1055714525209623,PPG_1,PPG_2,129632.0,129632.0,176.65391488275782,6.60139092108595,0.29111453418708244
62859.992352758534,1.1156221020864905,PPG_1,PPG_2,129670.0,129670.0,214.69576533122745,7.383413176620193,0.3256688792718007
62860.00240340811,1.1256727516592946,PPG_1,PPG_2,129651.0,129651.0,195.73761577971163,7.93928251565208,0.3502304577013049
62860.01245405767,1.1357234012248227,PPG_1,PPG_2,129659.0,129659.0,203.77946622819582,8.360246611458598,0.3688311286308522
62860.02250470724,1.1457740507903509,PPG_1,PPG_2,129655.0,129655.0,199.82131667666545,8.725642926313219,0.38497648800754336
62860.03255535681,1.155824700363155,PPG_1,PPG_2,129632.0,129632.0,176.86316712514963,9.096686132456837,0.40137136027069653
62860.04260600638,1.1658753499286831,PPG_1,PPG_2,129659.0,129659.0,203.9050175736338,9.513001548765198,0.41976662518471064
62860.05265665594,1.1759259994942113,PPG_1,PPG_2,129655.0,129655.0,199.94686802210344,9.9939761079435,0.44101891151953293
62860.062707305515,1.1859766490670154,PPG_1,PPG_2,129664.0,129664.0,208.98871847058763,10.54569229659543,0.46539697932590307
62860.07275795508,1.1960272986325435,PPG_1,PPG_2,129689.0,129689.0,234.0305689190718,11.171361196392404,0.4930427130877781
62860.08280860465,1.2060779482053476,PPG_1,PPG_2,129655.0,129655.0,200.072419367556,11.880989242196195,0.5243982559805401
62860.09285925422,1.2161285977708758,PPG_1,PPG_2,129657.0,129657.0,202.11426981602563,12.696119450863021,0.5604155052594751
62860.102909903784,1.226179247336404,PPG_1,PPG_2,129662.0,129662.0,207.1561202645098,13.648277366121901,0.6024874449596115
62860.11296055336,1.236229896909208,PPG_1,PPG_2,129645.0,129645.0,190.197970712994,14.773223747537156,0.6521941958738452
62860.12301120292,1.2462805464747362,PPG_1,PPG_2,129652.0,129652.0,197.23982116146362,16.1044350867409,0.711014946395979
62860.133061852495,1.2563311960475405,PPG_1,PPG_2,129674.0,129674.0,219.2816716099478,17.66856992565995,0.7801276277813904
62860.14311250206,1.2663818456130684,PPG_1,PPG_2,129696.0,129696.0,241.323522058432,19.48383926816969,0.8603369093445347
62860.153163151626,1.2764324951785966,PPG_1,PPG_2,129647.0,129647.0,192.36537250690162,21.559075973424935,0.9520330787801161
62860.1632138012,1.286483144751401,PPG_1,PPG_2,129657.0,129657.0,202.4072229553858,23.889985371749614,1.0550263723097235
62860.173264450765,1.2965337943169288,PPG_1,PPG_2,129667.0,129667.0,212.44907340387,26.45249328835793,1.1682530512260616
62860.18331510034,1.306584443889733,PPG_1,PPG_2,129682.0,129682.0,227.49092385233962,29.197000862756934,1.2895215460064555
62860.1933657499,1.316635093455261,PPG_1,PPG_2,129662.0,129662.0,207.5327743008238,32.04638855317022,1.4154242614827899
62860.20341639947,1.3266857430207892,PPG_1,PPG_2,129676.0,129676.0,221.574624749308,34.89747055701538,1.5414018416967867
62860.21346704904,1.3367363925935931,PPG_1,PPG_2,129677.0,129677.0,222.61647519779217,37.62510134890948,1.6619246209141423
62860.22351769861,1.3467870421591217,PPG_1,PPG_2,129677.0,129677.0,222.6583256462618,40.08921857660997,1.7708038202113465
62860.23356834818,1.3568376917319256,PPG_1,PPG_2,129706.0,129706.0,251.70017609474598,42.14484430617434,1.8616334613394854
62860.243618997745,1.3668883412974535,PPG_1,PPG_2,129684.0,129684.0,229.74202654323017,43.653529042364084,1.928296030888396
62860.25366964731,1.376938990862982,PPG_1,PPG_2,129691.0,129691.0,236.7838769916998,44.49354241106208,1.9654127646032669
62860.26372029688,1.386989640435786,PPG_1,PPG_2,129685.0,129685.0,230.82572744018398,44.56667735844411,1.9686442969435645
62860.27377094645,1.397040290001314,PPG_1,PPG_2,129677.0,129677.0,222.86757788866817,43.80156372508602,1.934837074285922
62860.283821596015,1.4070909395668425,PPG_1,PPG_2,129699.0,129699.0,244.9094283371378,42.154836080311256,1.8620749567177717
62860.29387224559,1.4171415891396464,PPG_1,PPG_2,129634.0,129634.0,179.95127878562198,39.61152777691825,1.7496966296940302
62860.30392289515,1.4271922387051743,PPG_1,PPG_2,129672.0,129672.0,217.99312923410616,36.18632867607133,1.598351177723899
62860.313973544726,1.4372428882779786,PPG_1,PPG_2,129695.0,129695.0,241.0349796825758,31.928344733880593,1.4102083909139078
62860.32402419429,1.4472935378435068,PPG_1,PPG_2,129688.0,129688.0,234.07683013105998,26.93033696076327,1.18936699655945
62860.33407484386,1.457344187409035,PPG_1,PPG_2,129695.0,129695.0,241.11868057954416,21.33799854426073,0.9422645770223708
62860.34412549343,1.467394836981839,PPG_1,PPG_2,129663.0,129663.0,209.1605310280138,15.351355644871456,0.6777394651338932
62860.354176142995,1.4774454865473672,PPG_1,PPG_2,129654.0,129654.0,200.20238147649798,9.21292907014549,0.40650765729310173
62860.36422679257,1.4874961361201713,PPG_1,PPG_2,129617.0,129617.0,163.24423192498216,3.1831318155755484,0.14007573204954565
62860.37427744213,1.4975467856856994,PPG_1,PPG_2,129592.0,129592.0,138.28608237346634,-2.4911739122756766,-0.11064848564220915
62860.3843280917,1.5075974352512276,PPG_1,PPG_2,129634.0,129634.0,180.32793282193597,-7.6057076079944395,-0.3366386809577528
62860.39437874127,1.5176480848240317,PPG_1,PPG_2,129636.0,129636.0,182.36978327042016,-12.017124291893852,-0.5315610291763567
62860.40442939084,1.5276987343895598,PPG_1,PPG_2,129606.0,129606.0,152.41163371890434,-15.648417798895167,-0.6920129447795769
62860.41448004041,1.537749383962364,PPG_1,PPG_2,129653.0,129653.0,199.45348416737397,-18.485168124796555,-0.8173572671267961
62860.424530689976,1.547800033527892,PPG_1,PPG_2,129611.0,129611.0,157.49533461585816,-20.567746272310227,-0.9093778246823089
62860.43458133954,1.5578506830934202,PPG_1,PPG_2,129593.0,129593.0,139.53718506434234,-21.98279674250134,-0.9719030813655382
62860.444631989114,1.5679013326662243,PPG_1,PPG_2,129589.0,129589.0,135.57903551281197,-22.85439161272985,-1.0104152716603927
62860.45468263868,1.5779519822317525,PPG_1,PPG_2,129646.0,129646.0,192.62088596129615,-23.331799436216624,-1.031509958623792
62860.46473328825,1.5880026318045566,PPG_1,PPG_2,129610.0,129610.0,156.66273640978034,-23.571114056212632,-1.0420842867898248
62860.47478393782,1.5980532813700847,PPG_1,PPG_2,129630.0,129630.0,176.70458685824997,-23.713145205733316,-1.0483600587625344
62860.48483458738,1.6081039309356129,PPG_1,PPG_2,129636.0,129636.0,182.74643730673415,-23.863507533275172,-1.0550039512053055
62860.49488523696,1.618154580508417,PPG_1,PPG_2,129624.0,129624.0,170.78828775521833,-24.079750602920193,-1.0645588425115486
62860.50493588652,1.6282052300739451,PPG_1,PPG_2,129614.0,129614.0,160.83013820370252,-24.368124006360517,-1.0773008764181469
62860.51498653609,1.6382558796394733,PPG_1,PPG_2,129588.0,129588.0,134.87198865217215,-24.690237543753923,-1.0915337479876999
62860.52503718566,1.6483065292122774,PPG_1,PPG_2,129635.0,129635.0,181.91383910065633,-24.976626632847438,-1.104188103209694
62860.535087835226,1.6583571787778055,PPG_1,PPG_2,129607.0,129607.0,153.95568954914052,-25.14274440346862,-1.1115281638411232
62860.5451384848,1.6684078283506096,PPG_1,PPG_2,129600.0,129600.0,146.99753999761015,-25.104980778505027,-1.1098595446689612
62860.55518913437,1.6784584779161378,PPG_1,PPG_2,129614.0,129614.0,161.03939044609433,-24.796323419541363,-1.0962212462457506
62860.56523978393,1.688509127481666,PPG_1,PPG_2,129587.0,129587.0,134.0812408945785,-24.180380131230997,-1.0690052472300289
62860.5752904335,1.69855977705447,PPG_1,PPG_2,129597.0,129597.0,144.12309134304815,-23.260934243830643,-1.0283787174156664
62860.58534108307,1.7086104266199982,PPG_1,PPG_2,129619.0,129619.0,166.16494179153233,-22.0840953640596,-0.9763790505609918
62860.59539173264,1.7186610761928025,PPG_1,PPG_2,129618.0,129618.0,165.2067922400165,-20.731628187670324,-0.9166190920713408
62860.605442382206,1.7287117257583304,PPG_1,PPG_2,129614.0,129614.0,161.24864268848614,-19.307027025104276,-0.8536718295976291
62860.61549303177,1.7387623753238586,PPG_1,PPG_2,129651.0,129651.0,198.29049313697033,-17.91828647234073,-0.7923090998879083
62860.625543681344,1.748813024896663,PPG_1,PPG_2,129622.0,129622.0,169.3323435854545,-16.66170607553503,-0.7367859835691106
62860.63559433091,1.7588636744621908,PPG_1,PPG_2,129633.0,129633.0,180.37419403392414,-15.610641917921413,-0.6903437840647649
62860.64564498048,1.768914324034995,PPG_1,PPG_2,129598.0,129598.0,145.41604448240832,-14.811590496280008,-0.6550369902127544
62860.65569563005,1.778964973600523,PPG_1,PPG_2,129616.0,129616.0,163.4578949308925,-14.286480398747555,-0.6318345360764451
62860.665746279614,1.7890156231660512,PPG_1,PPG_2,129617.0,129617.0,164.4997453793767,-14.036931052026066,-0.6208079774571006
62860.67579692919,1.799066272738855,PPG_1,PPG_2,129604.0,129604.0,151.54159582784632,-14.046312210261636,-0.6212224922316767
62860.68584757875,1.8091169223043837,PPG_1,PPG_2,129661.0,129661.0,208.5834462763305,-14.278091955470432,-0.6314638852903964
62860.695898228325,1.8191675718771876,PPG_1,PPG_2,129641.0,129641.0,188.6252967248147,-14.672364463388142,-0.6488851647995054
62860.70594887789,1.8292182214427155,PPG_1,PPG_2,129618.0,129618.0,165.66714717328432,-15.145474639332924,-0.6697899564048537
62860.715999527456,1.839268871008244,PPG_1,PPG_2,129595.0,129595.0,142.7089976217685,-15.597338057641629,-0.6897559412306087
62860.72605017703,1.849319520581048,PPG_1,PPG_2,129646.0,129646.0,193.7508480702527,-15.925886549910572,-0.7042731469732627
62860.736100826594,1.859370170146576,PPG_1,PPG_2,129583.0,129583.0,130.79269851872232,-16.043594899965438,-0.7094741945372736
62860.74615147616,1.8694208197121045,PPG_1,PPG_2,129594.0,129594.0,141.8345489672065,-15.891448175518684,-0.702751456938903
62860.75620212573,1.8794714692849084,PPG_1,PPG_2,129625.0,129625.0,172.87639941569068,-15.446971204811014,-0.683111848833951
62860.7662527753,1.8895221188504363,PPG_1,PPG_2,129640.0,129640.0,187.91824986416032,-14.723505170142053,-0.6511448621630335
62860.77630342487,1.8995727684232409,PPG_1,PPG_2,129630.0,129630.0,177.9601003126445,-13.761625324149392,-0.6086433503540634
62860.78635407444,1.9096234179887688,PPG_1,PPG_2,129593.0,129593.0,141.00195076112868,-12.618009329288432,-0.5581116660558553
62860.796404724,1.919674067554297,PPG_1,PPG_2,129622.0,129622.0,170.04380120961287,-11.35565990504551,-0.5023336401568528
62860.806455373575,1.929724717127101,PPG_1,PPG_2,129658.0,129658.0,206.0856516580825,-10.034462405078079,-0.44395535997893965
62860.81650602314,1.9397753666926292,PPG_1,PPG_2,129624.0,129624.0,172.12750210656668,-8.70068450684071,-0.38502120377570076
62860.82655667271,1.9498260162654333,PPG_1,PPG_2,129648.0,129648.0,196.16935255505086,-7.378243946418902,-0.32658799787208387
62860.83660732228,1.9598766658309617,PPG_1,PPG_2,129633.0,129633.0,181.2112030035205,-6.066177300903438,-0.26861317257466644
62860.84665797184,1.9699273153964896,PPG_1,PPG_2,129619.0,129619.0,167.25305345200468,-4.74391004310893,-0.21018762420092854
62860.85670862142,1.9799779649692937,PPG_1,PPG_2,129607.0,129607.0,155.29490390048886,-3.3824148363577824,-0.1500287542041539
62860.86675927098,1.9900286145348216,PPG_1,PPG_2,129622.0,129622.0,170.3367543489585,-1.9567117776736658,-0.08703280347580263
62860.876809920555,2.000079264107626,PPG_1,PPG_2,129636.0,129636.0,184.37860479744268,-0.45426367269077245,-0.020645804993268253
62860.88686057012,2.010129913673154,PPG_1,PPG_2,129625.0,129625.0,173.42045524592686,1.1237921495644623,0.04908198735441195
62860.89691121969,2.0201805632386822,PPG_1,PPG_2,129654.0,129654.0,202.4623056943965,2.767721561262677,0.12172046251894725
62860.90696186926,2.0302312128114863,PPG_1,PPG_2,129651.0,129651.0,199.50415614288067,4.467424838314989,0.19682335525793826
62860.917012518825,2.0402818623770145,PPG_1,PPG_2,129646.0,129646.0,194.54600659136486,6.220054701103843,0.2742648560029725
62860.9270631684,2.0503325119498186,PPG_1,PPG_2,129663.0,129663.0,211.58785703984904,8.033532951906462,0.35439499659475915
62860.93711381796,2.0603831615153467,PPG_1,PPG_2,129632.0,129632.0,180.62970748831867,9.923919957373476,0.43792341853966904
62860.94716446753,2.070433811080875,PPG_1,PPG_2,129639.0,129639.0,187.67155793680286,11.906905236640071,0.5255433771185767
62860.9572151171,2.080484460653679,PPG_1,PPG_2,129636.0,129636.0,184.71340838528704,13.986155065661393,0.6174168699774998
62860.96726576667,2.090535110219207,PPG_1,PPG_2,129632.0,129632.0,180.75525883375667,16.142896977193217,0.7127144190463987
62860.97731641623,2.1005857597847353,PPG_1,PPG_2,129644.0,129644.0,192.79710928224085,18.330851730842813,0.8093911351530381
62860.987367065805,2.1106364093575394,PPG_1,PPG_2,129646.0,129646.0,194.83895973072504,20.47887768333369,0.9043035618621655
62860.99741771537,2.1206870589230675,PPG_1,PPG_2,129656.0,129656.0,204.88081017919467,22.50160312561257,0.9936794746952284
62861.00746836494,2.1307377084958716,PPG_1,PPG_2,129680.0,129680.0,228.92266062767885,24.31621438413105,1.0738596782351224
62861.01751901451,2.1407883580614,PPG_1,PPG_2,129687.0,129687.0,235.96451107616303,25.861383195207853,1.1421343289042603
62861.027569664075,2.150839007626928,PPG_1,PPG_2,129680.0,129680.0,229.00636152463267,27.1124129468374,1.1974121850562247
62861.03762031365,2.160889657199732,PPG_1,PPG_2,129654.0,129654.0,203.04821197311685,28.086792889978902,1.2404660247144559
62861.04767096321,2.17094030676526,PPG_1,PPG_2,129651.0,129651.0,200.09006242160103,28.83810952574852,1.273663614829762
62861.057721612786,2.1809909563380643,PPG_1,PPG_2,129648.0,129648.0,197.13191287007066,29.441816601537667,1.3003389459719086
62861.06777226235,2.1910416059035924,PPG_1,PPG_2,129675.0,129675.0,224.17376331855485,29.979263363022856,1.3240865065171472
62861.07782291192,2.201092255469121,PPG_1,PPG_2,129672.0,129672.0,221.21561376703903,30.5244221345187,1.3481748290462285
62861.08787356149,2.2111429050419247,PPG_1,PPG_2,129630.0,129630.0,179.2574642155232,31.133668677345206,1.3750949264392582
62861.097924211055,2.221193554607453,PPG_1,PPG_2,129668.0,129668.0,217.29931466399285,31.837771103644158,1.4062063149466102
62861.10797486063,2.231244204180257,PPG_1,PPG_2,129666.0,129666.0,215.34116511247703,32.63746286081421,1.4415414025903515
62861.11802551019,2.241294853745785,PPG_1,PPG_2,129670.0,129670.0,219.3830155609612,33.50453983926613,1.4798539658408363
62861.12807615976,2.2513455033113132,PPG_1,PPG_2,129664.0,129664.0,213.42486600943084,34.38767707900442,1.5188761659420789
62861.13812680933,2.2613961528841173,PPG_1,PPG_2,129682.0,129682.0,231.46671645791503,35.22032891875259,1.5556676239887919
62861.1481774589,2.2714468024496455,PPG_1,PPG_2,129665.0,129665.0,214.5085669063992,35.928695549552806,1.5869674301438585
62861.15822810847,2.2814974520224496,PPG_1,PPG_2,129679.0,129679.0,228.55041735486884,36.438520416235654,1.6094944928347978
62861.16827875803,2.2915481015879777,PPG_1,PPG_2,129660.0,129660.0,209.59226780335302,36.67992606024212,1.6201612147463107
62861.1783294076,2.301598751153506,PPG_1,PPG_2,129689.0,129689.0,238.6341182518372,36.590222931603314,1.6161976026620914
62861.188380057174,2.31164940072631,PPG_1,PPG_2,129658.0,129658.0,207.67596870030684,36.11496051191963,1.5951977122634105
62861.19843070674,2.321700050291838,PPG_1,PPG_2,129677.0,129677.0,226.71781914879102,35.20719441418524,1.5550872642865898
62861.208481356305,2.3317506998573663,PPG_1,PPG_2,129643.0,129643.0,192.7596695972752,33.82518023319647,1.4940217452634306
62861.21853200588,2.3418013494301704,PPG_1,PPG_2,129650.0,129650.0,199.8015200457594,31.93007535696032,1.4102848600254774
62861.22858265544,2.3518519989956985,PPG_1,PPG_2,129662.0,129662.0,211.84337049422902,29.48661163013685,1.3023182539332128
62861.238633305016,2.361902648568502,PPG_1,PPG_2,129659.0,129659.0,208.8852209427132,26.469197712177824,1.1689911509681459
62861.24868395458,2.3719532981340308,PPG_1,PPG_2,129672.0,129672.0,221.9270713911974,22.87302605703722,1.0100911254558034
62861.25873460415,2.382003947699559,PPG_1,PPG_2,129665.0,129665.0,214.96892183966702,18.726601629599976,0.8268776944831882
62861.26878525372,2.392054597272363,PPG_1,PPG_2,129638.0,129638.0,188.0107722881512,14.101112394164772,0.6224963612208908
62861.278835903286,2.402105246837891,PPG_1,PPG_2,129676.0,129676.0,226.05262273663539,9.113526032605657,0.40211544615420763
62861.28888655286,2.4121558964106953,PPG_1,PPG_2,129643.0,129643.0,193.09447318510502,3.9222711256953486,0.1727352562597768
62861.298937202424,2.422206545976223,PPG_1,PPG_2,129625.0,129625.0,175.1363236335892,-1.2850273839991406,-0.0573538344147578
62861.30898785199,2.4322571955417516,PPG_1,PPG_2,129602.0,129602.0,152.17817408207338,-6.311329662826082,-0.2794454465313989
62861.31903850156,2.4423078451145557,PPG_1,PPG_2,129607.0,129607.0,157.22002453054301,-10.973637356912782,-0.48545363595632834
62861.32908915113,2.452358494680084,PPG_1,PPG_2,129630.0,129630.0,180.2618749790272,-15.123647426757866,-0.6688255017103504
62861.3391398007,2.462409144252888,PPG_1,PPG_2,129599.0,129599.0,149.30372542751138,-18.661222671904085,-0.8251363930166743
62861.349190450266,2.472459793818416,PPG_1,PPG_2,129601.0,129601.0,151.34557587599556,-21.540637682234163,-0.9523658921836662
62861.35924109983,2.482510443383944,PPG_1,PPG_2,129615.0,129615.0,165.3874263244652,-23.77108218972946,-1.0509200556475373
62861.369291749405,2.4925610929567483,PPG_1,PPG_2,129607.0,129607.0,157.42927677294938,-25.411989750008,-1.1234250076341692
62861.37934239897,2.5026117425222765,PPG_1,PPG_2,129597.0,129597.0,147.47112722143356,-26.56393481612482,-1.1743247193131499
62861.38939304854,2.512662392095081,PPG_1,PPG_2,129581.0,129581.0,131.5129776699032,-27.356401418567252,-1.2093405571043685
62861.39944369811,2.5227130416606087,PPG_1,PPG_2,129630.0,129630.0,180.55482811838738,-27.93255298176851,-1.2347983235490785
62861.409494347674,2.532763691226137,PPG_1,PPG_2,129609.0,129609.0,159.59667856687156,-28.430720534155213,-1.2568102974965718
62861.41954499725,2.542814340798941,PPG_1,PPG_2,129617.0,129617.0,167.6385290153412,-28.96500718671448,-1.2804182258337002
62861.42959564681,2.552864990364469,PPG_1,PPG_2,129589.0,129589.0,139.68037946382537,-29.609610822647724,-1.3089006076601417
62861.43964629638,2.5629156399299973,PPG_1,PPG_2,129624.0,129624.0,174.72222991230956,-30.389675489577456,-1.3433684549608194
62861.44969694595,2.572966289502802,PPG_1,PPG_2,129616.0,129616.0,166.7640803607792,-31.27865657642566,-1.3826488706156852
62861.45974759552,2.5830169390683295,PPG_1,PPG_2,129606.0,129606.0,156.80593080926337,-32.20228900705222,-1.4234603865456301
62861.46979824509,2.5930675886411336,PPG_1,PPG_2,129600.0,129600.0,150.84778125774756,-33.05044242245873,-1.4609367954244508
62861.479848894654,2.6031182382066618,PPG_1,PPG_2,129574.0,129574.0,124.88963170621719,-33.69668420592956,-1.489491560248835
62861.48989954422,2.61316888777219,PPG_1,PPG_2,129582.0,129582.0,132.93148215470137,-34.021801267552746,-1.5038571451931952
62861.49995019379,2.623219537344994,PPG_1,PPG_2,129591.0,129591.0,141.97333260318555,-33.93521253783775,-1.5000311455802104
62861.51000084336,2.633270186910522,PPG_1,PPG_2,129582.0,129582.0,133.01518305166974,-33.38909637152603,-1.475900519714343
62861.52005149293,2.6433208364833263,PPG_1,PPG_2,129600.0,129600.0,151.05703350013937,-32.38317041929811,-1.4314527917411648
62861.5301021425,2.6533714860488544,PPG_1,PPG_2,129600.0,129600.0,151.09888394862355,-30.960824050783415,-1.3686051593370503
62861.54015279206,2.6634221356143826,PPG_1,PPG_2,129592.0,129592.0,143.14073439710774,-29.19862225297257,-1.2907407141763838
62861.550203441635,2.6734727851871867,PPG_1,PPG_2,129634.0,129634.0,185.18258484557737,-27.191664669722023,-1.202061518141668
62861.5602540912,2.683523434752715,PPG_1,PPG_2,129623.0,129623.0,174.22443529406155,-25.037830662758395,-1.1068924574082504
62861.57030474077,2.693574084325519,PPG_1,PPG_2,129607.0,129607.0,158.26628574254573,-22.825014404885444,-1.0091172137466988
62861.58035539034,2.703624733891047,PPG_1,PPG_2,129582.0,129582.0,133.30813619101536,-20.624840104567323,-0.9119005661619268
62861.590406039904,2.713675383456575,PPG_1,PPG_2,129641.0,129641.0,192.34998663949955,-18.492281978990086,-0.817671599066771
62861.60045668948,2.7237260330293793,PPG_1,PPG_2,129613.0,129613.0,164.39183708798373,-16.467493226803384,-0.7282045170603667
62861.61050733904,2.7337766825949075,PPG_1,PPG_2,129610.0,129610.0,161.43368753645336,-14.578095971873894,-0.6447198281184235
62861.620557988615,2.7438273321677116,PPG_1,PPG_2,129607.0,129607.0,158.47553798493755,-12.842838327394425,-0.5680459342056775
62861.63060863818,2.7538779817332397,PPG_1,PPG_2,129613.0,129613.0,164.51738843342173,-11.276184239328122,-0.4988219375683373
62861.64065928775,2.763928631298768,PPG_1,PPG_2,129629.0,129629.0,180.5592388819059,-9.891318324747417,-0.4376304121739679
62861.65070993732,2.773979280871572,PPG_1,PPG_2,129615.0,129615.0,166.60108933037554,-8.700103010389016,-0.38499550984063025
62861.660760586885,2.7840299304371,PPG_1,PPG_2,129624.0,129624.0,175.64293977885973,-7.710821067885869,-0.3412832121593051
62861.67081123645,2.7940805800026283,PPG_1,PPG_2,129632.0,129632.0,183.6847902273439,-6.925169873084371,-0.3065685191831493
62861.68086188602,2.8041312295754324,PPG_1,PPG_2,129633.0,129633.0,184.72664067581354,-6.3355764812045186,-0.280516813648544
62861.69091253559,2.8141818791409605,PPG_1,PPG_2,129611.0,129611.0,162.76849112429773,-5.923988784559545,-0.26233044720967735
62861.70096318516,2.8242325287137646,PPG_1,PPG_2,129616.0,129616.0,167.8103415727819,-5.6628045023921825,-0.2507897886761808
62861.71101383473,2.8342831782792928,PPG_1,PPG_2,129644.0,129644.0,195.85219202125154,-5.516812653870481,-0.24433900971474512
62861.72106448429,2.844333827844821,PPG_1,PPG_2,129628.0,129628.0,179.89404246973572,-5.444646094729014,-0.24115026646542745
62861.731115133865,2.854384477417625,PPG_1,PPG_2,129591.0,129591.0,142.9358929182199,-5.400177734968263,-0.23918539265569852
62861.74116578343,2.864435126983153,PPG_1,PPG_2,129661.0,129661.0,212.97774336668954,-5.334715433721895,-0.23629288297160841
62861.75121643301,2.8744857765559573,PPG_1,PPG_2,129614.0,129614.0,166.01959381517372,-5.199252807640298,-0.230307347017126
62861.76126708257,2.8845364261214854,PPG_1,PPG_2,129624.0,129624.0,176.0614442636579,-4.946432757540153,-0.2191362694759528
62861.771317732135,2.8945870756870136,PPG_1,PPG_2,129634.0,129634.0,186.1032947121421,-4.5333521798555205,-0.20088393876784735
62861.78136838171,2.9046377252598177,PPG_1,PPG_2,129622.0,129622.0,174.14514516061172,-3.9256296385673513,-0.1740311807308175
62861.79141903127,2.914688374825346,PPG_1,PPG_2,129619.0,129619.0,171.1869956090959,-3.102011925678241,-0.1376389035703492
62861.801469680846,2.92473902439815,PPG_1,PPG_2,129610.0,129610.0,162.22884605758009,-2.0584799986107147,-0.09152952233518381
62861.81152033041,2.934789673963678,PPG_1,PPG_2,129656.0,129656.0,208.27069650604972,-0.8102043039861726,-0.03637335662803776
62861.82157097998,2.944840323529206,PPG_1,PPG_2,129622.0,129622.0,174.3125469545339,0.6097307079867665,0.026367727854356544
62861.83162162955,2.9548909731020103,PPG_1,PPG_2,129624.0,129624.0,176.35439740301808,2.1535944349055165,0.09458471222558174
62861.841672279115,2.9649416226675385,PPG_1,PPG_2,129637.0,129637.0,189.39624785148771,3.762449275778351,0.1656733864536071
62861.85172292869,2.9749922722403426,PPG_1,PPG_2,129612.0,129612.0,164.4380982999719,5.3700422614792105,0.2367063044947071
62861.86177357825,2.9850429218058707,PPG_1,PPG_2,129652.0,129652.0,204.47994874845608,6.9088010297804665,0.30469772175391757
62861.87182422782,2.995093571371399,PPG_1,PPG_2,129644.0,129644.0,196.5217991969257,8.318585282149783,0.3669902859445512
62861.88187487739,3.005144220944203,PPG_1,PPG_2,129659.0,129659.0,211.5636496454099,9.556529283450619,0.4216899366434729
62861.89192552696,3.015194870509731,PPG_1,PPG_2,129653.0,129653.0,205.60550009389408,10.60423848222945,0.467983894324134
62861.90197617652,3.0252455200752593,PPG_1,PPG_2,129637.0,129637.0,189.6473505423637,11.46861509998322,0.5061771397486148
62861.912026826096,3.0352961696480634,PPG_1,PPG_2,129614.0,129614.0,166.6892009908479,12.175337624089957,0.5374042995951648
62861.92207747566,3.0453468192135915,PPG_1,PPG_2,129644.0,129644.0,196.73105143933208,12.758076835482864,0.5631531471022103
62861.932128125234,3.0553974687863956,PPG_1,PPG_2,129634.0,129634.0,186.77290188781626,13.248828888801672,0.5848374606641402
62861.9421787748,3.065448118351924,PPG_1,PPG_2,129651.0,129651.0,203.8147523362859,13.67296679834065,0.603578369360797
62861.952229424365,3.075498767917452,PPG_1,PPG_2,129633.0,129633.0,185.85660278477008,14.048827806662818,0.620186120474711
62861.96228007394,3.085549417490256,PPG_1,PPG_2,129642.0,129642.0,194.89845323325426,14.38992597463611,0.6352578447389551
62861.9723307235,3.095600067055784,PPG_1,PPG_2,129662.0,129662.0,214.9403036817239,14.708559367274333,0.6493369430341999
62861.98238137307,3.1056507166285883,PPG_1,PPG_2,129648.0,129648.0,200.98215413020807,15.019862556873054,0.6630921498243431
62861.99243202264,3.1157013661941164,PPG_1,PPG_2,129618.0,129618.0,171.02400457869226,15.34460840370068,0.6774413323146097
62862.00248267221,3.125752015759645,PPG_1,PPG_2,129671.0,129671.0,224.0658550271619,15.709817125738399,0.6935784027367542
62862.01253332178,3.1358026653324487,PPG_1,PPG_2,129630.0,129630.0,183.10770547564607,16.14827171276679,0.7129519064918441
62862.022583971346,3.145853314897977,PPG_1,PPG_2,129673.0,129673.0,226.14955592413025,16.697864546323935,0.7372361519751751
62862.03263462092,3.155903964470781,PPG_1,PPG_2,129645.0,129645.0,198.1914063725999,17.39958270304451,0.7682421894222429
62862.04268527048,3.165954614036309,PPG_1,PPG_2,129625.0,129625.0,178.23325682108407,18.2923942618851,0.8076918578702684
62862.05273592005,3.176005263601837,PPG_1,PPG_2,129628.0,129628.0,181.27510726956825,19.405613097554795,0.8568804168023416
62862.06278656962,3.1860559131746413,PPG_1,PPG_2,129657.0,129657.0,210.31695771805244,20.75261285686947,0.9163987926324443
62862.07283721919,3.1961065627401695,PPG_1,PPG_2,129693.0,129693.0,246.35880816652207,22.32967965546466,0.9860828840948821
62862.08288786876,3.2061572123129736,PPG_1,PPG_2,129651.0,129651.0,204.40065861500625,24.118544708660643,1.0651254687792513
62862.092938518326,3.2162078618785017,PPG_1,PPG_2,129626.0,129626.0,179.44250906349043,26.0868082991467,1.1520949365175819
62862.10298916789,3.22625851144403,PPG_1,PPG_2,129671.0,129671.0,224.48435951196006,28.18348944962055,1.2447386477334517
62862.113039817465,3.236309161016834,PPG_1,PPG_2,129643.0,129643.0,196.52620996044425,30.333130952158644,1.3397224589504215
62862.12309046703,3.246359810582362,PPG_1,PPG_2,129641.0,129641.0,194.56806040892843,32.43315288531329,1.4325137856040724
62862.13314111659,3.2564104601478903,PPG_1,PPG_2,129678.0,129678.0,231.60991085739806,34.3565264481122,1.5174997477623673
62862.14319176617,3.2664611097206944,PPG_1,PPG_2,129672.0,129672.0,225.65176130588225,35.95990529623004,1.588346460406821
62862.153242415734,3.2765117592862225,PPG_1,PPG_2,129651.0,129651.0,204.69361175436643,37.09553118134561,1.6385250946384189
62862.16329306531,3.2865624088590266,PPG_1,PPG_2,129687.0,129687.0,240.73546220283606,37.623863533923824,1.6618699269641137
62862.17334371487,3.2966130584245548,PPG_1,PPG_2,129652.0,129652.0,205.77731265132024,37.42492338887045,1.6530795806859477
62862.18339436444,3.306663707990083,PPG_1,PPG_2,129668.0,129668.0,221.81916309980443,36.40791692904028,1.6081422506832976
62862.19344501401,3.316714357562887,PPG_1,PPG_2,129662.0,129662.0,215.8610135482886,34.519190150691536,1.5246871873421328
62862.203495663576,3.326765007128415,PPG_1,PPG_2,129653.0,129653.0,206.90286399675824,31.748829496718194,1.402276351372863
62862.21354631315,3.3368156567012193,PPG_1,PPG_2,129679.0,129679.0,232.94471444524243,28.136093887571494,1.242644432901409
62862.223596962715,3.3468663062667474,PPG_1,PPG_2,129660.0,129660.0,213.9865648937266,23.772770519009704,1.0498471303610883
62862.23364761228,3.3569169558322756,PPG_1,PPG_2,129657.0,129657.0,211.02841534219624,18.802154421943097,0.8302160614417535
62862.24369826185,3.3669676054050797,PPG_1,PPG_2,129636.0,129636.0,190.07026579068042,13.411306070777265,0.5920166586660458
62862.25374891142,3.377018254970608,PPG_1,PPG_2,129628.0,129628.0,182.1121162391646,7.816503212346522,0.34480534558249026
62862.26379956099,3.387068904543412,PPG_1,PPG_2,129647.0,129647.0,201.15396668763424,2.244523174728731,0.09860247902407707
62862.27385021056,3.39711955410894,PPG_1,PPG_2,129627.0,129627.0,181.19581713611842,-3.0872962388680305,-0.1369886779321399
62862.28390086012,3.407170203674468,PPG_1,PPG_2,129576.0,129576.0,130.2376675846026,-7.990867191363273,-0.35365729783499356
62862.293951509695,3.4172208532472723,PPG_1,PPG_2,129596.0,129596.0,150.27951803307224,-12.325180747632755,-0.5451727761590629
62862.30400215926,3.4272715028128005,PPG_1,PPG_2,129631.0,129631.0,185.32136848155642,-16.00735619093352,-0.7078729551243901
62862.31405280883,3.437322152385605,PPG_1,PPG_2,129611.0,129611.0,165.3632189300406,-19.012841023915943,-0.8406729609181048
62862.3241034584,3.4473728019511327,PPG_1,PPG_2,129589.0,129589.0,143.40506937851023,-21.366470962772773,-0.9446701816281772
62862.334154107964,3.457423451516661,PPG_1,PPG_2,129628.0,129628.0,182.44691982699442,-23.129357320216467,-1.0225648746617364
62862.34420475754,3.467474101089465,PPG_1,PPG_2,129611.0,129611.0,165.4887702754786,-24.38469207578913,-1.0780329512208424
62862.3542554071,3.477524750654993,PPG_1,PPG_2,129606.0,129606.0,160.53062072396278,-25.224271001950896,-1.1151304887079716
62862.36430605667,3.4875754002205213,PPG_1,PPG_2,129578.0,129578.0,132.57247117243242,-25.737873040069527,-1.137824449059831
62862.37435670624,3.497626049793326,PPG_1,PPG_2,129646.0,129646.0,200.6143216209166,-26.006033969592842,-1.1496733769278202
62862.38440735581,3.5076766993588535,PPG_1,PPG_2,129587.0,129587.0,141.65617206940078,-26.09519720507525,-1.1536131333553714
62862.39445800538,3.5177273489316576,PPG_1,PPG_2,129598.0,129598.0,152.6980225178704,-26.055570964191983,-1.1518622128512546
62862.404508654945,3.5277779984971858,PPG_1,PPG_2,129594.0,129594.0,148.7398729663546,-25.922521509889666,-1.145983305026368
62862.41455930451,3.537828648062714,PPG_1,PPG_2,129617.0,129617.0,171.78172341483878,-25.71999235404465,-1.1370343751317775
62862.42460995408,3.547879297635518,PPG_1,PPG_2,129582.0,129582.0,136.8235738633084,-25.463637868834684,-1.125707125448955
62862.43466060365,3.557929947201046,PPG_1,PPG_2,129603.0,129603.0,157.8654243117926,-25.16302601518031,-1.1124243247943448
62862.44471125322,3.5679805967738503,PPG_1,PPG_2,129618.0,129618.0,172.90727476027678,-24.82287377079495,-1.0973943970005333
62862.45476190279,3.5780312463393784,PPG_1,PPG_2,129603.0,129603.0,157.9491252087464,-24.44330456709436,-1.0806227959938053
62862.46481255235,3.5880818959049066,PPG_1,PPG_2,129597.0,129597.0,151.9909756572306,-24.020321265723524,-1.061932904680346
62862.474863201925,3.5981325454777107,PPG_1,PPG_2,129605.0,129605.0,160.03282610571478,-23.547803264904132,-1.0410542788567112
62862.48491385149,3.608183195043239,PPG_1,PPG_2,129617.0,129617.0,172.07467655419896,-23.020607087286024,-1.017759649426612
62862.494964501064,3.618233844616043,PPG_1,PPG_2,129586.0,129586.0,141.1165270026686,-22.437755685242493,-0.9920058446764323
62862.50501515063,3.628284494181571,PPG_1,PPG_2,129610.0,129610.0,165.15837745115277,-21.80540460600031,-0.9640648529051672
62862.515065800195,3.638335143747099,PPG_1,PPG_2,129604.0,129604.0,159.20022789963696,-21.13898603877232,-0.934618559043456
62862.52511644977,3.6483857933199033,PPG_1,PPG_2,129595.0,129595.0,150.2420783481066,-20.46338559219202,-0.9047665557208943
62862.53516709933,3.658436442885431,PPG_1,PPG_2,129619.0,129619.0,174.28392879659077,-19.810584334866274,-0.8759219547421642
62862.545217748906,3.668487092458235,PPG_1,PPG_2,129621.0,129621.0,176.32577924507495,-19.21519553140316,-0.8496141738205238
62862.55526839847,3.678537742023764,PPG_1,PPG_2,129600.0,129600.0,155.3676296935446,-18.70944098960739,-0.8272669620350539
62862.56531904804,3.688588391589292,PPG_1,PPG_2,129594.0,129594.0,149.40948014202877,-18.319470931312622,-0.8100357900681903
62862.57536969761,3.698639041162096,PPG_1,PPG_2,129621.0,129621.0,176.45133059051295,-18.0630402643723,-0.7987051742282267
62862.585420347175,3.708689690727624,PPG_1,PPG_2,129614.0,129614.0,169.49318103898258,-17.9467605854622,-0.7935672537624531
62862.59547099674,3.718740340293152,PPG_1,PPG_2,129624.0,129624.0,179.53503148746677,-17.96264784462076,-0.7942692463611678
62862.605521646314,3.728790989865957,PPG_1,PPG_2,129601.0,129601.0,156.57688193595095,-18.086243809789316,-0.7997304434067627
62862.61557229588,3.738841639431485,PPG_1,PPG_2,129604.0,129604.0,159.61873238442058,-18.27828440106187,-0.8082159267982448
62862.62562294545,3.7488922890042886,PPG_1,PPG_2,129600.0,129600.0,155.66058283290477,-18.48916553292881,-0.8175338961409563
62862.63567359502,3.7589429385698168,PPG_1,PPG_2,129619.0,129619.0,174.70243328138895,-18.663604713479106,-0.8252416456306593
62862.64572424458,3.768993588135345,PPG_1,PPG_2,129616.0,129616.0,171.74428372987313,-18.743822857240623,-0.8287861552683005
62862.65577489416,3.779044237708149,PPG_1,PPG_2,129622.0,129622.0,177.78613417834276,-18.672168746189207,-0.8256200549911186
62862.66582554372,3.789094887273677,PPG_1,PPG_2,129586.0,129586.0,141.82798462682695,-18.39549572951002,-0.8133950130229313
62862.675876193294,3.7991455368464817,PPG_1,PPG_2,129616.0,129616.0,171.86983507531113,-17.872055750940472,-0.7902663545702721
62862.68592684286,3.8091961864120094,PPG_1,PPG_2,129598.0,129598.0,153.91168552378076,-17.07885880852536,-0.7552182460613512
62862.695977492425,3.8192468359775376,PPG_1,PPG_2,129589.0,129589.0,144.95353597226494,-16.016413305116743,-0.7082731517258857
62862.706028142,3.8292974855503417,PPG_1,PPG_2,129637.0,129637.0,192.99538642074913,-14.708736260682906,-0.6504922848350038
62862.71607879156,3.83934813511587,PPG_1,PPG_2,129620.0,129620.0,176.03723686921876,-13.198342311025966,-0.5837541921771905
62862.72612944114,3.849398784688674,PPG_1,PPG_2,129607.0,129607.0,163.07908731770294,-11.538477981958868,-0.510411618593762
62862.7361800907,3.859449434254202,PPG_1,PPG_2,129623.0,129623.0,179.12093776618713,-9.786004796229577,-0.43297704076319043
62862.74623074027,3.86950008381973,PPG_1,PPG_2,129606.0,129606.0,162.16278821465676,-7.996136253057465,-0.35389011598660663
62862.75628138984,3.8795507333925343,PPG_1,PPG_2,129624.0,129624.0,180.20463866314094,-6.2177074933007574,-0.27530866815909033
62862.766332039406,3.8896013829580625,PPG_1,PPG_2,129633.0,129633.0,189.24648911162512,-4.487687885865832,-0.19886622154637035
62862.77638268898,3.8996520325308666,PPG_1,PPG_2,129638.0,129638.0,194.2883395601093,-2.825401255489807,-0.12541661643700328
62862.786433338544,3.9097026820963943,PPG_1,PPG_2,129644.0,129644.0,200.33019000857894,-1.2288826663577934,-0.05487303040395912
62862.79648398811,3.919753331661923,PPG_1,PPG_2,129604.0,129604.0,160.37204045706312,0.3236319119876734,0.013726199489512982
62862.80653463768,3.929803981234727,PPG_1,PPG_2,129630.0,129630.0,186.4138909055473,1.8663330030592469,0.08189181176744173
62862.81658528725,3.939854630800255,PPG_1,PPG_2,129609.0,129609.0,165.45574135401694,3.435557057392162,0.15122936463749032
62862.82663593681,3.9499052803657833,PPG_1,PPG_2,129663.0,129663.0,219.49759180250112,5.061039140487093,0.22305272827043165
62862.836686586386,3.9599559299385874,PPG_1,PPG_2,129618.0,129618.0,174.5394422509853,6.760658156588587,0.29815189786477925
62862.84673723595,3.970006579504115,PPG_1,PPG_2,129629.0,129629.0,185.58129269945493,8.537343118151474,0.3766562944266559
62862.856787885525,3.98005722907692,PPG_1,PPG_2,129651.0,129651.0,207.62314314793912,10.376661789384144,0.45792821685183055
62862.86683853509,3.990107878642448,PPG_1,PPG_2,129627.0,129627.0,183.6649935964233,12.24543560082233,0.5405016407010086
62862.876889184656,4.000158528207976,PPG_1,PPG_2,129625.0,129625.0,181.70684404489293,14.092159587940039,0.6221007735588048
62862.88693983423,4.01020917778078,PPG_1,PPG_2,129646.0,129646.0,202.74869449337712,15.849899487985343,0.6997680658200083
62862.896990483794,4.020259827346308,PPG_1,PPG_2,129638.0,129638.0,194.7905449418613,17.442901431435754,0.7701562657530241
62862.90704113337,4.030310476919112,PPG_1,PPG_2,129662.0,129662.0,218.83239539034548,18.797288501559702,0.8300010564455496
62862.91709178293,4.04036112648464,PPG_1,PPG_2,129652.0,129652.0,208.8742458388151,19.85380949158977,0.8766843709169605
62862.9271424325,4.0504117760501686,PPG_1,PPG_2,129657.0,129657.0,213.9160962872993,20.579174965453852,0.9087352859888297
62862.93719308207,4.060462425622973,PPG_1,PPG_2,129661.0,129661.0,217.95794673578348,20.972937306997267,0.9261340233454318
62862.94724373163,4.070513075188501,PPG_1,PPG_2,129618.0,129618.0,174.9997971842531,21.06848608471532,0.9303559306048833
62862.95729438121,4.080563724761305,PPG_1,PPG_2,129667.0,129667.0,224.0416476327373,20.929030932069416,0.9241939813326383
62862.967345030775,4.090614374326833,PPG_1,PPG_2,129650.0,129650.0,207.08349808122148,20.64112570240979,0.9114726340986552
62862.97739568034,4.100665023892361,PPG_1,PPG_2,129638.0,129638.0,195.1253485296911,20.307472686290247,0.8967298804545463
62862.98744632991,4.110715673465165,PPG_1,PPG_2,129650.0,129650.0,207.1671989781753,20.03885562607268,0.8848607980483693
62862.99749697948,4.1207663230306935,PPG_1,PPG_2,129632.0,129632.0,189.20904942665948,19.945296884946256,0.8807268223159704
62863.00754762905,4.130816972603498,PPG_1,PPG_2,129651.0,129651.0,208.2508998751291,20.12798659398474,0.888799128704783
62863.01759827862,4.140867622169026,PPG_1,PPG_2,129642.0,129642.0,199.2927503236133,20.673562602341402,0.9129058872136189
62863.02764892818,4.150918271734554,PPG_1,PPG_2,129668.0,129668.0,225.33460077209747,21.651029301060493,0.9560961178973809
62863.037699577755,4.160968921307358,PPG_1,PPG_2,129663.0,129663.0,220.3764512205671,23.109909534949065,1.0205580314584237
62863.04775022732,4.171019570872886,PPG_1,PPG_2,129653.0,129653.0,210.4183016690513,25.07687784467034,1.1074702660704447
62863.057800876886,4.181070220438414,PPG_1,PPG_2,129625.0,129625.0,182.46015211753547,27.54881497942611,1.2166949948778467
62863.06785152646,4.191120870011218,PPG_1,PPG_2,129670.0,129670.0,227.50200256601966,30.483596881607287,1.3463709291350832
62863.077902176025,4.2011715195767465,PPG_1,PPG_2,129660.0,129660.0,217.5438530144893,33.79268167315668,1.4925857676420466
62863.0879528256,4.211222169149551,PPG_1,PPG_2,129638.0,129638.0,195.58570346297347,37.33832768333426,1.6492532728401337
62863.09800347516,4.221272818715079,PPG_1,PPG_2,129680.0,129680.0,237.62755391145765,40.93575494954895,1.8082087786384131
62863.10805412473,4.231323468280607,PPG_1,PPG_2,129657.0,129657.0,214.66940435992728,44.36033576154944,1.9595269109689681
62863.1181047743,4.241374117853411,PPG_1,PPG_2,129662.0,129662.0,219.71125480841147,47.36017493695983,2.092077458389096
62863.12815542387,4.251424767418939,PPG_1,PPG_2,129684.0,129684.0,241.75310525689565,49.67373097236801,2.1943039782286284
62863.13820607344,4.261475416991743,PPG_1,PPG_2,129690.0,129690.0,247.79495570536528,51.051427582035515,2.2551787215439263
62863.148256723005,4.271526066557271,PPG_1,PPG_2,129669.0,129669.0,226.83680615384947,51.2789851810797,2.265233555339738
62863.15830737257,4.2815767161228,PPG_1,PPG_2,129682.0,129682.0,239.87865660233365,50.19915303014209,2.2175202166041528
62863.16835802214,4.291627365695604,PPG_1,PPG_2,129677.0,129677.0,234.92050705080328,47.72963215274224,2.1084022522652797
62863.17840867171,4.301678015261132,PPG_1,PPG_2,129692.0,129692.0,249.96235749928746,43.87648671677329,1.9381476129454296
62863.18845932128,4.311728664833936,PPG_1,PPG_2,129684.0,129684.0,242.00420794777165,38.74163748402662,1.7112597576565591
62863.19850997085,4.321779314399464,PPG_1,PPG_2,129681.0,129681.0,239.04605839625583,32.52135909233167,1.4364112548824182
62863.20856062041,4.331829963964992,PPG_1,PPG_2,129662.0,129662.0,220.08790884472546,25.49260806217986,1.1258396734579048
62863.218611269986,4.341880613537796,PPG_1,PPG_2,129607.0,129607.0,165.12975929320964,17.986448152314395,0.7941733583996734
62863.22866191955,4.3519312631033245,PPG_1,PPG_2,129609.0,129609.0,167.17160974169383,10.352593725380855,0.4568647481548654
62863.23871256912,4.361981912676129,PPG_1,PPG_2,129644.0,129644.0,202.21346019016346,2.923660516668168,0.12861076319658044
62863.24876321869,4.372032562241657,PPG_1,PPG_2,129602.0,129602.0,160.25531063864764,-4.012741278568387,-0.17788028559732183
62863.258813868255,4.382083211807185,PPG_1,PPG_2,129609.0,129609.0,167.29716108713183,-10.231522518291042,-0.45266263538728796
62863.26886451783,4.392133861379989,PPG_1,PPG_2,129596.0,129596.0,154.33901153560146,-15.578602205584422,-0.6889280810349948
62863.27891516739,4.402184510945517,PPG_1,PPG_2,129623.0,129623.0,181.38086198408564,-19.97122245015057,-0.883019891955601
62863.28896581696,4.412235160511045,PPG_1,PPG_2,129614.0,129614.0,172.42271243256982,-23.390843177633908,-1.0341188585644105
62863.29901646653,4.422285810083849,PPG_1,PPG_2,129610.0,129610.0,168.46456288103946,-25.871801604012653,-1.1437422011217975
62863.3090671161,4.4323364596493775,PPG_1,PPG_2,129589.0,129589.0,147.50641332952364,-27.49022700210107,-1.2152537588858603
62863.31911776567,4.442387109222182,PPG_1,PPG_2,129572.0,129572.0,130.54826377800782,-28.355277133549354,-1.253476764108678
62863.329168415235,4.45243775878771,PPG_1,PPG_2,129640.0,129640.0,198.590114226492,-28.600941863046685,-1.2643316774799036
62863.3392190648,4.462488408353238,PPG_1,PPG_2,129601.0,129601.0,159.63196467496164,-28.37631869682733,-1.2544065041940573
62863.349269714374,4.472539057926042,PPG_1,PPG_2,129592.0,129592.0,150.67381512344582,-27.83605872232302,-1.2305346393431913
62863.35932036394,4.48258970749157,PPG_1,PPG_2,129566.0,129566.0,124.71566557193,-27.134217967537964,-1.1995231847922023
62863.36937101351,4.492640357064374,PPG_1,PPG_2,129581.0,129581.0,139.75751602039963,-26.42026774894144,-1.167976662871492
62863.37942166308,4.502691006629902,PPG_1,PPG_2,129611.0,129611.0,169.79936646888382,-25.83156252812206,-1.1419642019608096
62863.38947231264,4.5127416561954306,PPG_1,PPG_2,129649.0,129649.0,207.841216917368,-25.478973028740587,-1.1263847230538415
62863.399522962216,4.522792305768235,PPG_1,PPG_2,129614.0,129614.0,172.88306736583763,-25.429988663217227,-1.1242203055349387
62863.40957361178,4.532842955333763,PPG_1,PPG_2,129612.0,129612.0,170.92491781432182,-25.698620125095065,-1.1360900242912135
62863.419624261354,4.542893604906567,PPG_1,PPG_2,129591.0,129591.0,149.966768262806,-26.248606720428388,-1.16039166848692
62863.42967491092,4.552944254472095,PPG_1,PPG_2,129566.0,129566.0,125.00861871127563,-27.008720971764106,-1.1939779890277893
62863.439725560485,4.562994904037623,PPG_1,PPG_2,129582.0,129582.0,141.0504691597598,-27.89297287307915,-1.233049441436755
62863.44977621006,4.573045553610427,PPG_1,PPG_2,129609.0,129609.0,168.092319608244,-28.81739583237882,-1.2738958875753696
62863.459826859624,4.5830962031759555,PPG_1,PPG_2,129608.0,129608.0,167.13417005671363,-29.708966338144908,-1.3132907189955467
62863.4698775092,4.59314685274876,PPG_1,PPG_2,129576.0,129576.0,135.1760205051978,-30.50827084037671,-1.3486086954373018
62863.47992815876,4.603197502314288,PPG_1,PPG_2,129600.0,129600.0,159.217870953682,-31.16999008254938,-1.3778473454647389
62863.48997880833,4.613248151879816,PPG_1,PPG_2,129604.0,129604.0,163.25972140216618,-31.66277988522296,-1.3996216987843644
62863.5000294579,4.62329880145262,PPG_1,PPG_2,129608.0,129608.0,167.3015718506358,-31.96827197230425,-1.413120136869667
62863.510080107466,4.633349451018148,PPG_1,PPG_2,129553.0,129553.0,112.34342229912,-32.080072229237096,-1.4180601301131823
62863.52013075703,4.643400100583676,PPG_1,PPG_2,129603.0,129603.0,162.38527274760418,-32.003331049243435,-1.4146692531951106
62863.53018140661,4.65345075015648,PPG_1,PPG_2,129596.0,129596.0,155.4271231960738,-31.752680723541054,-1.403594046845644
62863.54023205617,4.6635013997220085,PPG_1,PPG_2,129619.0,129619.0,178.468973644558,-31.346478333671353,-1.3856456349501205
62863.55028270574,4.673552049294813,PPG_1,PPG_2,129584.0,129584.0,143.51082409304217,-30.79936124320493,-1.3614707823651278
62863.56033335531,4.683602698860341,PPG_1,PPG_2,129620.0,129620.0,179.5526745415118,-30.117301904646357,-1.3313333871874076
62863.57038400487,4.693653348425869,PPG_1,PPG_2,129558.0,129558.0,117.59452498999599,-29.29718125726008,-1.2950956309594492
62863.58043465445,4.703703997998673,PPG_1,PPG_2,129613.0,129613.0,172.63637543848017,-28.329536078179196,-1.2523393728083527
62863.59048530401,4.713754647564201,PPG_1,PPG_2,129607.0,129607.0,166.6782258869498,-27.201544373388536,-1.20249806158709
62863.600535953585,4.723805297137005,PPG_1,PPG_2,129593.0,129593.0,152.720076335434,-25.898669914776324,-1.144929401198779
62863.61058660315,4.733855946702533,PPG_1,PPG_2,129600.0,129600.0,159.76192678391817,-24.40592757632748,-1.0789712605956152
62863.62063725272,4.7439065962680615,PPG_1,PPG_2,129626.0,129626.0,185.80377723240235,-22.71003726232331,-1.0040368470015955
62863.63068790229,4.753957245840866,PPG_1,PPG_2,129589.0,129589.0,148.84562768087198,-20.802686898145556,-0.919758884047413
62863.640738551854,4.764007895406394,PPG_1,PPG_2,129593.0,129593.0,152.88747812935617,-18.684945435305615,-0.8261846043011212
62863.65078920143,4.774058544979198,PPG_1,PPG_2,129617.0,129617.0,176.92932857784035,-16.3718859480129,-0.7239800248792837
62863.66083985099,4.784109194544726,PPG_1,PPG_2,129624.0,129624.0,183.97117902630998,-13.895151180214524,-0.6145433084122327
62863.67089050056,4.794159844110254,PPG_1,PPG_2,129591.0,129591.0,151.01302947479417,-11.30262892598711,-0.499990419439544
62863.68094115013,4.804210493683058,PPG_1,PPG_2,129604.0,129604.0,164.05487992327835,-8.656229209053702,-0.3830569071208354
62863.690991799696,4.8142611432485864,PPG_1,PPG_2,129642.0,129642.0,202.09673037174798,-6.027426721943903,-0.266900943967201
62863.70104244927,4.8243117928213906,PPG_1,PPG_2,129633.0,129633.0,193.13858082023216,-3.489422986466569,-0.15475700396887487
62863.711093098835,4.834362442386919,PPG_1,PPG_2,129604.0,129604.0,164.18043126871635,-1.1076110330675464,-0.04951453601835386
62863.7211437484,4.844413091952447,PPG_1,PPG_2,129651.0,129651.0,211.22228171718598,1.0682890971361736,0.04662953588862587
62863.73119439797,4.854463741525251,PPG_1,PPG_2,129645.0,129645.0,205.26413216567016,3.0090367323829463,0.13238318680595765
62863.74124504754,4.864514391090779,PPG_1,PPG_2,129613.0,129613.0,173.30598261415435,4.707284115576449,0.20742174958701204
62863.751295697104,4.874565040656307,PPG_1,PPG_2,129625.0,129625.0,185.34783306263853,6.174855075235028,0.2722676705534303
62863.76134634668,4.884615690229111,PPG_1,PPG_2,129646.0,129646.0,206.38968351110816,7.436994967456679,0.32803643809473504
62863.77139699624,4.8946663397946395,PPG_1,PPG_2,129621.0,129621.0,181.43153395959234,8.526538723518865,0.3761788926929781
62863.781447645815,4.904716989367444,PPG_1,PPG_2,129633.0,129633.0,193.47338440807653,9.479577737642147,0.4182897645257984
62863.79149829538,4.914767638932972,PPG_1,PPG_2,129646.0,129646.0,206.51523485654616,10.332593540239138,0.45598102228356907
62863.801548944946,4.9248182884985,PPG_1,PPG_2,129640.0,129640.0,200.55708530503034,11.120885658033693,0.4908124067781548
62863.81159959452,4.934868938071304,PPG_1,PPG_2,129617.0,129617.0,177.59893575351452,11.877695996007093,0.524252740984692
62863.821650244085,4.944919587636832,PPG_1,PPG_2,129664.0,129664.0,224.64078620198416,12.633415254146371,0.5576448648636632
62863.83170089366,4.954970237209636,PPG_1,PPG_2,129648.0,129648.0,208.68263665046834,13.41496502220504,0.5921783326713428
62863.84175154322,4.965020886775164,PPG_1,PPG_2,129639.0,129639.0,199.72448709895252,14.244593324948625,0.6288361930610918
62863.85180219279,4.9750715363406925,PPG_1,PPG_2,129624.0,129624.0,184.76633754742215,15.136305233842176,0.6682372725035316
62863.86185284236,4.985122185913497,PPG_1,PPG_2,129624.0,129624.0,184.80818799590634,16.090427138722916,0.7103959928223219
62863.87190349193,4.995172835479025,PPG_1,PPG_2,129658.0,129658.0,218.85003844439052,17.09010288154565,0.7545675497644201
62863.8819541415,5.005223485051829,PPG_1,PPG_2,129656.0,129656.0,216.89188889286015,18.1028512389254,0.7993167317438696
62863.892004791065,5.015274134617357,PPG_1,PPG_2,129640.0,129640.0,200.93373934134434,19.086042226134808,0.8427598951778943
62863.90205544063,5.025324784182885,PPG_1,PPG_2,129632.0,129632.0,192.97558978982852,19.992726697112385,0.8828225505197314
62863.9121060902,5.035375433755689,PPG_1,PPG_2,129650.0,129650.0,211.0174402383127,20.776495012453324,0.9174540468014547
62863.92215673977,5.0454260833212174,PPG_1,PPG_2,129639.0,129639.0,200.05929068678233,21.397120803987267,0.9448769463639356
62863.93220738934,5.0554767328940216,PPG_1,PPG_2,129656.0,129656.0,217.10114113526652,21.828553935329275,0.9639402008888185
62863.94225803891,5.06552738245955,PPG_1,PPG_2,129675.0,129675.0,236.1429915837507,22.06842766392716,0.9745392337629749
62863.95230868847,5.075578032025078,PPG_1,PPG_2,129658.0,129658.0,219.18484203222033,22.145994533621327,0.9779665945108127
62863.962359338046,5.085628681597882,PPG_1,PPG_2,129646.0,129646.0,207.22669248070451,22.124447349492975,0.9770145131209214
62863.97240998761,5.09567933116341,PPG_1,PPG_2,129673.0,129673.0,234.2685429291887,22.095144424666124,0.9757197374680636
62863.98246063718,5.105729980728938,PPG_1,PPG_2,129611.0,129611.0,172.31039337765833,22.164457030758594,0.9787823762774978
62863.99251128675,5.115780630301742,PPG_1,PPG_2,129661.0,129661.0,222.3522438261425,22.4363467845641,0.990796065544661
62864.002561936315,5.1258312798672705,PPG_1,PPG_2,129651.0,129651.0,212.3940942746267,22.994718237975437,1.0154682021112222
62864.01261258589,5.135881929440075,PPG_1,PPG_2,129636.0,129636.0,197.43594472309633,23.88868214203152,1.0549687879518808
62864.02266323545,5.145932579005603,PPG_1,PPG_2,129645.0,129645.0,206.4777951715805,25.121778346969037,1.1094542344804568
62864.03271388502,5.155983228571131,PPG_1,PPG_2,129651.0,129651.0,212.5196456200647,26.645720744694536,1.1767909773002192
62864.04276453459,5.166033878143935,PPG_1,PPG_2,129672.0,129672.0,233.56149606854888,28.359695217775748,1.2525244554590809
62864.05281518416,5.176084527709463,PPG_1,PPG_2,129635.0,129635.0,196.6033465170185,30.11490855504374,1.3300801093091426
62864.06286583373,5.186135177282267,PPG_1,PPG_2,129632.0,129632.0,193.6451969655027,31.722943576967904,1.4011325591117645
62864.072916483296,5.196185826847795,PPG_1,PPG_2,129651.0,129651.0,212.68704741398687,32.96854059353844,1.4561703650597173
62864.08296713286,5.2062364764133235,PPG_1,PPG_2,129687.0,129687.0,248.7288978624565,33.62953625037612,1.485377042829093
62864.093017782434,5.216287125986128,PPG_1,PPG_2,129644.0,129644.0,205.7707483109407,33.50406759136968,1.4798330991498132
62864.103068432,5.226337775551656,PPG_1,PPG_2,129696.0,129696.0,257.8125987594249,32.440301122531,1.4328296367883835
62864.11311908157,5.23638842512446,PPG_1,PPG_2,129668.0,129668.0,229.8544492078945,30.362423775812676,1.3410167882740234
62864.12316973114,5.246439074689988,PPG_1,PPG_2,129678.0,129678.0,239.8962996563787,27.28789173237372,1.2051658704117993
62864.1332203807,5.256489724255516,PPG_1,PPG_2,129683.0,129683.0,244.93815010486287,23.332058249186833,1.0303738688947308
62864.14327103027,5.26654037382832,PPG_1,PPG_2,129656.0,129656.0,217.9800005533325,18.6974809002396,0.8255909692981745
62864.15332167984,5.276591023393848,PPG_1,PPG_2,129603.0,129603.0,165.02185100181669,13.647565604533437,0.6024559951442491
62864.163372329414,5.2866416729666525,PPG_1,PPG_2,129614.0,129614.0,176.06370145030087,8.468754888913091,0.37362566284925436
62864.17342297898,5.296692322532181,PPG_1,PPG_2,129601.0,129601.0,163.1055518987705,3.4308441697132137,0.15102112152669464
62864.183473628545,5.306742972097709,PPG_1,PPG_2,129638.0,129638.0,200.14740234725468,-1.2440446786843737,-0.055542977329898574
62864.19352427812,5.316793621670513,PPG_1,PPG_2,129612.0,129612.0,174.18925279573887,-5.398759251882258,-0.2391227157258493
62864.20357492768,5.326844271236041,PPG_1,PPG_2,129595.0,129595.0,157.23110324422305,-8.946075146246113,-0.39586400623377305
62864.21362557725,5.336894920801569,PPG_1,PPG_2,129646.0,129646.0,208.27295369269268,-11.864688277551998,-0.5248255090480848
62864.22367622682,5.346945570374373,PPG_1,PPG_2,129612.0,129612.0,174.31480414117686,-14.188667894578986,-0.6275126040614384
62864.23372687639,5.3569962199399015,PPG_1,PPG_2,129596.0,129596.0,158.35665458966105,-15.993130422935682,-0.7072443769822543
62864.24377752596,5.367046869512706,PPG_1,PPG_2,129610.0,129610.0,172.39850503813068,-17.378984547133857,-0.768479567292675
62864.253828175526,5.377097519078234,PPG_1,PPG_2,129611.0,129611.0,173.44035548661486,-18.45713381499129,-0.8161185463507982
62864.26387882509,5.387148168643762,PPG_1,PPG_2,129631.0,129631.0,193.48220593509905,-19.33133456958804,-0.8547458799514523
62864.273929474664,5.397198818216566,PPG_1,PPG_2,129620.0,129620.0,182.52405638356868,-20.08146222161585,-0.8878909337684321
62864.28398012423,5.407249467782094,PPG_1,PPG_2,129619.0,129619.0,181.56590683205286,-20.751517548118883,-0.9174979210555421
62864.2940307738,5.417300117354898,PPG_1,PPG_2,129608.0,129608.0,170.60775728053704,-21.346062683416385,-0.943768423753033
62864.30408142337,5.427350766920426,PPG_1,PPG_2,129600.0,129600.0,162.64960772900668,-21.835757209216922,-0.9654060095261509
62864.314132072934,5.4374014164859545,PPG_1,PPG_2,129620.0,129620.0,182.69145817749086,-22.16982092827046,-0.9801669104426785
62864.32418272251,5.447452066058759,PPG_1,PPG_2,129604.0,129604.0,166.73330862597504,-22.292486877646315,-0.9855870139178439
62864.33423337207,5.457502715624287,PPG_1,PPG_2,129558.0,129558.0,120.77515907445922,-22.161203508314358,-0.9797861421195319
62864.344284021645,5.467553365197091,PPG_1,PPG_2,129580.0,129580.0,142.81700952292886,-21.7633304809613,-0.9622057704743964
62864.35433467121,5.477604014762619,PPG_1,PPG_2,129625.0,129625.0,187.85885997141304,-21.12537032635903,-0.9340169367469375
62864.364385320776,5.487654664328147,PPG_1,PPG_2,129591.0,129591.0,153.90071041989722,-20.31000098723358,-0.8979891212771695
62864.37443597035,5.497705313900951,PPG_1,PPG_2,129630.0,129630.0,192.94256086836685,-19.402429462751222,-0.8578872706915962
62864.384486619914,5.507755963466479,PPG_1,PPG_2,129618.0,129618.0,180.98441131685104,-18.49205411125588,-0.8176615305293787
62864.39453726949,5.5178066130392835,PPG_1,PPG_2,129631.0,129631.0,194.02626176533522,-17.655217110677167,-0.7806851474494585
62864.40458791905,5.527857262604812,PPG_1,PPG_2,129602.0,129602.0,165.06811221380485,-16.943200753590776,-0.7492240749101364
62864.41463856862,5.53790791217034,PPG_1,PPG_2,129623.0,129623.0,186.10996266228904,-16.37757885570309,-0.7242315710411354
62864.42468921819,5.547958561743144,PPG_1,PPG_2,129624.0,129624.0,187.15181311077322,-15.952464804396607,-0.7054475306570525
62864.43473986776,5.558009211308672,PPG_1,PPG_2,129586.0,129586.0,149.19366355924285,-15.641964774260664,-0.6917278121781927
62864.44479051732,5.5680598608742,PPG_1,PPG_2,129611.0,129611.0,174.23551400772703,-15.410922106221943,-0.6815189875262011
62864.454841166895,5.578110510447004,PPG_1,PPG_2,129597.0,129597.0,160.27736445621122,-15.225883171051217,-0.6733428785027693
62864.46489181646,5.5881611600125325,PPG_1,PPG_2,129614.0,129614.0,177.3192149046954,-15.062586850595642,-0.6661274861425711
62864.47494246603,5.598211809585337,PPG_1,PPG_2,129606.0,129606.0,169.36106535316503,-14.908079826164307,-0.6593004566016203
62864.4849931156,5.608262459150865,PPG_1,PPG_2,129612.0,129612.0,175.40291580164921,-14.757953662183537,-0.6526669992546901
62864.49504376517,5.618313108716393,PPG_1,PPG_2,129621.0,129621.0,184.4447662501334,-14.610228824639016,-0.6461396466403964
62864.50509441474,5.628363758289197,PPG_1,PPG_2,129629.0,129629.0,192.48661669860303,-14.457787469138085,-0.6394038905082862
62864.5151450643,5.638414407854725,PPG_1,PPG_2,129634.0,129634.0,197.5284671470872,-14.282097821020798,-0.6316408880030568
62864.525195713875,5.648465057427529,PPG_1,PPG_2,129616.0,129616.0,179.5703175955714,-14.051716421793085,-0.6214612820983934
62864.53524636344,5.658515706993057,PPG_1,PPG_2,129598.0,129598.0,161.61216804404103,-13.727929139081999,-0.6071544546114969
62864.545297013006,5.6685663565585855,PPG_1,PPG_2,129605.0,129605.0,168.6540184925252,-13.276354083905126,-0.5872012113657884
62864.55534766258,5.67861700613139,PPG_1,PPG_2,129574.0,129574.0,137.6958689410094,-12.679556896755248,-0.5608311997651875
62864.565398312145,5.688667655696918,PPG_1,PPG_2,129610.0,129610.0,173.73771938947903,-11.94432843127722,-0.5283444796847214
62864.57544896172,5.698718305269722,PPG_1,PPG_2,129646.0,129646.0,209.7795698379632,-11.099146109119493,-0.490999351189126
62864.58549961128,5.70876895483525,PPG_1,PPG_2,129644.0,129644.0,207.8214202864474,-10.182616935982962,-0.4505016989744386
62864.59555026085,5.718819604400778,PPG_1,PPG_2,129616.0,129616.0,179.86327073491702,-9.22985228675475,-0.40840295019719164
62864.60560091042,5.728870253973582,PPG_1,PPG_2,129625.0,129625.0,188.9051211834012,-8.264747931443212,-0.3657589605917843
62864.61565155999,5.73892090353911,PPG_1,PPG_2,129601.0,129601.0,164.9469716318854,-7.300638109104023,-0.3231589153054568
62864.62570220956,5.7489715531119145,PPG_1,PPG_2,129623.0,129623.0,186.98882208036957,-6.345969453405915,-0.2809760363181822
62864.635752859125,5.759022202677443,PPG_1,PPG_2,129599.0,129599.0,163.0306725288392,-5.410118731321189,-0.23962464437268483
62864.64580350869,5.769072852242971,PPG_1,PPG_2,129627.0,129627.0,191.0725229773234,-4.505906878654662,-0.19967124385803225
62864.65585415826,5.779123501815775,PPG_1,PPG_2,129620.0,129620.0,184.11437342580757,-3.6473469153004245,-0.16173501245321342
62864.66590480783,5.789174151381303,PPG_1,PPG_2,129666.0,129666.0,230.1562238742772,-2.843444177968446,-0.12621385892626952
62864.675955457395,5.799224800946831,PPG_1,PPG_2,129632.0,129632.0,196.19807432276139,-2.0917424273323877,-0.09299925216994323
62864.68600610697,5.809275450519635,PPG_1,PPG_2,129614.0,129614.0,178.23992477124557,-1.3769056539170534,-0.06141355704037741
62864.69605675653,5.8193261000851635,PPG_1,PPG_2,129592.0,129592.0,156.2817752197152,-0.676733781308417,-0.030475843524533856
62864.706107406106,5.829376749657968,PPG_1,PPG_2,129627.0,129627.0,191.32362566819938,0.028307127767340942,0.0006770126744294534
62864.71615805567,5.839427399223496,PPG_1,PPG_2,129630.0,129630.0,194.36547611668357,0.7491170291109642,0.032526635744931254
62864.72620870524,5.849478048789024,PPG_1,PPG_2,129628.0,129628.0,192.4073265651532,1.4890634482702678,0.06522182278198685
62864.73625935481,5.859528698361828,PPG_1,PPG_2,129632.0,129632.0,196.44917701363738,2.2501733324199225,0.09885213623940929
62864.746310004375,5.869579347927356,PPG_1,PPG_2,129652.0,129652.0,216.49102746212156,3.04056984892787,0.13377650545255493
62864.75636065395,5.87962999750016,PPG_1,PPG_2,129637.0,129637.0,201.53287791060575,3.8800251616596446,0.17086858097093982
62864.76641130351,5.889680647065688,PPG_1,PPG_2,129622.0,129622.0,186.57472835907538,4.801131831187357,0.21156849391261492
62864.77646195308,5.8997312966312165,PPG_1,PPG_2,129643.0,129643.0,207.61657880755956,5.845069471543864,0.2576958019483205
62864.78651260265,5.909781946204021,PPG_1,PPG_2,129629.0,129629.0,193.65842925604375,7.053404876943883,0.31108717064760544
62864.79656325222,5.919832595769549,PPG_1,PPG_2,129617.0,129617.0,181.70027970451338,8.458415450419833,0.3731688056138625
62864.80661390179,5.929883245342353,PPG_1,PPG_2,129643.0,129643.0,207.74213015299756,10.074141671156223,0.44456109783911646
62864.81666455136,5.939933894907881,PPG_1,PPG_2,129634.0,129634.0,198.78398060148174,11.890187389470169,0.5248046842538989
62864.82671520092,5.949984544473409,PPG_1,PPG_2,129623.0,129623.0,187.82583104995138,13.869482587366242,0.612261593323454
62864.836765850494,5.960035194046213,PPG_1,PPG_2,129636.0,129636.0,200.86768149843556,15.9502402879145,0.7042017128195558
62864.84681650006,5.970085843611741,PPG_1,PPG_2,129643.0,129643.0,207.90953194691974,18.052607574957452,0.7970966710093026
62864.85686714963,5.9801364931845455,PPG_1,PPG_2,129656.0,129656.0,220.95138239538937,20.09038426406673,0.8871376364968806
62864.8669177992,5.990187142750074,PPG_1,PPG_2,129674.0,129674.0,238.99323284387356,21.985988497136795,0.9708965862582375
62864.87696844876,6.000237792315602,PPG_1,PPG_2,129639.0,129639.0,204.03508329235774,23.68444274096315,1.0459442893593294
62864.887019098336,6.010288441888406,PPG_1,PPG_2,129674.0,129674.0,239.07693374084192,25.162176282252478,1.1112392529842339
62864.8970697479,6.020339091453934,PPG_1,PPG_2,129666.0,129666.0,231.11878418931155,26.428707069545847,1.1672020361081712
62864.90712039747,6.030389741019462,PPG_1,PPG_2,129632.0,129632.0,197.16063463779574,27.52117294039434,1.215473606932952
62864.91717104704,6.040440390592266,PPG_1,PPG_2,129641.0,129641.0,206.20248508627992,28.492959786264827,1.258412868294585
62864.927221696606,6.0504910401577945,PPG_1,PPG_2,129662.0,129662.0,227.24433553474955,29.399967442305847,1.298489803854318
62864.93727234618,6.060541689730599,PPG_1,PPG_2,129648.0,129648.0,213.28618598323374,30.289078260827285,1.3377759518179175
62864.947322995744,6.070592339296127,PPG_1,PPG_2,129661.0,129661.0,226.32803643171792,31.19080144447943,1.3776193882908614
62864.95737364531,6.080642988861655,PPG_1,PPG_2,129675.0,129675.0,240.36988688018755,32.11501226511336,1.4184564608948866
62864.96742429488,6.090693638434459,PPG_1,PPG_2,129639.0,129639.0,204.41173732867173,33.04789999625598,1.459676930464746
62864.97747494445,6.100744287999987,PPG_1,PPG_2,129658.0,129658.0,223.45358777715592,33.94904963133131,1.4994950241865013
62864.98752559402,6.110794937572791,PPG_1,PPG_2,129661.0,129661.0,226.49543822562555,34.749400815430086,1.5348592491923725
62864.997576243586,6.120845587138319,PPG_1,PPG_2,129639.0,129639.0,204.53728867410973,35.352125557932546,1.5614911750693414
62865.00762689315,6.1308962367038475,PPG_1,PPG_2,129657.0,129657.0,222.57913912259392,35.638020011536064,1.574123674384689
62865.01767754272,6.140946886276652,PPG_1,PPG_2,129667.0,129667.0,232.62098957106355,35.47616879490266,1.5669721352151147
62865.02772819229,6.15099753584218,PPG_1,PPG_2,129659.0,129659.0,224.66284001954773,34.739606470404745,1.5344264773940133
62865.03777884186,6.161048185414984,PPG_1,PPG_2,129689.0,129689.0,254.7046904680319,33.32358029034313,1.471858108107109
62865.04782949143,6.171098834980512,PPG_1,PPG_2,129638.0,129638.0,203.7465409165161,31.162323787478115,1.3763610778268511
62865.057880140994,6.18114948454604,PPG_1,PPG_2,129669.0,129669.0,234.78839136498573,28.240857199046037,1.2472734924854436
62865.06793079057,6.191200134118844,PPG_1,PPG_2,129675.0,129675.0,240.8302418134699,24.600503809017788,1.0864212579369192
62865.07798144013,6.201250783684372,PPG_1,PPG_2,129619.0,129619.0,184.8720922619541,20.338004324669452,0.8980789479025515
62865.088032089705,6.2113014332571765,PPG_1,PPG_2,129654.0,129654.0,219.91394271042373,15.59820939821799,0.6886469165756259
62865.09808273927,6.221352082822705,PPG_1,PPG_2,129633.0,129633.0,198.9557931589079,10.56162672562226,0.4661010561669706
62865.10813338883,6.231402732388233,PPG_1,PPG_2,129637.0,129637.0,202.9976436073921,5.429309752308569,0.23932509100101176
62865.11818403841,6.241453381961037,PPG_1,PPG_2,129617.0,129617.0,183.03949405586172,0.40651590418424877,0.017388501998286215
62865.128234687974,6.251504031526565,PPG_1,PPG_2,129630.0,129630.0,196.0813445043459,-4.314504433784118,-0.1912139575297841
62865.13828533754,6.261554681092093,PPG_1,PPG_2,129607.0,129607.0,173.1231949528301,-8.571768093408677,-0.37932491801747575
62865.14833598711,6.271605330664897,PPG_1,PPG_2,129570.0,129570.0,136.16504540129972,-12.249245189040943,-0.54181749633523
62865.15838663668,6.2816559802304255,PPG_1,PPG_2,129603.0,129603.0,169.2068958497839,-15.287878373114014,-0.6760821913426721
62865.16843728625,6.29170662980323,PPG_1,PPG_2,129623.0,129623.0,189.2487462982681,-17.68756703914764,-0.7821145576534828
62865.17848793582,6.301757279368758,PPG_1,PPG_2,129605.0,129605.0,171.29059674675227,-19.49838905353217,-0.8621273300896091
62865.18853858538,6.311807928934286,PPG_1,PPG_2,129596.0,129596.0,162.3324471952219,-20.804657191602672,-0.9198459432066038
62865.198589234955,6.32185857850709,PPG_1,PPG_2,129633.0,129633.0,199.3742976437061,-21.7071574070093,-0.9597237135149295
62865.20863988452,6.331909228072618,PPG_1,PPG_2,129623.0,129623.0,189.41614809219027,-22.307089270658093,-0.9862322335693574
62865.21869053409,6.341959877645422,PPG_1,PPG_2,129587.0,129587.0,153.4579985406599,-22.69470285040431,-1.0033592824471718
62865.22874118366,6.35201052721095,PPG_1,PPG_2,129575.0,129575.0,141.49984898914408,-22.94493121568109,-1.014415844101996
62865.238791833224,6.3620611767764785,PPG_1,PPG_2,129622.0,129622.0,188.54169943762827,-23.11813979159855,-1.0220692182374873
62865.2488424828,6.372111826349283,PPG_1,PPG_2,129589.0,129589.0,155.5835498860979,-23.2610867273682,-1.02838545503565
62865.25889313236,6.382162475914811,PPG_1,PPG_2,129600.0,129600.0,166.62540033458208,-23.40571383747766,-1.0347759318231855
62865.268943781935,6.392213125487615,PPG_1,PPG_2,129607.0,129607.0,173.66725078306627,-23.566892542349937,-1.0418977554657363
62865.2789944315,6.402263775053143,PPG_1,PPG_2,129616.0,129616.0,182.7091012315359,-23.740661896635626,-1.0495759080894547
62865.28904508107,6.412314424618671,PPG_1,PPG_2,129587.0,129587.0,153.75095168002008,-23.904244256059552,-1.0568039393344801
62865.29909573064,6.422365074191475,PPG_1,PPG_2,129619.0,129619.0,185.79280212850426,-24.01923372708875,-1.0618848508238055
62865.309146380205,6.432415723757003,PPG_1,PPG_2,129599.0,129599.0,165.83465257698845,-24.03839935553613,-1.0627317010693702
62865.31919702978,6.4424663733298075,PPG_1,PPG_2,129594.0,129594.0,160.87650302545808,-23.915549805886812,-1.0573034850537215
62865.32924767934,6.452517022895336,PPG_1,PPG_2,129595.0,129595.0,161.91835347394226,-23.617482212997327,-1.0441331048114886
62865.33929832891,6.462567672460864,PPG_1,PPG_2,129581.0,129581.0,147.96020392242644,-23.135959809208796,-1.0228566114779771
62865.34934897848,6.472618322033668,PPG_1,PPG_2,129587.0,129587.0,154.00205437089608,-22.496439495168453,-0.9945988407257357
62865.35939962805,6.482668971599196,PPG_1,PPG_2,129598.0,129598.0,165.04390481938026,-21.760293223203654,-0.9620715665538222
62865.36945027761,6.492719621164724,PPG_1,PPG_2,129605.0,129605.0,172.08575526786444,-21.018842676780874,-0.9293099183231808
62865.379500927185,6.502770270737528,PPG_1,PPG_2,129609.0,129609.0,176.12760571633407,-20.380242783230628,-0.9010928171644359
62865.38955157675,6.5128209203030565,PPG_1,PPG_2,129608.0,129608.0,175.16945616481826,-19.952591195154003,-0.8821966534736311
62865.39960222632,6.522871569875861,PPG_1,PPG_2,129595.0,129595.0,162.21130661330244,-19.82695706896834,-0.876645398480676
62865.40965287589,6.532922219441389,PPG_1,PPG_2,129640.0,129640.0,207.25315706177207,-20.06271863416915,-0.8870627317777914
62865.419703525455,6.542972869006917,PPG_1,PPG_2,129594.0,129594.0,161.29500751025626,-20.676844534733945,-0.9141984279084369
62865.42975417503,6.553023518579721,PPG_1,PPG_2,129605.0,129605.0,172.33685795874044,-21.639088101846784,-0.9567160110568251
62865.43980482459,6.563074168145249,PPG_1,PPG_2,129609.0,129609.0,176.37870840721007,-22.87423442712868,-1.0112920439662152
62865.449855474166,6.573124817718053,PPG_1,PPG_2,129600.0,129600.0,167.42055885569425,-24.270422529526442,-1.072983850244122
62865.45990612373,6.583175467283581,PPG_1,PPG_2,129581.0,129581.0,148.46240930417844,-25.691730131682395,-1.135785583837853
62865.4699567733,6.5932261168491095,PPG_1,PPG_2,129614.0,129614.0,181.50425975266262,-26.993342034335438,-1.1932984570743368
62865.48000742287,6.603276766421914,PPG_1,PPG_2,129580.0,129580.0,147.54611020113225,-28.037415823881307,-1.2394317809824027
62865.490058072435,6.613327415987442,PPG_1,PPG_2,129573.0,129573.0,140.58796064961643,-28.707953098983058,-1.269060063594646
62865.50010872201,6.623378065560246,PPG_1,PPG_2,129589.0,129589.0,156.62981109810062,-28.922843553156696,-1.278555188389854
62865.51015937157,6.633428715125774,PPG_1,PPG_2,129607.0,129607.0,174.67166154657025,-28.640503549886468,-1.266079745606509
62865.52021002114,6.643479364691302,PPG_1,PPG_2,129588.0,129588.0,155.71351199505443,-27.85996488368468,-1.2315909542287278
62865.53026067071,6.653530014264106,PPG_1,PPG_2,129594.0,129594.0,161.75536244353862,-26.616358208667904,-1.1766410932828495
62865.54031132028,6.663580663829634,PPG_1,PPG_2,129589.0,129589.0,156.79721289200825,-24.97425166884676,-1.1040831633245918
62865.55036196985,6.6736313134024385,PPG_1,PPG_2,129616.0,129616.0,183.83906334049243,-23.01938126945567,-1.0177054855815024
62865.560412619416,6.683681962967967,PPG_1,PPG_2,129595.0,129595.0,162.8809137889766,-20.84877606172534,-0.9217953745075391
62865.57046326898,6.693732612533495,PPG_1,PPG_2,129614.0,129614.0,181.92276423744624,-18.56057332956531,-0.8206891127978422
62865.580513918554,6.703783262106299,PPG_1,PPG_2,129587.0,129587.0,154.96461468593043,-16.245189746583804,-0.7183818411522578
62865.59056456812,6.713833911671827,PPG_1,PPG_2,129621.0,129621.0,189.0064651344146,-13.978151010429102,-0.6182107293262938
62865.600615217685,6.723884561237355,PPG_1,PPG_2,129609.0,129609.0,177.0483155828988,-11.813793951247975,-0.5225766982226665
62865.61066586726,6.733935210810159,PPG_1,PPG_2,129632.0,129632.0,200.09016603136843,-9.779843584612772,-0.4327048021781113
62865.62071651682,6.7439858603756875,PPG_1,PPG_2,129612.0,129612.0,180.1320164798526,-7.8745684633812045,-0.34851853566912555
62865.6307671664,6.754036509948492,PPG_1,PPG_2,129618.0,129618.0,186.1738669283368,-6.068591366782309,-0.2687198402108436
62865.64081781596,6.76408715951402,PPG_1,PPG_2,129612.0,129612.0,180.21571737680642,-4.311788199763893,-0.19109393832700378
62865.65086846553,6.774137809079548,PPG_1,PPG_2,129624.0,129624.0,192.2575678252906,-2.5436665678508157,-0.11296792006024559
62865.6609191151,6.784188458652352,PPG_1,PPG_2,129596.0,129596.0,164.2994182737748,-0.7048560733323169,-0.03171845187268528
62865.670969764666,6.79423910821788,PPG_1,PPG_2,129635.0,129635.0,203.34126872224442,1.2524812931898097,0.05476823099520104
62865.68102041424,6.804289757790684,PPG_1,PPG_2,129601.0,129601.0,169.3831191707286,3.3572659090718933,0.1477700009979104
62865.69107106381,6.814340407356212,PPG_1,PPG_2,129652.0,129652.0,220.4249696192128,5.616302354258666,0.24758752451917151
62865.70112171337,6.8243910569217405,PPG_1,PPG_2,129616.0,129616.0,184.46682006768242,8.014856279565683,0.35356975130726204
62865.71117236294,6.834441706494545,PPG_1,PPG_2,129635.0,129635.0,203.5086705161666,10.51934649762715,0.46423286689477977
62865.72122301251,6.844492356060073,PPG_1,PPG_2,129640.0,129640.0,208.5505209646508,13.080658391617964,0.5774066984938429
62865.73127366208,6.854543005632877,PPG_1,PPG_2,129614.0,129614.0,182.59237141312042,15.637720713985383,0.6903927590118428
62865.741324311646,6.864593655198405,PPG_1,PPG_2,129626.0,129626.0,194.6342218616046,18.122123753395115,0.8001683048428754
62865.75137496121,6.874644304763933,PPG_1,PPG_2,129679.0,129679.0,247.67607231008878,20.46529028756588,0.9037031907616747
62865.761425610784,6.884694954336737,PPG_1,PPG_2,129640.0,129640.0,208.71792275857297,22.608387662678673,0.9983978439198656
62865.77147626035,6.894745603902265,PPG_1,PPG_2,129625.0,129625.0,193.7597732070426,24.511939672202,1.082507973213875
62865.78152690992,6.9047962534750695,PPG_1,PPG_2,129667.0,129667.0,235.80162365552678,26.161933423022102,1.1554144065666145
62865.79157755949,6.914846903040598,PPG_1,PPG_2,129663.0,129663.0,231.84347410401097,27.572485743020117,1.2177409085048028
62865.801628209054,6.924897552606126,PPG_1,PPG_2,129645.0,129645.0,213.8853245524806,28.785620583013156,1.271344344466835
62865.81167885863,6.93494820217893,PPG_1,PPG_2,129631.0,129631.0,199.92717500096478,29.866838354882475,1.3191189080889145
62865.82172950819,6.944998851744458,PPG_1,PPG_2,129674.0,129674.0,242.96902544944896,30.896468086571883,1.364614008524357
62865.83178015776,6.955049501309986,PPG_1,PPG_2,129639.0,129639.0,208.0108758979186,31.959313334059775,1.4115767659055518
62865.84183080733,6.96510015088279,PPG_1,PPG_2,129639.0,129639.0,208.05272634640278,33.134490949331315,1.463503028318874
62865.851881456896,6.9751508004483185,PPG_1,PPG_2,129660.0,129660.0,229.09457679488696,34.48619257187195,1.5232291601345656
62865.86193210647,6.985201450021123,PPG_1,PPG_2,129677.0,129677.0,246.1364272433566,36.05647547843438,1.592613499326964
62865.871982756034,6.995252099586651,PPG_1,PPG_2,129651.0,129651.0,220.17827769184078,37.86007758786882,1.672307253876632
62865.8820334056,7.005302749152179,PPG_1,PPG_2,129648.0,129648.0,217.22012814032496,39.879196094162424,1.761523791052734
62865.89208405517,7.015353398724983,PPG_1,PPG_2,129652.0,129652.0,221.26197858880914,42.05745331391816,1.8577720130464914
62865.90213470474,7.025404048290511,PPG_1,PPG_2,129667.0,129667.0,236.30382903727877,44.29557128086974,1.956665235103861
62865.91218535431,7.035454697863315,PPG_1,PPG_2,129636.0,129636.0,205.34567948576296,46.45186631457594,2.051943038480757
62865.92223600388,7.045505347428843,PPG_1,PPG_2,129661.0,129661.0,230.38752993424714,48.34907267331026,2.1357727795817207
62865.93228665344,7.0555559969943715,PPG_1,PPG_2,129688.0,129688.0,257.4293803827168,49.788115268815396,2.1993581495437597
62865.942337303015,7.065606646567176,PPG_1,PPG_2,129668.0,129668.0,237.47123083120096,50.56803957731331,2.233819794982976
62865.95238795258,7.075657296132704,PPG_1,PPG_2,129678.0,129678.0,247.51308127968514,50.50841092579618,2.2311850502722237
62865.96243860215,7.085707945705508,PPG_1,PPG_2,129662.0,129662.0,231.55493172815477,49.46955313998832,2.1852822001030456
62865.97248925172,7.095758595271036,PPG_1,PPG_2,129687.0,129687.0,256.59678217663895,47.36819224694872,2.092431710322525
62865.98253990128,7.105809244836564,PPG_1,PPG_2,129647.0,129647.0,216.63863262512314,44.187960905376045,1.95191037547782
62865.99259055086,7.115859894409368,PPG_1,PPG_2,129689.0,129689.0,258.68048307359277,39.98431121598255,1.7661683956880758
62866.00264120042,7.125910543974896,PPG_1,PPG_2,129663.0,129663.0,232.72233352207695,34.882975884163955,1.54076138175584
62866.012691849995,7.1359611935477005,PPG_1,PPG_2,129626.0,129626.0,195.76418397056113,29.070850643830372,1.283947486999243
62866.02274249956,7.146011843113229,PPG_1,PPG_2,129640.0,129640.0,209.80603441904532,22.779288219588494,1.0059492361939872
62866.03279314913,7.156062492678757,PPG_1,PPG_2,129641.0,129641.0,210.84788486751495,16.26271141296331,0.7180085258706376
62866.0428437987,7.166113142251561,PPG_1,PPG_2,129639.0,129639.0,208.88973531599913,9.776410703911973,0.4314055916987745
62866.052894448265,7.176163791817089,PPG_1,PPG_2,129568.0,129568.0,137.93158576448332,3.5550415173724823,0.15650889118958397
62866.06294509783,7.186214441382617,PPG_1,PPG_2,129614.0,129614.0,183.97343621295295,-2.207077299134502,-0.09809542549793811
62866.0729957474,7.196265090955421,PPG_1,PPG_2,129621.0,129621.0,191.01528666143713,-7.369989188158495,-0.32622325407674757
62866.08304639697,7.206315740520949,PPG_1,PPG_2,129605.0,129605.0,175.0571371099213,-11.853127901284205,-0.5243147035971663
62866.09309704654,7.216366390093754,PPG_1,PPG_2,129586.0,129586.0,156.09898755839095,-15.632961432873953,-0.6913299915752746
62866.10314769611,7.226417039659282,PPG_1,PPG_2,129584.0,129584.0,154.14083800687513,-18.736744576062538,-0.8284733951534785
62866.11319834567,7.23646768922481,PPG_1,PPG_2,129588.0,129588.0,158.1826884553593,-21.23269403140138,-0.9387591295855165
62866.123248995245,7.246518338797614,PPG_1,PPG_2,129612.0,129612.0,182.22453890382894,-23.21487896644896,-1.0263437242471767
62866.13329964481,7.256568988363142,PPG_1,PPG_2,129615.0,129615.0,185.26638935231313,-24.783665356390767,-1.0956619385289759
62866.143350294384,7.266619637935946,PPG_1,PPG_2,129608.0,129608.0,178.3082398007973,-26.026736684676308,-1.1505881447060031
62866.15340094395,7.276670287501474,PPG_1,PPG_2,129572.0,129572.0,142.35009024926694,-27.006984816986765,-1.1939012754932674
62866.163451593515,7.286720937067003,PPG_1,PPG_2,129594.0,129594.0,164.39194069775112,-27.76009270142297,-1.2271780135153239
62866.17350224309,7.296771586639807,PPG_1,PPG_2,129572.0,129572.0,142.4337911462353,-28.29944592905689,-1.251009812953675
62866.18355289265,7.306822236205335,PPG_1,PPG_2,129609.0,129609.0,179.4756415947195,-28.62399418554218,-1.2653502647398907
62866.193603542226,7.316872885778139,PPG_1,PPG_2,129559.0,129559.0,129.51749204318912,-28.726560533830856,-1.2698822495622728
62866.20365419179,7.326923535343667,PPG_1,PPG_2,129594.0,129594.0,164.5593424916733,-28.60214787051297,-1.2643849659865538
62866.21370484136,7.336974184909195,PPG_1,PPG_2,129574.0,129574.0,144.6011929401575,-28.255589802022563,-1.2490719911885029
62866.22375549093,7.347024834481999,PPG_1,PPG_2,129581.0,129581.0,151.64304338862712,-27.707049036667264,-1.2248342322692587
62866.233806140495,7.357075484047527,PPG_1,PPG_2,129571.0,129571.0,141.6848938371113,-26.994078152490506,-1.1933309831061387
62866.24385679007,7.3671261336203315,PPG_1,PPG_2,129603.0,129603.0,173.7267442855955,-26.169517424916265,-1.156897038007681
62866.25390743963,7.37717678318586,PPG_1,PPG_2,129582.0,129582.0,152.76859473406512,-25.29533055519503,-1.118270317922533
62866.2639580892,7.387227432751388,PPG_1,PPG_2,129580.0,129580.0,150.8104451825493,-24.433912837725714,-1.0802078141243638
62866.27400873877,7.397278082324192,PPG_1,PPG_2,129631.0,129631.0,201.85229563103348,-23.63903710067004,-1.0450855265893018
62866.28405938834,7.40732873188972,PPG_1,PPG_2,129582.0,129582.0,152.89414607950312,-22.948580317024515,-1.014577082872603
62866.2941100379,7.417379381455248,PPG_1,PPG_2,129585.0,129585.0,155.9359965279873,-22.381656981366643,-0.9895270738245627
62866.30416068747,7.427430031028052,PPG_1,PPG_2,129559.0,129559.0,129.97784697647148,-21.94130485895835,-0.9700697257902804
62866.31421133704,7.4374806805935805,PPG_1,PPG_2,129615.0,129615.0,186.01969742495567,-21.619703246735067,-0.9558594740871836
62866.324261986614,7.447531330166385,PPG_1,PPG_2,129582.0,129582.0,153.0615478734253,-21.401506540546407,-0.9462182596222051
62866.33431263618,7.457581979731913,PPG_1,PPG_2,129602.0,129602.0,173.10339832190948,-21.2645131457732,-0.9401650852990696
62866.344363285745,7.467632629297441,PPG_1,PPG_2,129571.0,129571.0,142.14524877039366,-21.18011193472275,-0.9364357431332088
62866.35441393532,7.477683278870245,PPG_1,PPG_2,129613.0,129613.0,184.1870992188633,-21.115081636093176,-0.933562321866862
62866.36446458488,7.487733928435773,PPG_1,PPG_2,129571.0,129571.0,142.22894966734748,-21.034376499845063,-0.92999629403544
62866.374515234456,7.497784578008577,PPG_1,PPG_2,129582.0,129582.0,153.27080011583166,-20.904222683555886,-0.9242453325374493
62866.38456588402,7.507835227574105,PPG_1,PPG_2,129609.0,129609.0,180.3126505643013,-20.694826506301812,-0.9149929772277976
62866.39461653359,7.5178858771396335,PPG_1,PPG_2,129580.0,129580.0,151.35450101278548,-20.381983869628925,-0.9011697486069918
62866.40466718316,7.527936526712438,PPG_1,PPG_2,129575.0,129575.0,146.39635146126966,-19.94790134175802,-0.8819894281530027
62866.414717832726,7.537987176277966,PPG_1,PPG_2,129602.0,129602.0,173.4382019097393,-19.381710273432596,-0.8569717749847607
62866.4247684823,7.54803782585077,PPG_1,PPG_2,129601.0,129601.0,172.48005235822347,-18.67906664703597,-0.8259248448414489
62866.434819131864,7.558088475416298,PPG_1,PPG_2,129571.0,129571.0,142.52190280670766,-17.84082967885239,-0.788886602954591
62866.44486978143,7.568139124981826,PPG_1,PPG_2,129590.0,129590.0,161.56375325519184,-16.87194748657205,-0.7460756862810984
62866.454920431,7.57818977455463,PPG_1,PPG_2,129598.0,129598.0,169.60560370366147,-15.780353859405743,-0.6978426563149426
62866.46497108057,7.588240424120158,PPG_1,PPG_2,129605.0,129605.0,176.64745415214566,-14.574609288338683,-0.644565765922336
62866.47502173014,7.598291073692963,PPG_1,PPG_2,129604.0,129604.0,175.68930460062984,-13.260993561249279,-0.5865224930853614
62866.485072379706,7.608341723258491,PPG_1,PPG_2,129567.0,129567.0,138.73115504909947,-11.842558574311804,-0.5238476885359797
62866.49512302927,7.618392372824019,PPG_1,PPG_2,129606.0,129606.0,177.77300549758365,-10.320931973050277,-0.45661327123137463
62866.505173678845,7.628443022396823,PPG_1,PPG_2,129609.0,129609.0,180.81485594606784,-8.698769917010864,-0.38493660593055246
62866.51522432841,7.638493671962351,PPG_1,PPG_2,129601.0,129601.0,172.85670639453747,-6.981144508654956,-0.30904180796720826
62866.525274977976,7.648544321527879,PPG_1,PPG_2,129587.0,129587.0,158.89855684302165,-5.176893712289987,-0.22931939061173062
62866.53532562755,7.658594971100683,PPG_1,PPG_2,129607.0,129607.0,178.94040729150584,-3.301156898188197,-0.1464383003308605
62866.545376277114,7.6686456206662115,PPG_1,PPG_2,129587.0,129587.0,158.98225773997547,-1.3779142283389647,-0.0614581217933262
62866.55542692669,7.678696270239016,PPG_1,PPG_2,129620.0,129620.0,192.02410818845965,0.5595784202223323,0.024151704658166996
62866.56547757625,7.688746919804544,PPG_1,PPG_2,129612.0,129612.0,184.06595863694383,2.4710737560626943,0.10861281685162309
62866.57552822582,7.698797569370072,PPG_1,PPG_2,129599.0,129599.0,171.10780908541346,4.313048651382579,0.19000210688760732
62866.58557887539,7.708848218942876,PPG_1,PPG_2,129616.0,129616.0,188.14965953389765,6.042122929558627,0.26640278329084954
62866.59562952496,7.718898868508404,PPG_1,PPG_2,129620.0,129620.0,192.19150998238183,7.617651186329046,0.33601889292186987
62866.60568017453,7.728949518081208,PPG_1,PPG_2,129594.0,129594.0,166.23336043086601,9.00378327725247,0.39726636543791616
62866.615730824094,7.739000167646736,PPG_1,PPG_2,129613.0,129613.0,185.27521087933565,10.171240022934217,0.4488514743990547
62866.62578147366,7.749050817212264,PPG_1,PPG_2,129621.0,129621.0,193.31706132781983,11.099597109766151,0.48987175344254513
62866.63583212323,7.759101466785069,PPG_1,PPG_2,129623.0,129623.0,195.358911776304,11.780876657169653,0.5199746928583281
62866.6458827728,7.769152116350597,PPG_1,PPG_2,129598.0,129598.0,170.40076222477364,12.22354956255735,0.5395345867413629
62866.65593342237,7.779202765923401,PPG_1,PPG_2,129612.0,129612.0,184.44261267325783,12.455465700210956,0.5497820064209001
62866.66598407194,7.789253415488929,PPG_1,PPG_2,129653.0,129653.0,225.484463121742,12.525763068489047,0.5528881578185598
62866.6760347215,7.799304065054457,PPG_1,PPG_2,129597.0,129597.0,169.52631357021164,12.505728138219759,0.5520028967030686
62866.686085371075,7.809354714627261,PPG_1,PPG_2,129633.0,129633.0,205.56816401869582,12.486424180656382,0.551149934263157
62866.69613602064,7.819405364192789,PPG_1,PPG_2,129609.0,129609.0,181.61001446718,12.571038979726879,0.554888714004609
62866.70618667021,7.8294560137655935,PPG_1,PPG_2,129604.0,129604.0,176.65186491564964,12.862626607895018,0.5677727712738911
62866.71623731978,7.839506663331122,PPG_1,PPG_2,129601.0,129601.0,173.69371536413382,13.449877486758137,0.5937209707988237
62866.726287969344,7.84955731289665,PPG_1,PPG_2,129587.0,129587.0,159.735565812618,14.394486250500714,0.6354593445617438
62866.73633861892,7.859607962469454,PPG_1,PPG_2,129627.0,129627.0,199.7774162611022,15.724118035374904,0.6942103010786596
62866.74638926848,7.869658612034982,PPG_1,PPG_2,129629.0,129629.0,201.81926670957182,17.433297216234823,0.7697318950091325
62866.75643991805,7.87970926160051,PPG_1,PPG_2,129609.0,129609.0,181.861117158056,19.490658603692513,0.8606382277165331
62866.76649056762,7.889759911173314,PPG_1,PPG_2,129646.0,129646.0,218.9029676065402,21.848278486507056,0.9648117476296112
62866.77654121719,7.899810560738843,PPG_1,PPG_2,129609.0,129609.0,181.94481805500982,24.44955734043683,1.079751554705644
62866.78659186676,7.909861210311647,PPG_1,PPG_2,129640.0,129640.0,212.986668503494,27.234282322701173,1.2027970912261639
62866.796642516325,7.919911859877175,PPG_1,PPG_2,129643.0,129643.0,216.02851895197819,30.140639559734726,1.3312170565113184
62866.80669316589,7.929962509442703,PPG_1,PPG_2,129655.0,129655.0,228.07036940044782,33.10369507198001,1.4621422852381585
62866.81674381546,7.940013159015507,PPG_1,PPG_2,129595.0,129595.0,168.112219848932,36.04904098925656,1.5922849998465964
62866.82679446503,7.950063808581035,PPG_1,PPG_2,129632.0,129632.0,205.15407029741618,38.88174800483341,1.7174506649506873
62866.8368451146,7.960114458153839,PPG_1,PPG_2,129619.0,129619.0,192.19592074588581,41.47497539566916,1.8320347110081316
62866.84689576417,7.970165107719367,PPG_1,PPG_2,129638.0,129638.0,211.23777119437,43.66448889887398,1.9287803018426326
62866.85694641373,7.980215757284896,PPG_1,PPG_2,129605.0,129605.0,178.27962164285418,45.252588764678066,1.9989518991387998
62866.866997063305,7.9902664068577,PPG_1,PPG_2,129635.0,129635.0,208.32147209133836,46.022041939804886,2.0329508682879585
62866.87704771287,8.000317056423228,PPG_1,PPG_2,129669.0,129669.0,242.363322539808,45.7598134884964,2.0213640722173603
62866.88709836245,8.010367705996032,PPG_1,PPG_2,129635.0,129635.0,208.40517298829218,44.288320262828165,1.9563448424579344
62866.89714901201,8.02041835556156,PPG_1,PPG_2,129670.0,129670.0,243.44702343677636,41.49809665807901,1.8330563444392138
62866.907199661575,8.030469005127088,PPG_1,PPG_2,129636.0,129636.0,209.488873885246,37.37448864577267,1.6508510769510139
62866.91725031115,8.040519654699892,PPG_1,PPG_2,129659.0,129659.0,232.53072433373018,32.01316896465019,1.4139564245802336
62866.92730096071,8.05057030426542,PPG_1,PPG_2,129639.0,129639.0,212.57257478221436,25.62160883832657,1.1315396868572993
62866.937351610286,8.060620953838225,PPG_1,PPG_2,129630.0,129630.0,203.614425230684,18.504863374070975,0.817079993527992
62866.94740225985,8.070671603403753,PPG_1,PPG_2,129586.0,129586.0,159.65627567916817,11.0355861964723,0.4870433746189365
62866.95745290942,8.08072225296928,PPG_1,PPG_2,129576.0,129576.0,149.69812612765236,3.611574963656202,0.1590068715192889
62866.96750355899,8.090772902542085,PPG_1,PPG_2,129561.0,129561.0,134.739976576122,-3.3914653496338087,-0.15042865913872636
62866.977554208555,8.100823552107613,PPG_1,PPG_2,129559.0,129559.0,132.78182702460617,-9.662100586191341,-0.4275022236453762
62866.98760485812,8.110874201673141,PPG_1,PPG_2,129567.0,129567.0,140.82367747309036,-14.982339687019042,-0.6625816942387316
62866.997655507694,8.120924851245945,PPG_1,PPG_2,129555.0,129555.0,128.86552792156,-19.24016439180464,-0.8507174450031265
62867.00770615726,8.130975500811473,PPG_1,PPG_2,129593.0,129593.0,166.90737837004417,-22.426008431846167,-0.9914867818942906
62867.01775680683,8.141026150384278,PPG_1,PPG_2,129565.0,129565.0,138.94922881852835,-24.616976348716197,-1.0882966372830651
62867.0278074564,8.151076799949806,PPG_1,PPG_2,129567.0,129567.0,140.99107926701254,-25.954426774006244,-1.1473930673425954
62867.03785810596,8.161127449515334,PPG_1,PPG_2,129553.0,129553.0,127.03292971548217,-26.61982553526034,-1.1767943001752987
62867.047908755536,8.171178099088138,PPG_1,PPG_2,129583.0,129583.0,157.07478016396635,-26.810862410025905,-1.1852354334650999
62867.0579594051,8.181228748653666,PPG_1,PPG_2,129568.0,129568.0,142.11663061245054,-26.71818907644823,-1.181140580248414
62867.068010054674,8.19127939822647,PPG_1,PPG_2,129576.0,129576.0,150.15848106092017,-26.50441093865184,-1.1716946041362146
62867.07806070424,8.201330047791998,PPG_1,PPG_2,129577.0,129577.0,151.20033150940435,-26.288383984379976,-1.1621492620788954
62867.088111353805,8.211380697357527,PPG_1,PPG_2,129576.0,129576.0,150.24218195788853,-26.137384442432516,-1.155477213753976
62867.09816200338,8.22143134693033,PPG_1,PPG_2,129543.0,129543.0,117.28403240635816,-26.068233419659972,-1.1524217146464584
62867.10821265294,8.231481996495859,PPG_1,PPG_2,129553.0,129553.0,127.32588285484235,-26.05625978851401,-1.1518926491632107
62867.11826330252,8.241532646068663,PPG_1,PPG_2,129579.0,129579.0,153.36773330332653,-26.048390182815957,-1.1515449236745219
62867.12831395208,8.251583295634191,PPG_1,PPG_2,129570.0,129570.0,144.40958375179616,-25.976639301296053,-1.1483745475085934
62867.13836460165,8.26163394519972,PPG_1,PPG_2,129535.0,129535.0,109.45143420028035,-25.77143686640316,-1.1393074964146708
62867.14841525122,8.271684594772523,PPG_1,PPG_2,129568.0,129568.0,142.49328464876453,-25.37560791719081,-1.1218174441702355
62867.158465900786,8.281735244338051,PPG_1,PPG_2,129541.0,129541.0,115.53513509724871,-24.757384695452426,-1.094500704279322
62867.16851655036,8.291785893910856,PPG_1,PPG_2,129537.0,129537.0,111.57698554571834,-23.91888954742017,-1.0574510544874822
62867.17856719992,8.301836543476384,PPG_1,PPG_2,129593.0,129593.0,167.61883599420253,-22.8973040891697,-1.0123113973893587
62867.18861784949,8.311887193041912,PPG_1,PPG_2,129563.0,129563.0,137.6606864426867,-21.75834811413814,-0.9619856201892507
62867.19866849906,8.321937842614716,PPG_1,PPG_2,129568.0,129568.0,142.70253689115634,-20.585090894368726,-0.9101442121498419
62867.20871914863,8.331988492180244,PPG_1,PPG_2,129544.0,129544.0,118.74438733964053,-19.466502455484818,-0.8607183925501612
62867.21876979819,8.342039141745772,PPG_1,PPG_2,129587.0,129587.0,161.7862377881247,-18.487309134980595,-0.8174518695555706
62867.228820447766,8.352089791318576,PPG_1,PPG_2,129577.0,129577.0,151.82808823659434,-17.718102769519227,-0.7834638059097909
62867.23887109733,8.362140440884104,PPG_1,PPG_2,129576.0,129576.0,150.86993868507852,-17.206255592752765,-0.7608473856590086
62867.248921746905,8.372191090456909,PPG_1,PPG_2,129562.0,129562.0,136.9117891335627,-16.97058953132858,-0.7504342722807397
62867.25897239647,8.382241740022437,PPG_1,PPG_2,129569.0,129569.0,143.95363958203234,-17.00166472586702,-0.7518073572384336
62867.26902304603,8.392292389587965,PPG_1,PPG_2,129546.0,129546.0,120.99549003051652,-17.266459019830265,-0.7635075273363032
62867.27907369561,8.402343039160769,PPG_1,PPG_2,129571.0,129571.0,146.0373404790007,-17.714468838152126,-0.7833032374380059
62867.289124345174,8.412393688726297,PPG_1,PPG_2,129577.0,129577.0,152.07919092747034,-18.282728395442106,-0.8084122886207921
62867.29917499475,8.422444338299101,PPG_1,PPG_2,129560.0,129560.0,135.12104137595452,-18.899413682972703,-0.835661073528382
62867.30922564431,8.43249498786463,PPG_1,PPG_2,129568.0,129568.0,143.1628918244387,-19.487820679234957,-0.8616603571232185
62867.31927629388,8.442545637430158,PPG_1,PPG_2,129569.0,129569.0,144.20474227292289,-19.972377264798126,-0.8830709184622741
62867.32932694345,8.452596287002962,PPG_1,PPG_2,129555.0,129555.0,130.24659272139252,-20.28680791501505,-0.8969643148661725
62867.339377593016,8.46264693656849,PPG_1,PPG_2,129538.0,129538.0,113.2884431698767,-20.383489588533408,-0.9012362801286433
62867.34942824259,8.472697586141294,PPG_1,PPG_2,129533.0,129533.0,108.33029361836088,-20.24158823560873,-0.8949662433333376
62867.359478892155,8.482748235706822,PPG_1,PPG_2,129571.0,129571.0,146.37214406683051,-19.869744409324042,-0.8785359949610769
62867.36952954172,8.49279888527235,PPG_1,PPG_2,129569.0,129569.0,144.4139945153147,-19.30008066865288,-0.8533648986935476
62867.37958019129,8.502849534845154,PPG_1,PPG_2,129549.0,129549.0,124.45584496379888,-18.574821066925757,-0.8213186616756972
62867.38963084086,8.512900184410682,PPG_1,PPG_2,129599.0,129599.0,174.4976954122685,-17.73027010135105,-0.7840014302291779
62867.39968149043,8.522950833983487,PPG_1,PPG_2,129575.0,129575.0,150.5395458607527,-16.7828541114276,-0.7421390166943737
62867.40973214,8.533001483549015,PPG_1,PPG_2,129564.0,129564.0,139.58139630923688,-15.721118319003423,-0.6952252815665177
62867.41978278956,8.543052133114543,PPG_1,PPG_2,129546.0,129546.0,121.62324675770651,-14.50626358149573,-0.6415458504114955
62867.429833439135,8.553102782687347,PPG_1,PPG_2,129587.0,129587.0,162.6650972061907,-13.080131931643784,-0.578530962003291
62867.4398840887,8.563153432252875,PPG_1,PPG_2,129575.0,129575.0,150.70694765467488,-11.376910814284775,-0.5032726303787052
62867.44993473827,8.57320408182568,PPG_1,PPG_2,129551.0,129551.0,126.74879810315906,-9.336563572731233,-0.41311808275764084
62867.45998538784,8.583254731391207,PPG_1,PPG_2,129558.0,129558.0,133.7906485516287,-6.91986751828414,-0.306334229946197
62867.470036037404,8.593305380956735,PPG_1,PPG_2,129551.0,129551.0,126.83249900011288,-4.122873193628501,-0.18274656167948816
62867.48008668698,8.60335603052954,PPG_1,PPG_2,129552.0,129552.0,127.87434944859706,-0.9858683712560755,-0.04413522882089839
62867.49013733654,8.613406680095068,PPG_1,PPG_2,129597.0,129597.0,172.9161998970667,2.407438649661085,0.1058010433879615
62867.50018798611,8.623457329660596,PPG_1,PPG_2,129612.0,129612.0,187.95805034555087,5.940917227071593,0.26193091980674804
62867.51023863568,8.6335079792334,PPG_1,PPG_2,129558.0,129558.0,133.99990079403506,9.48262674519923,0.41842448762165374
62867.52028928525,8.643558628798928,PPG_1,PPG_2,129599.0,129599.0,175.0417512425047,12.90078494727034,0.5694588312514731
62867.53033993482,8.653609278371732,PPG_1,PPG_2,129579.0,129579.0,155.08360169098887,16.076666598454228,0.7097879711789078
62867.540390584385,8.66365992793726,PPG_1,PPG_2,129606.0,129606.0,182.12545213947305,18.91606897157183,0.8352494765781967
62867.55044123395,8.673710577502789,PPG_1,PPG_2,129629.0,129629.0,205.1673025879427,21.36019847154682,0.9432455004460591
62867.56049188352,8.683761227075593,PPG_1,PPG_2,129603.0,129603.0,179.20915303642687,23.3933441277976,1.0330818396504862
62867.57054253309,8.69381187664112,PPG_1,PPG_2,129584.0,129584.0,160.25100348491105,25.043145233391453,1.1059797608035031
62867.58059318266,8.703862526213925,PPG_1,PPG_2,129585.0,129585.0,161.29285393339524,26.37218176610622,1.164704415577235
62867.59064383223,8.713913175779453,PPG_1,PPG_2,129595.0,129595.0,171.33470438186487,27.464884683422465,1.2129864605098686
62867.60069448179,8.723963825344981,PPG_1,PPG_2,129603.0,129603.0,179.37655483034905,28.415687296559828,1.2549985149869574
62867.610745131366,8.734014474917785,PPG_1,PPG_2,129646.0,129646.0,222.41840527883323,29.320941437915447,1.2949979699492755
62867.62079578093,8.744065124483313,PPG_1,PPG_2,129583.0,129583.0,159.46025572730287,30.27207091597432,1.3370244672420435
62867.630846430504,8.754115774056118,PPG_1,PPG_2,129581.0,129581.0,157.50210617578705,31.345807699691143,1.3844684767854292
62867.64089708007,8.764166423621646,PPG_1,PPG_2,129603.0,129603.0,179.54395662427123,32.59141891285943,1.4395069100226108
62867.650947729635,8.774217073187174,PPG_1,PPG_2,129578.0,129578.0,154.58580707274086,34.02007391657124,1.5026332950531014
62867.66099837921,8.784267722759978,PPG_1,PPG_2,129613.0,129613.0,189.62765752122505,35.60167100567041,1.5725175614086457
62867.67104902877,8.794318372325506,PPG_1,PPG_2,129627.0,129627.0,203.66950796970923,37.27045808652502,1.6462543946722672
62867.681099678346,8.80436902189831,PPG_1,PPG_2,129612.0,129612.0,188.71135841817886,38.93675136479563,1.719881037062866
62867.69115032791,8.814419671463838,PPG_1,PPG_2,129607.0,129607.0,183.75320886666304,40.49991366595159,1.7889507460069745
62867.70120097748,8.824470321029366,PPG_1,PPG_2,129630.0,129630.0,206.79505931514723,41.85881956205975,1.8489952050226597
62867.71125162705,8.83452097060217,PPG_1,PPG_2,129598.0,129598.0,174.83690976361686,42.9189273401083,1.895837004895297
62867.721302276615,8.844571620167699,PPG_1,PPG_2,129604.0,129604.0,180.87876021210104,43.59670752294608,1.925785321792443
62867.73135292618,8.854622269733227,PPG_1,PPG_2,129612.0,129612.0,188.92061066058523,43.8229039003834,1.935780008807511
62867.741403575754,8.864672919306031,PPG_1,PPG_2,129637.0,129637.0,213.9624611090694,43.54642849674021,1.9235636985461142
62867.75145422532,8.874723568871559,PPG_1,PPG_2,129627.0,129627.0,204.00431155753904,42.738633152802706,1.887870546753169
62867.76150487489,8.884774218444363,PPG_1,PPG_2,129581.0,129581.0,158.04616200602322,41.39469914496121,1.8284876338636646
62867.77155552446,8.894824868009891,PPG_1,PPG_2,129617.0,129617.0,194.0880124545074,39.529759625670614,1.7460836316045831
62867.78160617402,8.90487551757542,PPG_1,PPG_2,129583.0,129583.0,160.12986290297704,37.17177174955942,1.6418938515821904
62867.7916568236,8.914926167148224,PPG_1,PPG_2,129593.0,129593.0,170.17171335146122,34.355501258601166,1.517454448857009
62867.80170747316,8.924976816713752,PPG_1,PPG_2,129602.0,129602.0,179.2135637999454,31.120594180093292,1.3745172182133676
62867.811758122734,8.935027466286556,PPG_1,PPG_2,129625.0,129625.0,202.25541424841504,27.514076638957885,1.2151600505770743
62867.8218087723,8.945078115852084,PPG_1,PPG_2,129576.0,129576.0,153.29726469689922,23.59468181475212,1.0419781234382575
62867.831859421865,8.955128765417612,PPG_1,PPG_2,129613.0,129613.0,190.3391151453834,19.434638438432472,0.858162927162873
62867.84191007144,8.965179414990416,PPG_1,PPG_2,129553.0,129553.0,130.38096559385303,15.11622684697739,0.6673500912199295
62867.85196072101,8.975230064555944,PPG_1,PPG_2,129575.0,129575.0,152.42281604233722,10.7239853922003,0.4732750174612047
62867.86201137058,8.985280714128749,PPG_1,PPG_2,129578.0,129578.0,155.4646664908214,6.335790592715943,0.2793787487459866
62867.87206202014,8.995331363694277,PPG_1,PPG_2,129552.0,129552.0,129.50651693930558,2.0158514295279297,0.08849841569483687
62867.88211266971,9.005382013259805,PPG_1,PPG_2,129568.0,129568.0,145.54836738777522,-2.1893065295786283,-0.0973102083262923
62867.89216331928,9.015432662832607,PPG_1,PPG_2,129542.0,129542.0,119.5902178362594,-6.252060308058354,-0.2768265776653287
62867.902213968846,9.025483312398135,PPG_1,PPG_2,129539.0,129539.0,116.63206828474358,-10.161826829149952,-0.44958306971450124
62867.91226461842,9.03553396197094,PPG_1,PPG_2,129562.0,129562.0,139.6739187332132,-13.919140032167594,-0.6156032770546933
62867.922315267984,9.04558461153647,PPG_1,PPG_2,129576.0,129576.0,153.7157691816974,-17.525601843313073,-0.7749579822120866
62867.93236591755,9.055635261101996,PPG_1,PPG_2,129546.0,129546.0,123.75761963018158,-20.97275175990916,-0.9272733503922996
62867.94241656712,9.065685910674802,PPG_1,PPG_2,129547.0,129547.0,124.79947007865121,-24.235341552995283,-1.0714337662658362
62867.95246721669,9.07573656024033,PPG_1,PPG_2,129514.0,129514.0,91.8413205271354,-27.27243595297895,-1.2056304687371837
62867.96251786625,9.085787209805858,PPG_1,PPG_2,129539.0,129539.0,116.88317097561958,-30.034792225708266,-1.3276876240410524
62867.97256851583,9.095837859378662,PPG_1,PPG_2,129529.0,129529.0,106.92502142408921,-32.47424124540928,-1.4354768367479736
62867.98261916539,9.10588850894419,PPG_1,PPG_2,129497.0,129497.0,74.96687187257339,-34.551845731834504,-1.5272776286889291
62867.992669814965,9.115939158516994,PPG_1,PPG_2,129558.0,129558.0,136.00872232105758,-36.24348995660137,-1.602024425074196
62868.00272046453,9.125989808082522,PPG_1,PPG_2,129518.0,129518.0,96.05057276954176,-37.5425888507338,-1.659426258806359
62868.012771114096,9.13604045764805,PPG_1,PPG_2,129497.0,129497.0,75.09242321801139,-38.46091273924264,-1.7000032121072555
62868.02282176367,9.146091107220856,PPG_1,PPG_2,129508.0,129508.0,86.13427366649557,-39.02848822648171,-1.7250820370497604
62868.032872413234,9.156141756786385,PPG_1,PPG_2,129534.0,129534.0,112.17612411497976,-39.290789865604665,-1.736672066988678
62868.04292306281,9.166192406359189,PPG_1,PPG_2,129537.0,129537.0,115.21797456344939,-39.30093015407422,-1.737120124604118
62868.05297371237,9.176243055924717,PPG_1,PPG_2,129538.0,129538.0,116.25982501193357,-39.10890968299292,-1.7286355302410834
62868.06302436194,9.186293705490243,PPG_1,PPG_2,129516.0,129516.0,94.30167546041775,-38.75353247281691,-1.7129328738668381
62868.07307501151,9.196344355063047,PPG_1,PPG_2,129510.0,129510.0,88.34352590888739,-38.26079043354561,-1.6911606310153906
62868.08312566107,9.206395004628575,PPG_1,PPG_2,129494.0,129494.0,72.38537635737157,-37.64756156151115,-1.6640645708838084
62868.09317631065,9.21644565420138,PPG_1,PPG_2,129537.0,129537.0,115.42722680585575,-36.925867240648,-1.6321758689545391
62868.103226960215,9.226496303766908,PPG_1,PPG_2,129520.0,129520.0,98.46907725432538,-36.103555061432075,-1.595841277954207
62868.11327760978,9.236546953332436,PPG_1,PPG_2,129530.0,129530.0,108.51092770280957,-35.181300908500546,-1.555090662443348
62868.12332825935,9.24659760290524,PPG_1,PPG_2,129540.0,129540.0,118.55277815129375,-34.1491179472807,-1.5094827453026893
62868.13337890892,9.256648252470768,PPG_1,PPG_2,129535.0,129535.0,113.59462859976338,-32.985807828130234,-1.4580808587026604
62868.14342955849,9.266698902043572,PPG_1,PPG_2,129510.0,129510.0,88.63647904824757,-31.663489621021288,-1.3996530590883978
62868.15348020806,9.2767495516091,PPG_1,PPG_2,129506.0,129506.0,84.67832949673175,-30.157103802895374,-1.3330920692676047
62868.16353085762,9.286800201174628,PPG_1,PPG_2,129527.0,129527.0,105.72017994521593,-28.455452207406726,-1.2579030883551534
62868.173581507195,9.296850850747433,PPG_1,PPG_2,129532.0,129532.0,110.76203039368556,-26.568876784056105,-1.174543084537524
62868.18363215676,9.30690150031296,PPG_1,PPG_2,129528.0,129528.0,106.80388084216975,-24.53133868234923,-1.0845126612453593
62868.193682806326,9.316952149878489,PPG_1,PPG_2,129503.0,129503.0,81.84573129065393,-22.397995155654222,-0.9902489905071021
62868.2037334559,9.327002799451291,PPG_1,PPG_2,129561.0,129561.0,139.88758173912356,-20.23937158943789,-0.8948682988615839
62868.213784105465,9.33705344901682,PPG_1,PPG_2,129541.0,129541.0,119.92943218760774,-18.132092301234128,-0.8017562995557229
62868.22383475504,9.347104098589623,PPG_1,PPG_2,129547.0,129547.0,125.97128263609193,-16.147788875808082,-0.714078097522817
62868.2338854046,9.357154748155152,PPG_1,PPG_2,129524.0,129524.0,103.01313308456156,-14.343881642875145,-0.6343708608214766
62868.24393605417,9.367205397720682,PPG_1,PPG_2,129566.0,129566.0,145.05498353304574,-12.758401185026921,-0.5643150043827903
62868.25398670374,9.377256047293486,PPG_1,PPG_2,129515.0,129515.0,94.09683398152993,-11.408189139311542,-0.5046546908367014
62868.26403735331,9.387306696859014,PPG_1,PPG_2,129546.0,129546.0,125.13868442999956,-10.289079672433166,-0.45520584915421913
62868.27408800288,9.397357346431818,PPG_1,PPG_2,129547.0,129547.0,126.18053487848374,-9.376768335378802,-0.4148945657576345
62868.284138652445,9.407407995997346,PPG_1,PPG_2,129550.0,129550.0,129.22238532696792,-8.62734394567096,-0.3817805862083207
62868.29418930201,9.417458645562874,PPG_1,PPG_2,129565.0,129565.0,144.2642357754521,-7.978166239846438,-0.35309609505782047
62868.30423995158,9.427509295135678,PPG_1,PPG_2,129542.0,129542.0,121.30608622392174,-7.351604681252847,-0.32541091837743147
62868.31429060115,9.437559944701206,PPG_1,PPG_2,129528.0,129528.0,107.34793667240592,-6.6636601982047825,-0.2950134828848427
62868.32434125072,9.44761059427401,PPG_1,PPG_2,129542.0,129542.0,121.3897871208901,-5.8365598113907255,-0.25846732069646305
62868.33439190029,9.45766124383954,PPG_1,PPG_2,129520.0,129520.0,99.43163756935974,-4.811357888545926,-0.21316786691135947
62868.34444254985,9.467711893405069,PPG_1,PPG_2,129551.0,129551.0,130.47348801784392,-3.5560324850551424,-0.1577002035822634
62868.354493199426,9.477762542977873,PPG_1,PPG_2,129571.0,129571.0,150.5153384663281,-2.0668497334526603,-0.09189934647247591
62868.36454384899,9.4878131925434,PPG_1,PPG_2,129535.0,129535.0,114.55718891479773,-0.3643729259425859,-0.016673902836931417
62868.37459449856,9.497863842116203,PPG_1,PPG_2,129547.0,129547.0,126.59903936328192,1.5122471034559144,0.0662462130930563
62868.38464514813,9.507914491681731,PPG_1,PPG_2,129554.0,129554.0,133.6408898117661,3.510567583912644,0.15454377110103074
62868.394695797695,9.51796514124726,PPG_1,PPG_2,129577.0,129577.0,156.68274026023573,5.570305856462988,0.24555512857868186
62868.40474644727,9.528015790820064,PPG_1,PPG_2,129549.0,129549.0,128.72459070871992,7.628955605955895,0.33651838870220635
62868.41479709683,9.538066440385592,PPG_1,PPG_2,129540.0,129540.0,119.7664411572041,9.625701163108896,0.42474635733093513
62868.4248477464,9.54811708995112,PPG_1,PPG_2,129557.0,129557.0,136.80829160568828,11.503168915910976,0.5077039306693487
62868.43489839597,9.558167739523924,PPG_1,PPG_2,129566.0,129566.0,145.8501420541579,13.209501362730737,0.5830997391382292
62868.44494904554,9.568218389089452,PPG_1,PPG_2,129562.0,129562.0,141.8919925026421,14.702882991496837,0.6490861273495335
62868.45499969511,9.578269038662256,PPG_1,PPG_2,129574.0,129574.0,153.93384295112628,15.957576454531749,0.7045258678306152
62868.465050344676,9.588319688227784,PPG_1,PPG_2,129566.0,129566.0,145.9756933995959,16.9688434500922,0.7492095945277667
62868.47510099424,9.598370337793313,PPG_1,PPG_2,129541.0,129541.0,121.0175438480801,17.754934801798907,0.7839437362261121
62868.485151643814,9.608420987366117,PPG_1,PPG_2,129586.0,129586.0,166.05939429656428,18.356322655230237,0.8105165904769516
62868.49520229338,9.618471636931645,PPG_1,PPG_2,129575.0,129575.0,155.1012447450339,18.83353263181072,0.8316025353997943
62868.50525294295,9.628522286504449,PPG_1,PPG_2,129578.0,129578.0,158.1430951935181,19.263408178009584,0.8505969666473931
62868.51530359252,9.638572936069975,PPG_1,PPG_2,129541.0,129541.0,121.18494564200228,19.731513466949952,0.8712806128934671
62868.52535424208,9.648623585635503,PPG_1,PPG_2,129541.0,129541.0,121.22679609047191,20.32011418538184,0.8972884562737224
62868.535404891656,9.65867423520831,PPG_1,PPG_2,129571.0,129571.0,151.2686465389561,21.09573348141587,0.9315598809292993
62868.54545554122,9.668724884773836,PPG_1,PPG_2,129565.0,129565.0,145.31049698744027,22.101674404642726,0.9760082704093079
62868.555506190794,9.678775534346642,PPG_1,PPG_2,129568.0,129568.0,148.3523474359099,23.357159992360714,1.0314830116201712
62868.56555684036,9.68882618391217,PPG_1,PPG_2,129579.0,129579.0,159.3941978843941,24.860603397596577,1.0979139883247582
62868.575607489925,9.698876833477698,PPG_1,PPG_2,129556.0,129556.0,136.43604833287827,26.593897118536763,1.1745011045387672
62868.5856581395,9.708927483050502,PPG_1,PPG_2,129577.0,129577.0,157.47789878136246,28.526271462398014,1.2598847741697832
62868.595708789064,9.71897813261603,PPG_1,PPG_2,129586.0,129586.0,166.5197492298321,30.61772356500635,1.3522974352804535
62868.60575943864,9.729028782188834,PPG_1,PPG_2,129547.0,129547.0,127.56159967831627,32.8221957488221,1.4497039886491847
