timestamp,PPG_1,PPG_2,PPG_3,time_from_segment_start_sec
63856.46174539584,169069.0,95582.0,5281.0,0.0
63856.471834363394,169104.0,95603.0,5287.0,0.01008896755229216
63856.48192333094,169096.0,95635.0,5280.0,0.020177935097308364
63856.492012298484,169107.0,95588.0,5339.0,0.030266902642324567
63856.502101266036,169123.0,95583.0,5322.0,0.04035587019461673
63856.51219023358,169147.0,95613.0,5328.0,0.05044483773963293
63856.52227920113,169135.0,95641.0,5322.0,0.060533805284649134
63856.53236816868,169136.0,95614.0,5312.0,0.0706227728369413
63856.542457136224,169153.0,95633.0,5344.0,0.0807117403819575
63856.55254610377,169188.0,95626.0,5351.0,0.0908007079269737
63856.56263507132,169218.0,95622.0,5377.0,0.10088967547926586
63856.572724038866,169205.0,95634.0,5328.0,0.11097864302428206
63856.58281300641,169240.0,95638.0,5359.0,0.12106761056929827
63856.592901973956,169238.0,95632.0,5359.0,0.13115657811431447
63856.60299094151,169247.0,95650.0,5383.0,0.14124554566660663
63856.61307990905,169217.0,95658.0,5376.0,0.15133451321162283
63856.6231688766,169250.0,95613.0,5375.0,0.16142348075663904
63856.63325784415,169271.0,95641.0,5381.0,0.1715124483089312
63856.643346811696,169262.0,95636.0,5381.0,0.1816014158539474
63856.65343577924,169303.0,95638.0,5409.0,0.1916903833989636
63856.66352474679,169280.0,95639.0,5395.0,0.20177935095125576
63856.67361371434,169307.0,95673.0,5394.0,0.21186831849627197
63856.68370268188,169291.0,95668.0,5414.0,0.22195728604128817
63856.693791649435,169354.0,95688.0,5426.0,0.23204625359358033
63856.70388061698,169369.0,95703.0,5421.0,0.24213522113859653
63856.713969584525,169369.0,95675.0,5408.0,0.25222418868361274
63856.72405855208,169364.0,95656.0,5439.0,0.2623131562359049
63856.73414751962,169388.0,95660.0,5438.0,0.2724021237809211
63856.74423648717,169369.0,95716.0,5433.0,0.2824910913259373
63856.75432545471,169414.0,95689.0,5452.0,0.2925800588709535
63856.764414422265,169426.0,95691.0,5465.0,0.30266902642324567
63856.77450338981,169369.0,95651.0,5445.0,0.31275799396826187
63856.784592357355,169369.0,95671.0,5440.0,0.3228469615132781
63856.79468132491,169292.0,95667.0,5422.0,0.33293592906557024
63856.80477029245,169216.0,95658.0,5402.0,0.34302489661058644
63856.81485926,169166.0,95631.0,5378.0,0.35311386415560264
63856.82494822755,169107.0,95614.0,5331.0,0.3632028317078948
63856.835037195095,169089.0,95611.0,5333.0,0.373291799252911
63856.84512616264,169073.0,95574.0,5308.0,0.3833807667979272
63856.85521513019,169043.0,95566.0,5283.0,0.39346973435021937
63856.86530409774,169008.0,95591.0,5289.0,0.40355870189523557
63856.87539306528,169015.0,95588.0,5264.0,0.4136476694402518
63856.885482032834,168988.0,95557.0,5272.0,0.42373663699254394
63856.89557100038,169026.0,95600.0,5277.0,0.43382560453756014
63856.905659967924,168975.0,95554.0,5249.0,0.44391457208257634
63856.91574893548,168996.0,95571.0,5238.0,0.4540035396348685
63856.92583790302,168985.0,95542.0,5253.0,0.4640925071798847
63856.93592687057,169003.0,95552.0,5258.0,0.4741814747249009
63856.94601583811,168963.0,95554.0,5229.0,0.4842704422699171
63856.956104805664,169042.0,95565.0,5272.0,0.4943594098222093
63856.96619377321,169010.0,95583.0,5255.0,0.5044483773672255
63856.976282740754,169008.0,95569.0,5259.0,0.5145373449122417
63856.986371708306,169033.0,95561.0,5248.0,0.5246263124645338
63856.99646067585,169050.0,95592.0,5275.0,0.53471528000955
63857.006549643396,169048.0,95579.0,5255.0,0.5448042475545662
63857.01663861095,169009.0,95582.0,5258.0,0.5548932151068584
63857.02672757849,169072.0,95577.0,5288.0,0.5649821826518746
63857.03681654604,169085.0,95574.0,5299.0,0.5750711501968908
63857.04690551359,169067.0,95589.0,5275.0,0.585160117749183
63857.056994481136,169050.0,95562.0,5259.0,0.5952490852941992
63857.06708344868,169078.0,95599.0,5290.0,0.6053380528392154
63857.07717241623,169053.0,95573.0,5291.0,0.6154270203915075
63857.08726138378,169072.0,95573.0,5282.0,0.6255159879365237
63857.09735035132,169046.0,95567.0,5275.0,0.63560495548154
63857.107439318876,169061.0,95567.0,5281.0,0.6456939230338321
63857.11752828642,169035.0,95563.0,5267.0,0.6557828905788483
63857.127617253966,169059.0,95580.0,5283.0,0.6658718581238645
63857.13770622151,169080.0,95605.0,5285.0,0.6759608256688807
63857.14779518906,169038.0,95573.0,5266.0,0.6860497932211729
63857.15788415661,169053.0,95595.0,5270.0,0.6961387607661891
63857.16797312415,169067.0,95586.0,5287.0,0.7062277283112053
63857.178062091705,169085.0,95569.0,5294.0,0.7163166958634974
63857.18815105925,169064.0,95562.0,5280.0,0.7264056634085136
63857.198240026795,169135.0,95633.0,5291.0,0.7364946309535298
63857.20832899435,169138.0,95604.0,5330.0,0.746583598505822
63857.21841796189,169106.0,95569.0,5314.0,0.7566725660508382
63857.22850692944,169144.0,95614.0,5316.0,0.7667615335958544
63857.23859589699,169152.0,95594.0,5353.0,0.7768505011481466
63857.248684864535,169172.0,95609.0,5324.0,0.7869394686931628
63857.25877383208,169170.0,95586.0,5334.0,0.797028436238179
63857.26886279963,169199.0,95618.0,5324.0,0.8071174037904711
63857.27895176718,169210.0,95623.0,5375.0,0.8172063713354873
63857.28904073472,169221.0,95620.0,5362.0,0.8272953388805036
63857.29912970227,169199.0,95600.0,5354.0,0.8373843064255198
63857.30921866982,169252.0,95648.0,5380.0,0.8474732739778119
63857.319307637365,169219.0,95614.0,5350.0,0.8575622415228281
63857.32939660491,169264.0,95633.0,5378.0,0.8676512090678443
63857.33948557246,169300.0,95658.0,5392.0,0.8777401766201365
63857.34957454001,169250.0,95647.0,5414.0,0.8878291441651527
63857.35966350755,169245.0,95614.0,5374.0,0.8979181117101689
63857.369752475104,169291.0,95653.0,5390.0,0.908007079262461
63857.37984144265,169275.0,95660.0,5396.0,0.9180960468074773
63857.389930410194,169287.0,95649.0,5404.0,0.9281850143524935
63857.40001937775,169319.0,95636.0,5388.0,0.9382739819047856
63857.41010834529,169320.0,95630.0,5396.0,0.9483629494498018
63857.42019731284,169332.0,95633.0,5453.0,0.958451916994818
63857.43028628039,169307.0,95616.0,5401.0,0.9685408845471102
63857.440375247934,169335.0,95656.0,5448.0,0.9786298520921264
63857.45046421548,169325.0,95663.0,5412.0,0.9887188196371426
63857.46055318303,169362.0,95663.0,5437.0,0.9988077871894347
63857.470642150576,169364.0,95667.0,5416.0,1.008896754734451
63857.48073111812,169400.0,95688.0,5454.0,1.0189857222794672
63857.490820085666,169375.0,95652.0,5435.0,1.0290746898244834
63857.50090905322,169418.0,95680.0,5461.0,1.0391636573767755
63857.51099802076,169415.0,95681.0,5453.0,1.0492526249217917
63857.52108698831,169420.0,95695.0,5444.0,1.059341592466808
63857.53117595586,169457.0,95696.0,5458.0,1.0694305600191
63857.541264923406,169467.0,95692.0,5470.0,1.0795195275641163
63857.55135389095,169462.0,95710.0,5486.0,1.0896084951091325
63857.5614428585,169433.0,95647.0,5483.0,1.0996974626614247
63857.57153182605,169402.0,95671.0,5454.0,1.1097864302064409
63857.58162079359,169399.0,95665.0,5467.0,1.119875397751457
63857.591709761145,169407.0,95620.0,5493.0,1.1299643653037492
63857.60179872869,169286.0,95613.0,5457.0,1.1400533328487654
63857.611887696235,169268.0,95622.0,5427.0,1.1501423003937816
63857.62197666379,169215.0,95616.0,5399.0,1.1602312679460738
63857.63206563133,169153.0,95593.0,5383.0,1.17032023549109
63857.64215459888,169125.0,95613.0,5347.0,1.1804092030361062
63857.65224356642,169133.0,95609.0,5369.0,1.1904981705811224
63857.662332533975,169102.0,95600.0,5320.0,1.2005871381334146
63857.67242150152,169077.0,95562.0,5308.0,1.2106761056784308
63857.682510469065,169080.0,95554.0,5292.0,1.220765073223447
63857.69259943662,169052.0,95553.0,5291.0,1.2308540407757391
63857.70268840416,169074.0,95566.0,5287.0,1.2409430083207553
63857.71277737171,169055.0,95561.0,5299.0,1.2510319758657715
63857.72286633926,169086.0,95572.0,5285.0,1.2611209434180637
63857.732955306805,169061.0,95543.0,5286.0,1.27120991096308
63857.74304427435,169073.0,95546.0,5268.0,1.281298878508096
63857.7531332419,169087.0,95566.0,5288.0,1.2913878460603883
63857.76322220945,169103.0,95599.0,5290.0,1.3014768136054045
63857.77331117699,169090.0,95576.0,5275.0,1.3115657811504207
63857.783400144544,169103.0,95571.0,5295.0,1.3216547487027128
63857.79348911209,169131.0,95577.0,5321.0,1.331743716247729
63857.803578079634,169119.0,95566.0,5311.0,1.3418326837927452
63857.81366704719,169122.0,95572.0,5297.0,1.3519216513450374
63857.82375601473,169125.0,95577.0,5284.0,1.3620106188900536
63857.83384498228,169097.0,95587.0,5313.0,1.3720995864350698
63857.84393394982,169084.0,95584.0,5282.0,1.382188553980086
63857.854022917374,169112.0,95589.0,5296.0,1.3922775215323782
63857.86411188492,169098.0,95567.0,5296.0,1.4023664890773944
63857.874200852464,169081.0,95539.0,5278.0,1.4124554566224106
63857.88428982002,169064.0,95539.0,5286.0,1.4225444241747027
63857.89437878756,169071.0,95583.0,5303.0,1.432633391719719
63857.90446775511,169077.0,95553.0,5269.0,1.4427223592647351
63857.91455672266,169068.0,95546.0,5308.0,1.4528113268170273
63857.924645690204,169079.0,95569.0,5284.0,1.4629002943620435
63857.93473465775,169080.0,95569.0,5290.0,1.4729892619070597
63857.9448236253,169065.0,95565.0,5281.0,1.4830782294593519
63857.954912592846,169052.0,95533.0,5265.0,1.493167197004368
63857.96500156039,169087.0,95567.0,5257.0,1.5032561645493843
63857.97509052794,169083.0,95565.0,5297.0,1.5133451321016764
63857.98517949549,169081.0,95558.0,5277.0,1.5234340996466926
63857.99526846303,169091.0,95576.0,5274.0,1.5335230671917088
63858.005357430586,169138.0,95620.0,5292.0,1.543612034744001
63858.01544639813,169100.0,95542.0,5273.0,1.5537010022890172
63858.025535365676,169152.0,95588.0,5283.0,1.5637899698340334
63858.03562433322,169129.0,95567.0,5279.0,1.5738789373790496
63858.04571330077,169119.0,95541.0,5307.0,1.5839679049313418
63858.05580226832,169132.0,95544.0,5282.0,1.594056872476358
63858.06589123586,169162.0,95584.0,5308.0,1.6041458400213742
63858.075980203415,169140.0,95564.0,5285.0,1.6142348075736663
63858.08606917096,169124.0,95555.0,5270.0,1.6243237751186825
63858.096158138505,169127.0,95554.0,5279.0,1.6344127426636987
63858.10624710606,169149.0,95564.0,5293.0,1.644501710215991
63858.1163360736,169121.0,95556.0,5271.0,1.654590677761007
63858.12642504115,169119.0,95545.0,5270.0,1.6646796453060233
63858.1365140087,169106.0,95573.0,5281.0,1.6747686128583155
63858.146602976245,169090.0,95527.0,5260.0,1.6848575804033317
63858.15669194379,169079.0,95517.0,5269.0,1.6949465479483479
63858.16678091134,169073.0,95525.0,5236.0,1.70503551550064
63858.17686987889,169083.0,95551.0,5257.0,1.7151244830456562
63858.18695884643,169034.0,95487.0,5216.0,1.7252134505906724
63858.197047813985,169050.0,95510.0,5222.0,1.7353024181429646
63858.20713678153,169001.0,95519.0,5222.0,1.7453913856879808
63858.217225749075,169039.0,95500.0,5237.0,1.755480353232997
63858.22731471662,169004.0,95511.0,5199.0,1.7655693207780132
63858.23740368417,168995.0,95496.0,5208.0,1.7756582883303054
63858.24749265172,168947.0,95484.0,5223.0,1.7857472558753216
63858.25758161926,168903.0,95434.0,5166.0,1.7958362234203378
63858.267670586814,168860.0,95449.0,5156.0,1.80592519097263
63858.27775955436,168871.0,95459.0,5198.0,1.8160141585176461
63858.287848521904,168833.0,95385.0,5184.0,1.8261031260626623
63858.29793748946,168713.0,95355.0,5152.0,1.8361920936149545
63858.308026457,168688.0,95370.0,5130.0,1.8462810611599707
63858.31811542455,168594.0,95340.0,5116.0,1.856370028704987
63858.3282043921,168462.0,95296.0,5086.0,1.866458996257279
63858.338293359644,168302.0,95273.0,5035.0,1.8765479638022953
63858.34838232719,168164.0,95181.0,5036.0,1.8866369313473115
63858.35847129474,168013.0,95137.0,4968.0,1.8967258988996036
63858.368560262286,167790.0,95061.0,4912.0,1.9068148664446198
63858.37864922983,167617.0,94998.0,4868.0,1.916903833989636
63858.38873819738,167401.0,94912.0,4824.0,1.9269928015346522
63858.39882716493,167275.0,94902.0,4766.0,1.9370817690869444
63858.408916132474,167099.0,94826.0,4763.0,1.9471707366319606
63858.41900510002,166996.0,94814.0,4740.0,1.9572597041769768
63858.42909406757,166883.0,94762.0,4661.0,1.967348671729269
63858.439183035116,166808.0,94731.0,4659.0,1.9774376392742852
63858.44927200266,166734.0,94695.0,4642.0,1.9875266068193014
63858.45936097021,166709.0,94682.0,4633.0,1.9976155743715935
63858.46944993776,166617.0,94652.0,4596.0,2.0077045419166097
63858.4795389053,166592.0,94658.0,4615.0,2.017793509461626
63858.489627872856,166566.0,94674.0,4598.0,2.027882477013918
63858.4997168404,166544.0,94625.0,4598.0,2.0379714445589343
63858.509805807946,166504.0,94613.0,4581.0,2.0480604121039505
63858.5198947755,166519.0,94644.0,4603.0,2.0581493796562427
63858.52998374304,166501.0,94632.0,4574.0,2.068238347201259
63858.54007271059,166461.0,94629.0,4569.0,2.078327314746275
63858.55016167814,166466.0,94626.0,4571.0,2.0884162822985672
63858.560250645685,166467.0,94611.0,4560.0,2.0985052498435834
63858.57033961323,166481.0,94636.0,4569.0,2.1085942173885996
63858.580428580775,166475.0,94617.0,4537.0,2.118683184933616
63858.59051754833,166488.0,94651.0,4587.0,2.128772152485908
63858.60060651587,166453.0,94619.0,4555.0,2.138861120030924
63858.61069548342,166447.0,94640.0,4556.0,2.1489500875759404
63858.62078445097,166434.0,94627.0,4546.0,2.1590390551282326
63858.630873418515,166393.0,94612.0,4555.0,2.169128022673249
63858.64096238606,166386.0,94586.0,4520.0,2.179216990218265
63858.65105135361,166380.0,94617.0,4542.0,2.189305957770557
63858.66114032116,166354.0,94632.0,4520.0,2.1993949253155733
63858.6712292887,166361.0,94620.0,4557.0,2.2094838928605895
63858.681318256255,166296.0,94617.0,4508.0,2.2195728604128817
63858.6914072238,166321.0,94597.0,4516.0,2.229661827957898
63858.701496191345,166299.0,94623.0,4518.0,2.239750795502914
63858.7115851589,166245.0,94577.0,4490.0,2.2498397630552063
63858.72167412644,166278.0,94588.0,4472.0,2.2599287306002225
63858.73176309399,166250.0,94593.0,4508.0,2.2700176981452387
63858.74185206153,166216.0,94565.0,4541.0,2.280106665690255
63858.751941029084,166214.0,94567.0,4479.0,2.290195633242547
63858.76202999663,166190.0,94560.0,4518.0,2.3002846007875632
63858.772118964174,166202.0,94569.0,4500.0,2.3103735683325795
63858.78220793173,166181.0,94550.0,4516.0,2.3204625358848716
63858.79229689927,166133.0,94549.0,4495.0,2.330551503429888
63858.80238586682,166103.0,94503.0,4501.0,2.340640470974904
63858.81247483437,166056.0,94539.0,4518.0,2.350729438527196
63858.822563801914,166052.0,94528.0,4502.0,2.3608184060722124
63858.83265276946,165960.0,94491.0,4473.0,2.3709073736172286
63858.84274173701,165961.0,94490.0,4512.0,2.3809963411695207
63858.852830704556,165945.0,94478.0,4502.0,2.391085308714537
63858.8629196721,165901.0,94449.0,4521.0,2.401174276259553
63858.87300863965,165840.0,94438.0,4507.0,2.4112632438118453
63858.8830976072,165806.0,94422.0,4499.0,2.4213522113568615
63858.89318657474,165776.0,94430.0,4495.0,2.4314411789018777
63858.903275542296,165719.0,94403.0,4487.0,2.44153014645417
63858.91336450984,165621.0,94385.0,4478.0,2.451619113999186
63858.923453477386,165580.0,94341.0,4469.0,2.4617080815442023
63858.93354244493,165513.0,94327.0,4478.0,2.4717970490892185
63858.94363141248,165407.0,94240.0,4473.0,2.4818860166415107
63858.95372038003,165358.0,94268.0,4478.0,2.491974984186527
63858.96380934757,165278.0,94264.0,4440.0,2.502063951731543
63858.973898315126,165260.0,94240.0,4469.0,2.512152919283835
63858.98398728267,165248.0,94224.0,4468.0,2.5222418868288514
63858.994076250216,165238.0,94217.0,4456.0,2.5323308543738676
63859.00416521777,165210.0,94209.0,4479.0,2.54241982192616
63859.01425418531,165138.0,94167.0,4455.0,2.552508789471176
63859.02434315286,165131.0,94174.0,4459.0,2.562597757016192
63859.03443212041,165070.0,94162.0,4437.0,2.5726867245684844
63859.044521087955,165070.0,94175.0,4457.0,2.5827756921135006
63859.0546100555,165007.0,94137.0,4400.0,2.5928646596585168
63859.06469902305,164952.0,94124.0,4387.0,2.602953627210809
63859.0747879906,164859.0,94141.0,4370.0,2.613042594755825
63859.08487695814,164794.0,94057.0,4320.0,2.6231315623008413
63859.09496592569,164715.0,94081.0,4288.0,2.6332205298458575
63859.10505489324,164668.0,94041.0,4275.0,2.6433094973981497
63859.115143860785,164592.0,94017.0,4253.0,2.653398464943166
63859.12523282833,164499.0,93994.0,4213.0,2.663487432488182
63859.13532179588,164413.0,93960.0,4196.0,2.6735764000404743
63859.14541076343,164371.0,93956.0,4204.0,2.6836653675854905
63859.15549973097,164318.0,93952.0,4155.0,2.6937543351305067
63859.165588698525,164249.0,93915.0,4189.0,2.703843302682799
63859.17567766607,164217.0,93896.0,4179.0,2.713932270227815
63859.185766633615,164150.0,93889.0,4167.0,2.7240212377728312
63859.19585560117,164120.0,93914.0,4156.0,2.7341102053251234
63859.20594456871,164085.0,93874.0,4172.0,2.7441991728701396
63859.21603353626,164032.0,93898.0,4177.0,2.754288140415156
63859.22612250381,163976.0,93830.0,4144.0,2.764377107967448
63859.236211471354,163916.0,93804.0,4158.0,2.774466075512464
63859.2463004389,163895.0,93805.0,4133.0,2.7845550430574804
63859.25638940645,163814.0,93823.0,4144.0,2.7946440106097725
63859.266478374,163814.0,93783.0,4128.0,2.8047329781547887
63859.27656734154,163779.0,93762.0,4113.0,2.814821945699805
63859.28665630909,163687.0,93723.0,4104.0,2.824910913244821
63859.29674527664,163645.0,93734.0,4109.0,2.8349998807971133
63859.306834244184,163646.0,93718.0,4108.0,2.8450888483421295
63859.31692321173,163597.0,93698.0,4116.0,2.8551778158871457
63859.32701217928,163552.0,93735.0,4137.0,2.865266783439438
63859.337101146826,163497.0,93693.0,4106.0,2.875355750984454
63859.34719011437,163358.0,93615.0,4103.0,2.8854447185294703
63859.35727908192,163158.0,93583.0,4116.0,2.8955336860817624
63859.36736804947,163016.0,93512.0,4098.0,2.9056226536267786
63859.37745701701,162953.0,93492.0,4095.0,2.915711621171795
63859.387545984566,162870.0,93453.0,4064.0,2.925800588724087
63859.39763495211,162832.0,93456.0,4056.0,2.935889556269103
63859.407723919656,162750.0,93421.0,4038.0,2.9459785238141194
63859.41781288721,162729.0,93398.0,4054.0,2.9560674913664116
63859.42790185475,162686.0,93399.0,4061.0,2.9661564589114278
63859.4379908223,162638.0,93393.0,4032.0,2.976245426456444
63859.44807978985,162605.0,93370.0,4044.0,2.986334394008736
63859.458168757395,162590.0,93357.0,4046.0,2.9964233615537523
63859.46825772494,162629.0,93367.0,4024.0,3.0065123290987685
63859.478346692486,162622.0,93380.0,4035.0,3.0166012966437847
63859.48843566004,162605.0,93396.0,4062.0,3.026690264196077
63859.49852462758,162591.0,93351.0,4022.0,3.036779231741093
63859.50861359513,162622.0,93362.0,4025.0,3.0468681992861093
63859.51870256268,162636.0,93391.0,4049.0,3.0569571668384015
63859.528791530225,162591.0,93365.0,4046.0,3.0670461343834177
63859.53888049777,162610.0,93391.0,4068.0,3.077135101928434
63859.54896946532,162542.0,93338.0,4033.0,3.087224069480726
63859.55905843287,162609.0,93364.0,4044.0,3.0973130370257422
63859.56914740041,162608.0,93364.0,4044.0,3.1074020045707584
63859.579236367965,162599.0,93360.0,4054.0,3.1174909721230506
63859.58932533551,162615.0,93387.0,4075.0,3.127579939668067
63859.599414303055,162565.0,93359.0,4053.0,3.137668907213083
63859.60950327061,162540.0,93346.0,4048.0,3.147757874765375
63859.61959223815,162460.0,93319.0,4045.0,3.1578468423103914
63859.6296812057,162479.0,93315.0,4056.0,3.1679358098554076
63859.63977017325,162452.0,93328.0,4054.0,3.1780247774076997
63859.649859140794,162433.0,93339.0,4065.0,3.188113744952716
63859.65994810834,162394.0,93279.0,4032.0,3.198202712497732
63859.670037075884,162378.0,93307.0,4067.0,3.2082916800427483
63859.68012604344,162302.0,93277.0,4039.0,3.2183806475950405
63859.69021501098,162271.0,93268.0,4062.0,3.2284696151400567
63859.70030397853,162172.0,93210.0,4037.0,3.238558582685073
63859.71039294608,162119.0,93179.0,4062.0,3.248647550237365
63859.720481913624,162014.0,93160.0,4041.0,3.2587365177823813
63859.73057088117,161919.0,93124.0,4019.0,3.2688254853273975
63859.74065984872,161833.0,93113.0,4026.0,3.2789144528796896
63859.75074881627,161694.0,93015.0,4035.0,3.289003420424706
63859.76083778381,161574.0,93022.0,4008.0,3.299092387969722
63859.770926751364,161426.0,92971.0,4015.0,3.309181355522014
63859.78101571891,161323.0,92946.0,3978.0,3.3192703230670304
63859.791104686454,161158.0,92862.0,3957.0,3.3293592906120466
63859.801193654006,160983.0,92835.0,3929.0,3.3394482581643388
63859.81128262155,160768.0,92758.0,3877.0,3.349537225709355
63859.821371589096,160619.0,92682.0,3916.0,3.359626193254371
63859.83146055664,160414.0,92640.0,3855.0,3.3697151607993874
63859.84154952419,160220.0,92600.0,3850.0,3.3798041283516795
63859.85163849174,160073.0,92548.0,3845.0,3.3898930958966957
63859.86172745928,159865.0,92466.0,3822.0,3.399982063441712
63859.871816426836,159715.0,92430.0,3826.0,3.410071030994004
63859.88190539438,159546.0,92358.0,3815.0,3.4201599985390203
63859.891994361926,159433.0,92319.0,3839.0,3.4302489660840365
63859.90208332948,159315.0,92281.0,3819.0,3.4403379336363287
63859.91217229702,159188.0,92247.0,3812.0,3.450426901181345
63859.92226126457,159099.0,92229.0,3839.0,3.460515868726361
63859.93235023212,158994.0,92188.0,3849.0,3.4706048362786532
63859.942439199665,158873.0,92139.0,3810.0,3.4806938038236694
63859.95252816721,158772.0,92120.0,3850.0,3.4907827713686856
63859.96261713476,158616.0,92067.0,3801.0,3.500871738920978
63859.97270610231,158559.0,92025.0,3806.0,3.510960706465994
63859.98279506985,158474.0,92026.0,3792.0,3.52104967401101
63859.992884037405,158360.0,92014.0,3823.0,3.5311386415633024
63860.00297300495,158312.0,91955.0,3811.0,3.5412276091083186
63860.013061972495,158227.0,91914.0,3852.0,3.5513165766533348
63860.02315094004,158151.0,91891.0,3831.0,3.561405544198351
63860.03323990759,158032.0,91876.0,3799.0,3.571494511750643
63860.04332887514,158020.0,91853.0,3796.0,3.5815834792956593
63860.05341784268,157941.0,91832.0,3820.0,3.5916724468406755
63860.063506810235,157876.0,91836.0,3826.0,3.6017614143929677
63860.07359577778,157854.0,91816.0,3837.0,3.611850381937984
63860.083684745325,157788.0,91786.0,3843.0,3.621939349483
63860.09377371288,157707.0,91739.0,3813.0,3.6320283170352923
63860.10386268042,157649.0,91711.0,3804.0,3.6421172845803085
63860.11395164797,157594.0,91721.0,3837.0,3.6522062521253247
63860.12404061552,157528.0,91697.0,3833.0,3.662295219677617
63860.134129583064,157510.0,91662.0,3821.0,3.672384187222633
63860.14421855061,157434.0,91679.0,3811.0,3.6824731547676492
63860.15430751816,157452.0,91666.0,3835.0,3.6925621223199414
63860.16439648571,157391.0,91611.0,3799.0,3.7026510898649576
63860.17448545325,157420.0,91634.0,3816.0,3.712740057409974
63860.1845744208,157408.0,91635.0,3816.0,3.72282902495499
63860.19466338835,157425.0,91633.0,3811.0,3.732917992507282
63860.204752355894,157427.0,91636.0,3820.0,3.7430069600522984
63860.21484132344,157488.0,91664.0,3836.0,3.7530959275973146
63860.22493029099,157510.0,91650.0,3823.0,3.7631848951496067
63860.235019258536,157520.0,91685.0,3865.0,3.773273862694623
63860.24510822608,157556.0,91677.0,3823.0,3.783362830239639
63860.255197193634,157558.0,91684.0,3848.0,3.7934517977919313
63860.26528616118,157579.0,91694.0,3872.0,3.8035407653369475
63860.275375128724,157573.0,91695.0,3860.0,3.8136297328819637
63860.285464096276,157636.0,91708.0,3895.0,3.823718700434256
63860.29555306382,157666.0,91714.0,3877.0,3.833807667979272
63860.305642031366,157689.0,91727.0,3851.0,3.8438966355242883
63860.31573099892,157781.0,91765.0,3860.0,3.8539856030765804
63860.32581996646,157857.0,91780.0,3893.0,3.8640745706215966
63860.33590893401,157869.0,91792.0,3884.0,3.874163538166613
63860.34599790156,157900.0,91805.0,3892.0,3.884252505718905
63860.356086869106,157918.0,91828.0,3886.0,3.894341473263921
63860.36617583665,157951.0,91828.0,3867.0,3.9044304408089374
63860.376264804196,158616.0,92067.0,3894.0,3.9145194083539536
63860.38635377175,158032.0,91853.0,3878.0,3.924608375906246
63860.39644273929,158067.0,91852.0,3915.0,3.934697343451262
63860.40653170684,158148.0,91904.0,3910.0,3.944786310996278
63860.41662067439,158132.0,91875.0,3873.0,3.9548752785485703
63860.426709641935,158144.0,91891.0,3905.0,3.9649642460935866
63860.43679860948,158219.0,91904.0,3936.0,3.9750532136386028
63860.44688757703,158275.0,91935.0,3904.0,3.985142181190895
63860.45697654458,158300.0,91931.0,3935.0,3.995231148735911
63860.46706551212,158354.0,91958.0,3915.0,4.005320116280927
63860.477154479675,158395.0,91960.0,3915.0,4.0154090838332195
63860.48724344722,158443.0,91998.0,3911.0,4.025498051378236
63860.497332414765,158505.0,91990.0,3921.0,4.035587018923252
63860.50742138232,158487.0,92005.0,3881.0,4.045675986475544
63860.51751034986,158421.0,91972.0,3866.0,4.05576495402056
63860.52759931741,158451.0,91967.0,3851.0,4.0658539215655765
63860.53768828496,158395.0,91982.0,3860.0,4.075942889117869
63860.547777252505,158373.0,91970.0,3806.0,4.086031856662885
63860.55786622005,158399.0,91983.0,3817.0,4.096120824207901
63860.567955187595,158482.0,92035.0,3835.0,4.106209791752917
63860.57804415515,158518.0,92030.0,3814.0,4.116298759305209
63860.58813312269,158602.0,92069.0,3795.0,4.126387726850226
63860.59822209024,158665.0,92079.0,3798.0,4.136476694395242
63860.60831105779,158807.0,92147.0,3810.0,4.146565661947534
63860.618400025334,158927.0,92188.0,3813.0,4.15665462949255
63860.62848899288,159072.0,92248.0,3806.0,4.166743597037566
63860.63857796043,159220.0,92290.0,3827.0,4.1768325645898585
63860.64866692798,159343.0,92340.0,3816.0,4.186921532134875
63860.65875589552,159506.0,92392.0,3811.0,4.197010499679891
63860.668844863074,159648.0,92488.0,3821.0,4.207099467232183
63860.67893383062,159834.0,92508.0,3824.0,4.217188434777199
63860.689022798164,159922.0,92586.0,3804.0,4.2272774023222155
63860.699111765716,160072.0,92626.0,3834.0,4.237366369874508
63860.70920073326,160164.0,92662.0,3811.0,4.247455337419524
63860.719289700806,160262.0,92661.0,3822.0,4.25754430496454
63860.72937866836,160351.0,92707.0,3801.0,4.267633272516832
63860.7394676359,160503.0,92782.0,3813.0,4.277722240061848
63860.74955660345,160602.0,92821.0,3806.0,4.287811207606865
63860.75964557099,160746.0,92838.0,3821.0,4.297900175151881
63860.769734538546,160910.0,92916.0,3816.0,4.307989142704173
63860.77982350609,161066.0,92957.0,3832.0,4.318078110249189
63860.789912473636,161165.0,92993.0,3814.0,4.328167077794205
63860.80000144119,161288.0,93032.0,3805.0,4.338256045346498
63860.81009040873,161419.0,93110.0,3839.0,4.348345012891514
63860.82017937628,161452.0,93076.0,3801.0,4.35843398043653
63860.83026834383,161560.0,93143.0,3813.0,4.368522947988822
63860.840357311376,161662.0,93159.0,3811.0,4.378611915533838
63860.85044627892,161775.0,93237.0,3823.0,4.3887008830788545
63860.86053524647,161812.0,93238.0,3792.0,4.398789850631147
63860.87062421402,161923.0,93269.0,3815.0,4.408878818176163
63860.88071318156,161987.0,93302.0,3786.0,4.418967785721179
63860.890802149115,162030.0,93306.0,3810.0,4.429056753273471
63860.90089111666,162093.0,93329.0,3813.0,4.4391457208184875
63860.910980084205,162180.0,93347.0,3824.0,4.449234688363504
63860.92106905175,162241.0,93403.0,3841.0,4.45932365590852
63860.9311580193,162286.0,93373.0,3819.0,4.469412623460812
63860.94124698685,162366.0,93424.0,3805.0,4.479501591005828
63860.95133595439,162456.0,93468.0,3860.0,4.489590558550844
63860.961424921945,162478.0,93441.0,3854.0,4.499679526103137
63860.97151388949,162548.0,93474.0,3836.0,4.509768493648153
63860.981602857035,162629.0,93528.0,3876.0,4.519857461193169
63860.99169182459,162697.0,93531.0,3858.0,4.529946428745461
63861.00178079213,162773.0,93563.0,3877.0,4.540035396290477
63861.01186975968,162880.0,93583.0,3862.0,4.550124363835494
63861.02195872723,162937.0,93614.0,3909.0,4.560213331387786
63861.032047694775,162990.0,93608.0,3881.0,4.570302298932802
63861.04213666232,163056.0,93651.0,3904.0,4.580391266477818
63861.05222562987,163108.0,93671.0,3911.0,4.59048023403011
63861.06231459742,163199.0,93690.0,3942.0,4.6005692015751265
63861.07240356496,163241.0,93702.0,3925.0,4.610658169120143
63861.082492532514,163305.0,93736.0,3956.0,4.620747136672435
63861.09258150006,163369.0,93734.0,3955.0,4.630836104217451
63861.102670467604,163405.0,93756.0,3953.0,4.640925071762467
63861.11275943515,163474.0,93816.0,3957.0,4.6510140393074835
63861.1228484027,163555.0,93802.0,3965.0,4.661103006859776
63861.13293737025,163604.0,93799.0,3968.0,4.671191974404792
63861.14302633779,163678.0,93841.0,3981.0,4.681280941949808
63861.153115305344,163777.0,93879.0,3994.0,4.6913699095021
63861.16320427289,163800.0,93887.0,3994.0,4.701458877047116
63861.173293240434,163846.0,93921.0,4002.0,4.711547844592133
63861.183382207986,163914.0,93939.0,3990.0,4.721636812144425
63861.19347117553,163976.0,93972.0,4036.0,4.731725779689441
63861.203560143076,164020.0,93974.0,4022.0,4.741814747234457
63861.21364911063,164024.0,93968.0,4028.0,4.751903714786749
63861.22373807817,164101.0,93987.0,4032.0,4.7619926823317655
63861.23382704572,164048.0,93954.0,4010.0,4.772081649876782
63861.24391601327,164091.0,93985.0,4008.0,4.782170617429074
63861.254004980816,164064.0,93990.0,3993.0,4.79225958497409
63861.26409394836,164124.0,94024.0,4011.0,4.802348552519106
63861.274182915906,164094.0,93970.0,3974.0,4.8124375200641225
63861.28427188346,164113.0,94013.0,3965.0,4.822526487616415
63861.294360851,164121.0,94047.0,3973.0,4.832615455161431
63861.30444981855,164158.0,94045.0,3962.0,4.842704422706447
63861.3145387861,164112.0,94038.0,3924.0,4.852793390258739
63861.324627753645,164150.0,94043.0,3930.0,4.862882357803755
63861.33471672119,164159.0,94043.0,3944.0,4.872971325348772
63861.34480568874,164052.0,93993.0,3882.0,4.883060292901064
63861.35489465629,164023.0,93978.0,3922.0,4.89314926044608
63861.36498362383,163979.0,93968.0,3914.0,4.903238227991096
63861.375072591385,163959.0,93978.0,3909.0,4.913327195543388
63861.38516155893,163929.0,93944.0,3898.0,4.923416163088405
63861.395250526475,163976.0,93989.0,3922.0,4.933505130633421
63861.40533949403,163970.0,93963.0,3914.0,4.943594098185713
63861.41542846157,163993.0,93948.0,3913.0,4.953683065730729
63861.42551742912,164010.0,93947.0,3924.0,4.963772033275745
63861.43560639667,164035.0,93964.0,3939.0,4.9738610008280375
63861.445695364215,164037.0,93975.0,3907.0,4.983949968373054
63861.45578433176,164035.0,93991.0,3941.0,4.99403893591807
63861.465873299305,164138.0,94017.0,3948.0,5.004127903463086
63861.47596226686,164179.0,94034.0,3947.0,5.014216871015378
63861.4860512344,164194.0,94029.0,3913.0,5.0243058385603945
63861.49614020195,164261.0,94067.0,3942.0,5.034394806105411
63861.5062291695,164342.0,94127.0,3948.0,5.044483773657703
63861.516318137044,164311.0,94094.0,3944.0,5.054572741202719
63861.52640710459,164366.0,94113.0,3958.0,5.064661708747735
63861.53649607214,164348.0,94129.0,3944.0,5.074750676300027
63861.54658503969,164334.0,94091.0,3944.0,5.084839643845044
63861.55667400723,164354.0,94096.0,3930.0,5.09492861139006
63861.566762974784,164447.0,94138.0,3926.0,5.105017578942352
63861.57685194233,164450.0,94129.0,3947.0,5.115106546487368
63861.586940909874,164472.0,94140.0,3971.0,5.125195514032384
63861.59702987743,164505.0,94150.0,3949.0,5.1352844815846765
63861.60711884497,164515.0,94174.0,3965.0,5.145373449129693
63861.61720781252,164466.0,94128.0,3932.0,5.155462416674709
63861.62729678006,164463.0,94126.0,3936.0,5.165551384219725
63861.637385747614,164494.0,94154.0,3937.0,5.175640351772017
63861.64747471516,164476.0,94149.0,3972.0,5.1857293193170335
63861.657563682704,164491.0,94141.0,3937.0,5.19581828686205
63861.667652650256,164479.0,94103.0,3927.0,5.205907254414342
63861.6777416178,164513.0,94159.0,3945.0,5.215996221959358
63861.687830585346,164493.0,94115.0,3920.0,5.226085189504374
63861.6979195529,164533.0,94132.0,3941.0,5.2361741570566664
63861.70800852044,164579.0,94163.0,3915.0,5.246263124601683
63861.71809748799,164591.0,94142.0,3966.0,5.256352092146699
63861.72818645554,164617.0,94166.0,3936.0,5.266441059698991
63861.738275423086,164632.0,94154.0,3944.0,5.276530027244007
63861.74836439063,164671.0,94149.0,3950.0,5.286618994789023
63861.75845335818,164628.0,94119.0,3927.0,5.296707962341316
63861.76854232573,164612.0,94121.0,3941.0,5.306796929886332
63861.77863129327,164589.0,94116.0,3948.0,5.316885897431348
63861.788720260825,164558.0,94115.0,3970.0,5.32697486498364
63861.79880922837,164561.0,94114.0,3937.0,5.337063832528656
63861.808898195915,164568.0,94138.0,3960.0,5.3471528000736726
63861.81898716346,164652.0,94133.0,3959.0,5.357241767618689
63861.82907613101,164732.0,94152.0,3950.0,5.367330735170981
63861.83916509856,164781.0,94181.0,3961.0,5.377419702715997
63861.8492540661,164893.0,94220.0,3995.0,5.387508670261013
63861.859343033655,164925.0,94217.0,3990.0,5.3975976378133055
63861.8694320012,164947.0,94236.0,3982.0,5.407686605358322
63861.879520968745,164982.0,94267.0,4022.0,5.417775572903338
63861.8896099363,165041.0,94257.0,4028.0,5.42786454045563
63861.89969890384,165003.0,94230.0,4004.0,5.437953508000646
63861.90978787139,164952.0,94235.0,3997.0,5.4480424755456625
63861.91987683894,164909.0,94203.0,4019.0,5.458131443097955
63861.929965806485,164792.0,94159.0,3993.0,5.468220410642971
63861.94005477403,164727.0,94146.0,4001.0,5.478309378187987
63861.95014374158,164683.0,94146.0,4005.0,5.488398345740279
63861.96023270913,164649.0,94101.0,4018.0,5.498487313285295
63861.97032167667,164593.0,94093.0,3973.0,5.508576280830312
63861.980410644224,164598.0,94104.0,3999.0,5.518665248382604
63861.99049961177,164567.0,94099.0,4006.0,5.52875421592762
63862.000588579314,164512.0,94100.0,4017.0,5.538843183472636
63862.01067754686,164426.0,94065.0,3962.0,5.548932151017652
63862.02076651441,164348.0,94061.0,3993.0,5.5590211185699445
63862.03085548196,164261.0,94007.0,3988.0,5.569110086114961
63862.0409444495,164158.0,93944.0,3984.0,5.579199053659977
63862.051033417054,164142.0,93938.0,4007.0,5.589288021212269
63862.0611223846,164150.0,93996.0,3990.0,5.599376988757285
63862.071211352144,164143.0,93978.0,3982.0,5.6094659563023015
63862.081300319696,164102.0,93967.0,3985.0,5.619554923854594
63862.09138928724,164141.0,93992.0,4004.0,5.62964389139961
63862.101478254786,164099.0,93935.0,3977.0,5.639732858944626
63862.11156722234,164093.0,93955.0,3990.0,5.649821826496918
63862.121656189884,164084.0,93933.0,3981.0,5.659910794041934
63862.13174515743,164097.0,93957.0,3973.0,5.669999761586951
63862.14183412498,164119.0,93975.0,3979.0,5.680088729139243
63862.151923092526,164183.0,93992.0,4018.0,5.690177696684259
63862.16201206007,164202.0,94012.0,4042.0,5.700266664229275
63862.17210102762,164224.0,94003.0,4030.0,5.710355631781567
63862.18218999517,164239.0,93989.0,4019.0,5.720444599326584
63862.19227896271,164285.0,94022.0,4032.0,5.7305335668716
63862.20236793026,164341.0,94082.0,4042.0,5.740622534416616
63862.21245689781,164362.0,94018.0,4038.0,5.750711501968908
63862.222545865356,164403.0,94092.0,4032.0,5.760800469513924
63862.2326348329,164454.0,94078.0,4053.0,5.7708894370589405
63862.24272380045,164475.0,94071.0,4066.0,5.780978404611233
63862.252812768,164561.0,94108.0,4081.0,5.791067372156249
63862.26290173554,164612.0,94144.0,4074.0,5.801156339701265
63862.272990703095,164626.0,94124.0,4071.0,5.811245307253557
63862.28307967064,164643.0,94100.0,4105.0,5.8213342747985735
63862.293168638185,164666.0,94147.0,4071.0,5.83142324234359
63862.30325760574,164680.0,94119.0,4078.0,5.841512209895882
63862.31334657328,164720.0,94139.0,4078.0,5.851601177440898
63862.32343554083,164731.0,94151.0,4055.0,5.861690144985914
63862.33352450838,164768.0,94189.0,4097.0,5.871779112538206
63862.343613475925,164790.0,94167.0,4074.0,5.881868080083223
63862.35370244347,164830.0,94195.0,4090.0,5.891957047628239
63862.363791411015,164909.0,94208.0,4118.0,5.902046015173255
63862.37388037857,164893.0,94251.0,4100.0,5.912134982725547
63862.38396934611,164943.0,94232.0,4086.0,5.922223950270563
63862.39405831366,165010.0,94237.0,4109.0,5.93231291781558
63862.40414728121,165023.0,94230.0,4124.0,5.942401885367872
63862.414236248755,165039.0,94199.0,4128.0,5.952490852912888
63862.4243252163,165045.0,94236.0,4121.0,5.962579820457904
63862.43441418385,165080.0,94237.0,4114.0,5.972668788010196
63862.4445031514,165113.0,94244.0,4132.0,5.9827577555552125
63862.45459211894,165182.0,94264.0,4133.0,5.992846723100229
63862.464681086494,165178.0,94276.0,4147.0,6.002935690652521
63862.47477005404,165228.0,94307.0,4136.0,6.013024658197537
63862.484859021584,165249.0,94295.0,4139.0,6.023113625742553
63862.49494798914,165293.0,94316.0,4129.0,6.033202593294845
63862.50503695668,165373.0,94357.0,4164.0,6.043291560839862
63862.51512592423,165404.0,94343.0,4164.0,6.053380528384878
63862.52521489178,165400.0,94396.0,4153.0,6.06346949593717
63862.535303859324,165473.0,94388.0,4129.0,6.073558463482186
63862.54539282687,165492.0,94387.0,4169.0,6.083647431027202
63862.555481794414,165479.0,94363.0,4126.0,6.093736398572219
63862.565570761966,165525.0,94439.0,4162.0,6.103825366124511
63862.57565972951,165495.0,94414.0,4166.0,6.113914333669527
63862.585748697056,165497.0,94434.0,4179.0,6.124003301214543
63862.59583766461,165472.0,94363.0,4167.0,6.134092268766835
63862.60592663215,165436.0,94389.0,4167.0,6.1441812363118515
63862.6160155997,165431.0,94374.0,4163.0,6.154270203856868
63862.62610456725,165460.0,94381.0,4144.0,6.16435917140916
63862.636193534796,165483.0,94368.0,4166.0,6.174448138954176
63862.64628250234,165556.0,94398.0,4155.0,6.184537106499192
63862.65637146989,165544.0,94379.0,4165.0,6.1946260740514845
63862.66646043744,165602.0,94420.0,4176.0,6.204715041596501
63862.67654940498,165634.0,94412.0,4168.0,6.214804009141517
63862.686638372536,165681.0,94441.0,4173.0,6.224892976693809
63862.69672734008,165716.0,94468.0,4182.0,6.234981944238825
63862.706816307626,165763.0,94493.0,4213.0,6.245070911783841
63862.71690527517,165833.0,94498.0,4202.0,6.255159879328858
63862.72699424272,165880.0,94519.0,4209.0,6.26524884688115
63862.73708321027,165944.0,94552.0,4215.0,6.275337814426166
63862.74717217781,165988.0,94569.0,4234.0,6.285426781971182
63862.757261145365,165948.0,94547.0,4215.0,6.295515749523474
63862.76735011291,165953.0,94567.0,4215.0,6.305604717068491
63862.777439080455,165926.0,94574.0,4203.0,6.315693684613507
63862.78752804801,165953.0,94607.0,4235.0,6.325782652165799
63862.79761701555,165899.0,94558.0,4190.0,6.335871619710815
63862.8077059831,165872.0,94551.0,4203.0,6.345960587255831
63862.81779495065,165848.0,94586.0,4201.0,6.3560495548081235
63862.827883918195,165884.0,94573.0,4214.0,6.36613852235314
63862.83797288574,165879.0,94570.0,4239.0,6.376227489898156
63862.84806185329,165875.0,94557.0,4207.0,6.386316457450448
63862.85815082084,165903.0,94560.0,4229.0,6.396405424995464
63862.86823978838,165892.0,94555.0,4188.0,6.4064943925404805
63862.878328755934,165880.0,94549.0,4197.0,6.416583360092773
63862.88841772348,165919.0,94555.0,4224.0,6.426672327637789
63862.898506691025,165952.0,94581.0,4228.0,6.436761295182805
63862.90859565857,165938.0,94573.0,4234.0,6.446850262727821
63862.91868462612,165993.0,94579.0,4227.0,6.456939230280113
63862.92877359367,166020.0,94586.0,4239.0,6.46702819782513
63862.93886256121,166034.0,94607.0,4251.0,6.477117165370146
63862.948951528764,166073.0,94621.0,4265.0,6.487206132922438
63862.95904049631,166065.0,94593.0,4263.0,6.497295100467454
63862.969129463854,166114.0,94617.0,4251.0,6.50738406801247
63862.97921843141,166157.0,94642.0,4283.0,6.5174730355647625
63862.98930739895,166165.0,94629.0,4265.0,6.527562003109779
63862.9993963665,166194.0,94660.0,4301.0,6.537650970654795
63863.00948533405,166204.0,94674.0,4275.0,6.547739938207087
63863.019574301594,166245.0,94665.0,4290.0,6.557828905752103
63863.02966326914,166253.0,94682.0,4262.0,6.5679178732971195
63863.03975223669,166252.0,94684.0,4283.0,6.578006840849412
63863.049841204236,166248.0,94685.0,4287.0,6.588095808394428
63863.05993017178,166300.0,94694.0,4303.0,6.598184775939444
63863.07001913933,166276.0,94676.0,4306.0,6.608273743491736
63863.08010810688,166285.0,94687.0,4315.0,6.618362711036752
63863.09019707442,166312.0,94724.0,4303.0,6.628451678581769
63863.10028604197,166318.0,94686.0,4317.0,6.638540646126785
63863.11037500952,166307.0,94733.0,4316.0,6.648629613679077
63863.120463977066,166321.0,94688.0,4309.0,6.658718581224093
63863.13055294461,166335.0,94684.0,4314.0,6.668807548769109
63863.14064191216,166373.0,94713.0,4331.0,6.678896516321402
63863.15073087971,166396.0,94714.0,4334.0,6.688985483866418
63863.16081984725,166385.0,94726.0,4325.0,6.699074451411434
63863.170908814805,166472.0,94750.0,4365.0,6.709163418963726
63863.18099778235,166465.0,94733.0,4337.0,6.719252386508742
63863.191086749895,166458.0,94778.0,4353.0,6.7293413540537586
63863.20117571745,166481.0,94769.0,4354.0,6.739430321606051
63863.21126468499,166550.0,94779.0,4389.0,6.749519289151067
63863.22135365254,166604.0,94772.0,4364.0,6.759608256696083
63863.23144262009,166616.0,94801.0,4365.0,6.769697224248375
63863.241531587635,166702.0,94814.0,4407.0,6.7797861917933915
63863.25162055518,166720.0,94851.0,4401.0,6.789875159338408
63863.261709522725,166747.0,94857.0,4405.0,6.799964126883424
63863.27179849028,166754.0,94848.0,4422.0,6.810053094435716
63863.28188745782,166828.0,94889.0,4438.0,6.820142061980732
63863.29197642537,166829.0,94873.0,4422.0,6.8302310295257485
63863.30206539292,166856.0,94885.0,4458.0,6.840319997078041
63863.312154360465,166872.0,94912.0,4459.0,6.850408964623057
63863.32224332801,166866.0,94888.0,4444.0,6.860497932168073
63863.33233229556,166891.0,94911.0,4469.0,6.870586899720365
63863.34242126311,166951.0,94914.0,4482.0,6.880675867265381
63863.35251023065,166908.0,94871.0,4446.0,6.890764834810398
63863.362599198204,166960.0,94912.0,4478.0,6.90085380236269
63863.37268816575,167019.0,94937.0,4510.0,6.910942769907706
63863.382777133294,167032.0,94930.0,4505.0,6.921031737452722
63863.39286610085,167043.0,94955.0,4513.0,6.931120705005014
63863.40295506839,167080.0,94940.0,4492.0,6.9412096725500305
63863.41304403594,167122.0,94981.0,4532.0,6.951298640095047
63863.42313300349,167127.0,94965.0,4529.0,6.961387607647339
63863.433221971034,167128.0,94956.0,4512.0,6.971476575192355
63863.44331093858,167174.0,94950.0,4529.0,6.981565542737371
63863.453399906124,167189.0,94983.0,4535.0,6.9916545102823875
63863.46348887368,167197.0,94983.0,4541.0,7.00174347783468
63863.47357784122,167196.0,94968.0,4518.0,7.011832445379696
63863.48366680877,167199.0,94987.0,4569.0,7.021921412924712
63863.49375577632,167160.0,94968.0,4545.0,7.032010380477004
63863.503844743864,167180.0,94999.0,4526.0,7.04209934802202
63863.51393371141,167148.0,94978.0,4519.0,7.052188315567037
63863.52402267896,167166.0,94995.0,4521.0,7.062277283119329
63863.534111646506,167163.0,94961.0,4492.0,7.072366250664345
63863.54420061405,167179.0,95002.0,4524.0,7.082455218209361
63863.5542895816,167180.0,95013.0,4509.0,7.092544185761653
63863.56437854915,167154.0,94974.0,4503.0,7.1026331533066696
63863.57446751669,167184.0,95004.0,4520.0,7.112722120851686
63863.584556484246,167149.0,94986.0,4504.0,7.122811088403978
63863.59464545179,167198.0,95003.0,4502.0,7.132900055948994
63863.604734419336,167193.0,95009.0,4520.0,7.14298902349401
63863.61482338689,167242.0,95048.0,4516.0,7.1530779910463025
63863.62491235443,167201.0,94976.0,4534.0,7.163166958591319
63863.63500132198,167233.0,95029.0,4510.0,7.173255926136335
63863.64509028952,167268.0,94997.0,4506.0,7.183344893681351
63863.655179257075,167249.0,95018.0,4541.0,7.193433861233643
63863.66526822462,167306.0,95063.0,4550.0,7.2035228287786595
63863.675357192165,167302.0,95037.0,4534.0,7.213611796323676
63863.68544615972,167334.0,95039.0,4555.0,7.223700763875968
63863.69553512726,167332.0,95068.0,4565.0,7.233789731420984
63863.70562409481,167324.0,95013.0,4540.0,7.243878698966
63863.71571306236,167366.0,95069.0,4559.0,7.253967666518292
63863.725802029905,167382.0,95083.0,4524.0,7.264056634063309
63863.73589099745,167369.0,95053.0,4548.0,7.274145601608325
63863.745979965,167396.0,95082.0,4569.0,7.284234569160617
63863.75606893255,167376.0,95059.0,4586.0,7.294323536705633
63863.76615790009,167429.0,95056.0,4572.0,7.304412504250649
63863.776246867645,167435.0,95079.0,4584.0,7.3145014718029415
63863.78633583519,167450.0,95102.0,4571.0,7.324590439347958
63863.796424802735,167428.0,95074.0,4576.0,7.334679406892974
63863.80651377028,167435.0,95092.0,4571.0,7.34476837443799
63863.81660273783,167442.0,95079.0,4576.0,7.354857341990282
63863.82669170538,167472.0,95106.0,4607.0,7.3649463095352985
63863.83678067292,167461.0,95094.0,4580.0,7.375035277080315
63863.846869640474,167467.0,95088.0,4569.0,7.385124244632607
63863.85695860802,167485.0,95114.0,4606.0,7.395213212177623
63863.867047575564,167483.0,95079.0,4585.0,7.405302179722639
63863.87713654312,167500.0,95107.0,4588.0,7.415391147274931
63863.88722551066,167513.0,95118.0,4578.0,7.425480114819948
63863.89731447821,167518.0,95122.0,4627.0,7.435569082364964
63863.90740344576,167543.0,95106.0,4611.0,7.445658049917256
63863.917492413304,167538.0,95127.0,4604.0,7.455747017462272
63863.92758138085,167538.0,95103.0,4602.0,7.465835985007288
63863.9376703484,167574.0,95123.0,4626.0,7.475924952559581
63863.947759315946,167530.0,95094.0,4624.0,7.486013920104597
63863.95784828349,167571.0,95123.0,4623.0,7.496102887649613
63863.96793725104,167536.0,95118.0,4641.0,7.506191855201905
63863.97802621859,167617.0,95136.0,4657.0,7.516280822746921
63863.988115186134,167588.0,95123.0,4623.0,7.5263697902919375
63863.99820415368,167588.0,95133.0,4672.0,7.536458757836954
63864.00829312123,167602.0,95152.0,4651.0,7.546547725389246
63864.018382088776,167583.0,95118.0,4643.0,7.556636692934262
63864.02847105632,167602.0,95157.0,4666.0,7.566725660479278
63864.03856002387,167581.0,95129.0,4655.0,7.5768146280315705
63864.04864899142,167600.0,95117.0,4663.0,7.586903595576587
63864.05873795896,167597.0,95103.0,4656.0,7.596992563121603
63864.068826926516,167600.0,95125.0,4699.0,7.607081530673895
63864.07891589406,167581.0,95110.0,4668.0,7.617170498218911
63864.089004861606,167609.0,95107.0,4683.0,7.627259465763927
63864.09909382916,167593.0,95139.0,4680.0,7.63734843331622
63864.1091827967,167610.0,95119.0,4688.0,7.647437400861236
63864.11927176425,167630.0,95136.0,4683.0,7.657526368406252
63864.1293607318,167653.0,95127.0,4694.0,7.667615335958544
63864.139449699345,167638.0,95146.0,4730.0,7.67770430350356
63864.14953866689,167614.0,95096.0,4690.0,7.687793271048577
63864.159627634435,167578.0,95134.0,4698.0,7.697882238593593
63864.16971660199,167620.0,95111.0,4705.0,7.707971206145885
63864.17980556953,167658.0,95092.0,4730.0,7.718060173690901
63864.18989453708,167594.0,95095.0,4694.0,7.728149141235917
63864.19998350463,167604.0,95095.0,4734.0,7.7382381087882095
63864.210072472175,167558.0,95098.0,4693.0,7.748327076333226
63864.22016143972,167499.0,95076.0,4665.0,7.758416043878242
63864.23025040727,167515.0,95097.0,4685.0,7.768505011430534
63864.24033937482,167489.0,95075.0,4684.0,7.77859397897555
63864.25042834236,167423.0,95047.0,4636.0,7.7886829465205665
63864.260517309915,167380.0,95020.0,4630.0,7.798771914072859
63864.27060627746,167407.0,95039.0,4614.0,7.808860881617875
63864.280695245005,167324.0,95002.0,4619.0,7.818949849162891
63864.29078421256,167302.0,94999.0,4612.0,7.829038816715183
63864.3008731801,167273.0,94992.0,4567.0,7.839127784260199
63864.31096214765,167308.0,94991.0,4563.0,7.849216751805216
63864.3210511152,167272.0,94986.0,4558.0,7.859305719357508
63864.331140082744,167281.0,94979.0,4576.0,7.869394686902524
63864.34122905029,167256.0,94964.0,4562.0,7.87948365444754
63864.351318017834,167246.0,94981.0,4578.0,7.889572621992556
63864.36140698539,167229.0,94949.0,4529.0,7.8996615895448485
63864.37149595293,167231.0,94954.0,4563.0,7.909750557089865
63864.38158492048,167234.0,94970.0,4566.0,7.919839524634881
63864.39167388803,167192.0,94934.0,4559.0,7.929928492187173
63864.401762855574,167191.0,94906.0,4584.0,7.940017459732189
63864.41185182312,167172.0,94928.0,4558.0,7.9501064272772055
63864.42194079067,167147.0,94928.0,4547.0,7.960195394829498
63864.432029758216,167079.0,94919.0,4545.0,7.970284362374514
63864.44211872576,167094.0,94932.0,4559.0,7.98037332991953
63864.45220769331,167097.0,94907.0,4564.0,7.990462297471822
63864.46229666086,167080.0,94892.0,4564.0,8.000551265016838
63864.4723856284,167085.0,94888.0,4572.0,8.010640232561855
63864.482474595956,167080.0,94905.0,4568.0,8.020729200114147
63864.4925635635,167054.0,94891.0,4563.0,8.030818167659163
63864.502652531046,167041.0,94909.0,4560.0,8.04090713520418
63864.5127414986,167094.0,94901.0,4579.0,8.050996102756471
63864.52283046614,167047.0,94865.0,4557.0,8.061085070301488
63864.53291943369,167050.0,94922.0,4538.0,8.071174037846504
63864.54300840123,167089.0,94893.0,4552.0,8.08126300539152
63864.553097368786,167148.0,94914.0,4581.0,8.091351972943812
63864.56318633633,167127.0,94908.0,4558.0,8.101440940488828
63864.573275303876,167132.0,94937.0,4572.0,8.111529908033845
63864.58336427143,167171.0,94956.0,4569.0,8.121618875586137
63864.59345323897,167223.0,94963.0,4584.0,8.131707843131153
63864.60354220652,167238.0,94932.0,4569.0,8.14179681067617
63864.61363117407,167282.0,94994.0,4589.0,8.151885778228461
63864.623720141615,167303.0,95010.0,4583.0,8.161974745773477
63864.63380910916,167325.0,95007.0,4603.0,8.172063713318494
63864.64389807671,167372.0,95018.0,4596.0,8.182152680870786
63864.65398704426,167413.0,95069.0,4636.0,8.192241648415802
63864.6640760118,167464.0,95063.0,4622.0,8.202330615960818
63864.674164979355,167483.0,95065.0,4623.0,8.21241958351311
63864.6842539469,167559.0,95111.0,4629.0,8.222508551058127
63864.694342914445,167600.0,95101.0,4689.0,8.232597518603143
63864.704431882,167619.0,95114.0,4664.0,8.242686486155435
63864.71452084954,167683.0,95146.0,4706.0,8.252775453700451
63864.72460981709,167742.0,95181.0,4715.0,8.262864421245467
63864.73469878463,167734.0,95164.0,4684.0,8.272953388790484
63864.744787752184,167804.0,95196.0,4709.0,8.283042356342776
63864.75487671973,167843.0,95209.0,4708.0,8.293131323887792
63864.764965687275,167902.0,95224.0,4737.0,8.303220291432808
63864.77505465483,167949.0,95235.0,4735.0,8.3133092589851
63864.78514362237,167995.0,95258.0,4745.0,8.323398226530117
63864.79523258992,168010.0,95288.0,4753.0,8.333487194075133
63864.80532155747,168067.0,95283.0,4766.0,8.343576161627425
63864.815410525014,168136.0,95296.0,4765.0,8.353665129172441
63864.82549949256,168161.0,95321.0,4813.0,8.363754096717457
63864.83558846011,168160.0,95292.0,4815.0,8.37384306426975
63864.84567742766,168192.0,95306.0,4805.0,8.383932031814766
63864.8557663952,168258.0,95379.0,4829.0,8.394020999359782
63864.865855362754,168317.0,95371.0,4845.0,8.404109966912074
63864.8759443303,168355.0,95374.0,4860.0,8.41419893445709
63864.886033297844,168365.0,95386.0,4842.0,8.424287902002106
63864.89612226539,168404.0,95401.0,4855.0,8.434376869547123
63864.90621123294,168402.0,95400.0,4868.0,8.444465837099415
63864.916300200486,168395.0,95395.0,4854.0,8.454554804644431
63864.92638916803,168389.0,95442.0,4873.0,8.464643772189447
63864.93647813558,168371.0,95411.0,4857.0,8.47473273974174
63864.94656710313,168372.0,95408.0,4851.0,8.484821707286756
63864.95665607067,168359.0,95414.0,4814.0,8.494910674831772
63864.966745038226,168372.0,95418.0,4848.0,8.504999642384064
63864.97683400577,168299.0,95389.0,4820.0,8.51508860992908
63864.986922973316,168312.0,95398.0,4800.0,8.525177577474096
63864.99701194087,168282.0,95391.0,4803.0,8.535266545026388
63865.00710090841,168319.0,95383.0,4811.0,8.545355512571405
63865.01718987596,168298.0,95390.0,4767.0,8.555444480116421
63865.02727884351,168292.0,95385.0,4796.0,8.565533447668713
63865.037367811055,168286.0,95404.0,4768.0,8.57562241521373
63865.0474567786,168305.0,95391.0,4777.0,8.585711382758745
63865.05754574615,168292.0,95412.0,4761.0,8.595800350311038
63865.0676347137,168359.0,95402.0,4789.0,8.605889317856054
63865.07772368124,168350.0,95434.0,4773.0,8.61597828540107
63865.08781264879,168323.0,95384.0,4769.0,8.626067252946086
63865.09790161634,168377.0,95420.0,4782.0,8.636156220498378
63865.107990583885,168368.0,95437.0,4796.0,8.646245188043395
63865.11807955143,168385.0,95427.0,4790.0,8.65633415558841
63865.12816851898,168362.0,95424.0,4774.0,8.666423123140703
63865.13825748653,168369.0,95399.0,4782.0,8.67651209068572
63865.14834645407,168384.0,95389.0,4810.0,8.686601058230735
63865.158435421625,168389.0,95410.0,4792.0,8.696690025783028
63865.16852438917,168383.0,95419.0,4802.0,8.706778993328044
63865.178613356715,168424.0,95439.0,4814.0,8.71686796087306
63865.18870232427,168391.0,95405.0,4768.0,8.726956928425352
63865.19879129181,168416.0,95413.0,4808.0,8.737045895970368
63865.20888025936,168402.0,95407.0,4792.0,8.747134863515384
63865.21896922691,168405.0,95424.0,4800.0,8.757223831067677
63865.229058194454,168384.0,95357.0,4777.0,8.767312798612693
63865.239147162,168389.0,95412.0,4809.0,8.777401766157709
63865.249236129544,168350.0,95413.0,4802.0,8.787490733702725
63865.2593250971,168374.0,95395.0,4813.0,8.797579701255017
63865.26941406464,168382.0,95425.0,4811.0,8.807668668800034
63865.27950303219,168364.0,95399.0,4794.0,8.81775763634505
63865.28959199974,168348.0,95383.0,4801.0,8.827846603897342
63865.299680967284,168345.0,95372.0,4784.0,8.837935571442358
63865.30976993483,168356.0,95410.0,4781.0,8.848024538987374
63865.31985890238,168327.0,95389.0,4784.0,8.858113506539667
63865.32994786993,168283.0,95380.0,4776.0,8.868202474084683
63865.34003683747,168318.0,95385.0,4815.0,8.878291441629699
63865.350125805024,168315.0,95378.0,4800.0,8.888380409181991
63865.36021477257,168267.0,95335.0,4785.0,8.898469376727007
63865.370303740114,168240.0,95318.0,4777.0,8.908558344272024
63865.380392707666,168297.0,95362.0,4766.0,8.918647311824316
63865.39048167521,168294.0,95366.0,4820.0,8.928736279369332
63865.400570642756,168263.0,95357.0,4795.0,8.938825246914348
63865.41065961031,168256.0,95353.0,4785.0,8.94891421446664
63865.42074857785,168230.0,95323.0,4797.0,8.959003182011656
63865.4308375454,168213.0,95332.0,4775.0,8.969092149556673
63865.44092651294,168235.0,95332.0,4797.0,8.979181117101689
63865.451015480496,168228.0,95362.0,4820.0,8.989270084653981
63865.46110444804,168230.0,95332.0,4816.0,8.999359052198997
63865.471193415586,168224.0,95348.0,4809.0,9.009448019744013
63865.48128238314,168216.0,95326.0,4799.0,9.019536987296306
63865.49137135068,168188.0,95327.0,4811.0,9.029625954841322
63865.50146031823,168163.0,95309.0,4795.0,9.039714922386338
63865.51154928578,168205.0,95325.0,4818.0,9.04980388993863
63865.521638253325,168172.0,95302.0,4815.0,9.059892857483646
63865.53172722087,168162.0,95284.0,4837.0,9.069981825028663
63865.54181618842,168163.0,95327.0,4851.0,9.080070792580955
63865.55190515597,168154.0,95325.0,4838.0,9.090159760125971
63865.56199412351,168122.0,95289.0,4795.0,9.100248727670987
63865.572083091065,168153.0,95274.0,4826.0,9.11033769522328
63865.58217205861,168142.0,95289.0,4820.0,9.120426662768296
63865.592261026155,168136.0,95262.0,4842.0,9.130515630313312
63865.6023499937,168122.0,95284.0,4834.0,9.140604597858328
63865.61243896125,168110.0,95275.0,4836.0,9.15069356541062
63865.6225279288,168058.0,95307.0,4787.0,9.160782532955636
63865.63261689634,168055.0,95256.0,4810.0,9.170871500500652
63865.642705863895,168058.0,95282.0,4804.0,9.180960468052945
63865.65279483144,167996.0,95246.0,4788.0,9.19104943559796
63865.662883798985,167969.0,95249.0,4762.0,9.201138403142977
63865.67297276654,167917.0,95194.0,4733.0,9.21122737069527
63865.68306173408,167873.0,95218.0,4714.0,9.221316338240285
63865.69315070163,167881.0,95208.0,4707.0,9.231405305785302
63865.70323966918,167886.0,95182.0,4713.0,9.241494273337594
63865.713328636724,167854.0,95193.0,4663.0,9.25158324088261
63865.72341760427,167825.0,95188.0,4696.0,9.261672208427626
63865.73350657182,167821.0,95178.0,4673.0,9.271761175979918
63865.74359553937,167794.0,95174.0,4653.0,9.281850143524935
63865.75368450691,167779.0,95192.0,4644.0,9.29193911106995
63865.763773474464,167831.0,95184.0,4691.0,9.302028078622243
63865.77386244201,167799.0,95176.0,4649.0,9.312117046167259
63865.783951409554,167765.0,95156.0,4638.0,9.322206013712275
63865.7940403771,167794.0,95163.0,4644.0,9.332294981257292
63865.80412934465,167779.0,95157.0,4631.0,9.342383948809584
63865.814218312196,167788.0,95165.0,4658.0,9.3524729163546
63865.82430727974,167765.0,95156.0,4650.0,9.362561883899616
63865.83439624729,167744.0,95174.0,4657.0,9.372650851451908
63865.84448521484,167782.0,95167.0,4636.0,9.382739818996924
63865.854574182384,167776.0,95154.0,4659.0,9.39282878654194
63865.864663149936,167756.0,95153.0,4627.0,9.402917754094233
63865.87475211748,167760.0,95180.0,4658.0,9.413006721639249
63865.884841085026,167700.0,95147.0,4653.0,9.423095689184265
63865.89493005258,167712.0,95138.0,4696.0,9.433184656736557
63865.90501902012,167718.0,95120.0,4679.0,9.443273624281574
63865.91510798767,167683.0,95111.0,4675.0,9.45336259182659
63865.92519695522,167680.0,95138.0,4669.0,9.463451559378882
63865.935285922766,167641.0,95123.0,4652.0,9.473540526923898
63865.94537489031,167638.0,95127.0,4636.0,9.483629494468914
63865.95546385786,167577.0,95099.0,4643.0,9.493718462021207
63865.96555282541,167615.0,95123.0,4636.0,9.503807429566223
63865.97564179295,167603.0,95099.0,4647.0,9.513896397111239
63865.9857307605,167573.0,95116.0,4640.0,9.523985364656255
63865.99581972805,167555.0,95085.0,4635.0,9.534074332208547
63866.005908695595,167560.0,95078.0,4624.0,9.544163299753563
63866.01599766314,167587.0,95087.0,4647.0,9.55425226729858
63866.02608663069,167590.0,95083.0,4642.0,9.564341234850872
63866.03617559824,167575.0,95076.0,4649.0,9.574430202395888
63866.04626456578,167572.0,95100.0,4655.0,9.584519169940904
63866.056353533335,167563.0,95077.0,4633.0,9.594608137493196
63866.06644250088,167539.0,95067.0,4633.0,9.604697105038213
63866.076531468425,167558.0,95083.0,4639.0,9.614786072583229
63866.08662043598,167557.0,95084.0,4643.0,9.624875040135521
63866.09670940352,167521.0,95052.0,4658.0,9.634964007680537
63866.10679837107,167554.0,95073.0,4644.0,9.645052975225553
63866.11688733862,167558.0,95101.0,4651.0,9.655141942777846
63866.126976306165,167565.0,95067.0,4664.0,9.665230910322862
63866.13706527371,167520.0,95050.0,4646.0,9.675319877867878
63866.14715424126,167535.0,95059.0,4650.0,9.68540884542017
63866.15724320881,167529.0,95076.0,4674.0,9.695497812965186
63866.16733217635,167505.0,95043.0,4651.0,9.705586780510203
63866.1774211439,167485.0,95070.0,4653.0,9.715675748055219
63866.18751011145,167514.0,95055.0,4671.0,9.72576471560751
63866.197599078994,167498.0,95044.0,4683.0,9.735853683152527
63866.20768804654,167508.0,95054.0,4645.0,9.745942650697543
63866.21777701409,167536.0,95020.0,4704.0,9.756031618249835
63866.22786598164,167532.0,95062.0,4679.0,9.766120585794852
63866.23795494918,167550.0,95074.0,4700.0,9.776209553339868
63866.248043916734,167552.0,95089.0,4709.0,9.78629852089216
63866.25813288428,167542.0,95039.0,4678.0,9.796387488437176
63866.268221851824,167571.0,95070.0,4696.0,9.806476455982192
63866.278310819376,167570.0,95044.0,4683.0,9.816565423534485
63866.28839978692,167592.0,95069.0,4701.0,9.8266543910795
63866.298488754466,167534.0,95033.0,4693.0,9.836743358624517
63866.30857772202,167559.0,95057.0,4679.0,9.84683232617681
63866.31866668956,167524.0,95063.0,4676.0,9.856921293721825
63866.32875565711,167571.0,95062.0,4674.0,9.867010261266842
63866.33884462465,167550.0,95081.0,4650.0,9.877099228811858
63866.348933592206,167509.0,95054.0,4633.0,9.88718819636415
63866.35902255975,167479.0,95056.0,4628.0,9.897277163909166
63866.369111527296,167451.0,95052.0,4611.0,9.907366131454182
63866.37920049485,167482.0,95045.0,4572.0,9.917455099006474
63866.38928946239,167490.0,95064.0,4594.0,9.92754406655149
63866.39937842994,167516.0,95056.0,4583.0,9.937633034096507
63866.40946739749,167484.0,95034.0,4572.0,9.947722001648799
63866.419556365036,167507.0,95043.0,4581.0,9.957810969193815
63866.42964533258,167480.0,95054.0,4556.0,9.967899936738831
63866.43973430013,167530.0,95053.0,4587.0,9.977988904291124
63866.44982326768,167504.0,95072.0,4550.0,9.98807787183614
63866.45991223522,167516.0,95067.0,4542.0,9.998166839381156
63866.470001202775,167551.0,95080.0,4579.0,10.008255806933448
63866.48009017032,167594.0,95101.0,4563.0,10.018344774478464
63866.490179137865,167584.0,95087.0,4577.0,10.02843374202348
63866.50026810542,167605.0,95102.0,4593.0,10.038522709575773
63866.51035707296,167611.0,95112.0,4588.0,10.048611677120789
63866.52044604051,167606.0,95105.0,4623.0,10.058700644665805
63866.53053500805,167638.0,95139.0,4625.0,10.068789612210821
63866.540623975605,167652.0,95131.0,4593.0,10.078878579763114
63866.55071294315,167639.0,95124.0,4618.0,10.08896754730813
63866.560801910695,167586.0,95081.0,4617.0,10.099056514853146
63866.57089087825,167608.0,95106.0,4637.0,10.109145482405438
63866.58097984579,167605.0,95101.0,4597.0,10.119234449950454
63866.59106881334,167640.0,95108.0,4629.0,10.12932341749547
63866.60115778089,167620.0,95131.0,4624.0,10.139412385047763
63866.611246748434,167627.0,95108.0,4631.0,10.149501352592779
63866.62133571598,167612.0,95092.0,4619.0,10.159590320137795
63866.63142468353,167643.0,95131.0,4637.0,10.169679287690087
63866.64151365108,167617.0,95116.0,4636.0,10.179768255235103
63866.65160261862,167651.0,95156.0,4634.0,10.18985722278012
63866.661691586174,167677.0,95150.0,4655.0,10.199946190332412
63866.67178055372,167656.0,95119.0,4645.0,10.210035157877428
63866.681869521264,167672.0,95152.0,4634.0,10.220124125422444
63866.69195848881,167692.0,95138.0,4635.0,10.23021309296746
63866.70204745636,167709.0,95164.0,4622.0,10.240302060519753
63866.71213642391,167711.0,95146.0,4618.0,10.250391028064769
63866.72222539145,167738.0,95170.0,4655.0,10.260479995609785
63866.732314359004,167751.0,95167.0,4654.0,10.270568963162077
63866.74240332655,167792.0,95162.0,4680.0,10.280657930707093
63866.752492294094,167788.0,95171.0,4647.0,10.29074689825211
63866.762581261646,167808.0,95194.0,4686.0,10.300835865804402
63866.77267022919,167802.0,95183.0,4660.0,10.310924833349418
63866.782759196736,167829.0,95209.0,4672.0,10.321013800894434
63866.79284816429,167826.0,95207.0,4684.0,10.331102768446726
63866.80293713183,167845.0,95190.0,4690.0,10.341191735991742
63866.81302609938,167879.0,95199.0,4680.0,10.351280703536759
63866.82311506693,167850.0,95203.0,4674.0,10.36136967108905
63866.833204034476,167901.0,95231.0,4719.0,10.371458638634067
63866.84329300202,167873.0,95204.0,4724.0,10.381547606179083
63866.85338196957,167861.0,95232.0,4710.0,10.391636573731375
63866.86347093712,167915.0,95219.0,4713.0,10.401725541276392
63866.87355990466,167938.0,95256.0,4752.0,10.411814508821408
63866.88364887221,167923.0,95216.0,4742.0,10.421903476366424
63866.89373783976,167897.0,95200.0,4722.0,10.431992443918716
63866.903826807305,167967.0,95259.0,4714.0,10.442081411463732
63866.91391577485,167982.0,95247.0,4735.0,10.452170379008749
63866.9240047424,167961.0,95228.0,4760.0,10.46225934656104
63866.93409370995,167974.0,95219.0,4762.0,10.472348314106057
63866.94418267749,167983.0,95267.0,4787.0,10.482437281651073
63866.954271645045,167948.0,95201.0,4744.0,10.492526249203365
63866.96436061259,167956.0,95241.0,4745.0,10.502615216748381
63866.974449580135,167938.0,95205.0,4736.0,10.512704184293398
63866.98453854769,167926.0,95220.0,4725.0,10.52279315184569
63866.99462751523,167892.0,95206.0,4719.0,10.532882119390706
63867.00471648278,167878.0,95212.0,4708.0,10.542971086935722
63867.01480545033,167878.0,95210.0,4694.0,10.553060054488014
63867.024894417875,167801.0,95207.0,4657.0,10.56314902203303
63867.03498338542,167817.0,95209.0,4642.0,10.573237989578047
63867.04507235297,167814.0,95199.0,4665.0,10.583326957130339
63867.05516132052,167782.0,95196.0,4652.0,10.593415924675355
63867.06525028806,167783.0,95177.0,4622.0,10.603504892220371
63867.07533925561,167798.0,95213.0,4640.0,10.613593859765388
63867.08542822316,167748.0,95174.0,4594.0,10.62368282731768
63867.095517190704,167758.0,95139.0,4583.0,10.633771794862696
63867.10560615825,167772.0,95192.0,4591.0,10.643860762407712
63867.1156951258,167783.0,95185.0,4628.0,10.653949729960004
63867.12578409335,167761.0,95164.0,4613.0,10.66403869750502
63867.13587306089,167768.0,95183.0,4605.0,10.674127665050037
63867.145962028444,167747.0,95206.0,4614.0,10.684216632602329
63867.15605099599,167767.0,95171.0,4591.0,10.694305600147345
63867.166139963534,167786.0,95180.0,4635.0,10.704394567692361
63867.17622893109,167817.0,95194.0,4629.0,10.714483535244653
63867.18631789863,167810.0,95213.0,4648.0,10.72457250278967
63867.19640686618,167808.0,95181.0,4620.0,10.734661470334686
63867.20649583373,167814.0,95222.0,4657.0,10.744750437886978
63867.216584801274,167833.0,95195.0,4644.0,10.754839405431994
63867.22667376882,167809.0,95177.0,4613.0,10.76492837297701
63867.23676273637,167820.0,95204.0,4640.0,10.775017340529303
63867.246851703916,167837.0,95220.0,4669.0,10.785106308074319
63867.25694067146,167841.0,95204.0,4662.0,10.795195275619335
63867.267029639006,167804.0,95204.0,4644.0,10.805284243164351
63867.27711860656,167852.0,95198.0,4676.0,10.815373210716643
63867.2872075741,167847.0,95204.0,4667.0,10.82546217826166
63867.29729654165,167820.0,95212.0,4660.0,10.835551145806676
63867.3073855092,167834.0,95201.0,4643.0,10.845640113358968
63867.317474476746,167854.0,95220.0,4686.0,10.855729080903984
63867.32756344429,167798.0,95185.0,4638.0,10.865818048449
63867.33765241184,167833.0,95208.0,4658.0,10.875907016001293
63867.34774137939,167792.0,95209.0,4644.0,10.885995983546309
63867.35783034693,167808.0,95195.0,4660.0,10.896084951091325
63867.367919314485,167809.0,95187.0,4648.0,10.906173918643617
63867.37800828203,167829.0,95211.0,4644.0,10.916262886188633
63867.388097249575,167858.0,95233.0,4673.0,10.92635185373365
63867.39818621713,167826.0,95207.0,4674.0,10.936440821285942
63867.40827518467,167823.0,95203.0,4650.0,10.946529788830958
63867.41836415222,167859.0,95223.0,4669.0,10.956618756375974
63867.42845311976,167915.0,95223.0,4693.0,10.96670772392099
63867.438542087315,167854.0,95208.0,4669.0,10.976796691473282
63867.44863105486,167913.0,95217.0,4684.0,10.986885659018299
63867.458720022405,167881.0,95230.0,4692.0,10.996974626563315
63867.46880898996,167880.0,95241.0,4709.0,11.007063594115607
63867.4788979575,167879.0,95257.0,4696.0,11.017152561660623
63867.48898692505,167919.0,95219.0,4689.0,11.02724152920564
63867.4990758926,167893.0,95211.0,4696.0,11.037330496757932
63867.509164860145,167891.0,95218.0,4700.0,11.047419464302948
63867.51925382769,167921.0,95216.0,4707.0,11.057508431847964
63867.52934279524,167923.0,95250.0,4731.0,11.067597399400256
63867.53943176279,167928.0,95229.0,4706.0,11.077686366945272
63867.54952073033,167895.0,95224.0,4717.0,11.087775334490289
63867.559609697884,167927.0,95246.0,4749.0,11.09786430204258
63867.56969866543,167913.0,95223.0,4730.0,11.107953269587597
63867.579787632974,167954.0,95257.0,4751.0,11.118042237132613
63867.58987660053,167928.0,95263.0,4740.0,11.128131204684905
63867.59996556807,167960.0,95271.0,4763.0,11.138220172229921
63867.61005453562,167920.0,95241.0,4739.0,11.148309139774938
63867.62014350316,167928.0,95240.0,4759.0,11.158398107319954
63867.630232470714,167909.0,95262.0,4750.0,11.168487074872246
63867.64032143826,167837.0,95185.0,4711.0,11.178576042417262
63867.650410405804,167823.0,95196.0,4686.0,11.188665009962278
63867.660499373356,167775.0,95195.0,4701.0,11.19875397751457
63867.6705883409,167754.0,95202.0,4658.0,11.208842945059587
63867.680677308446,167703.0,95182.0,4644.0,11.218931912604603
63867.690766276,167689.0,95200.0,4637.0,11.229020880156895
63867.70085524354,167669.0,95153.0,4634.0,11.239109847701911
63867.71094421109,167649.0,95166.0,4589.0,11.249198815246928
63867.72103317864,167566.0,95131.0,4578.0,11.25928778279922
63867.731122146186,167623.0,95149.0,4591.0,11.269376750344236
63867.74121111373,167567.0,95144.0,4582.0,11.279465717889252
63867.75130008128,167600.0,95147.0,4571.0,11.289554685441544
63867.76138904883,167580.0,95152.0,4599.0,11.29964365298656
63867.77147801637,167561.0,95120.0,4568.0,11.309732620531577
63867.78156698392,167565.0,95104.0,4548.0,11.319821588076593
63867.79165595147,167568.0,95142.0,4557.0,11.329910555628885
63867.801744919016,167588.0,95159.0,4560.0,11.339999523173901
63867.81183388656,167560.0,95143.0,4552.0,11.350088490718917
63867.82192285411,167586.0,95170.0,4599.0,11.36017745827121
63867.83201182166,167571.0,95140.0,4576.0,11.370266425816226
63867.8421007892,167598.0,95162.0,4570.0,11.380355393361242
63867.852189756755,167545.0,95135.0,4558.0,11.390444360913534
63867.8622787243,167564.0,95131.0,4591.0,11.40053332845855
63867.872367691845,167575.0,95146.0,4585.0,11.410622296003567
63867.8824566594,167573.0,95132.0,4621.0,11.420711263555859
63867.89254562694,167580.0,95170.0,4579.0,11.430800231100875
63867.90263459449,167593.0,95182.0,4631.0,11.440889198645891
63867.91272356204,167560.0,95138.0,4600.0,11.450978166198183
63867.922812529585,167543.0,95131.0,4584.0,11.4610671337432
63867.93290149713,167581.0,95161.0,4592.0,11.471156101288216
63867.94299046468,167544.0,95147.0,4621.0,11.481245068840508
63867.95307943223,167532.0,95151.0,4595.0,11.491334036385524
63867.96316839977,167535.0,95117.0,4587.0,11.50142300393054
63867.97325736732,167531.0,95129.0,4595.0,11.511511971475556
63867.98334633487,167507.0,95138.0,4573.0,11.521600939027849
63867.993435302415,167550.0,95135.0,4578.0,11.531689906572865
63868.00352426996,167546.0,95147.0,4566.0,11.541778874117881
63868.01361323751,167531.0,95152.0,4620.0,11.551867841670173
63868.02370220506,167538.0,95129.0,4586.0,11.56195680921519
63868.0337911726,167559.0,95163.0,4599.0,11.572045776760206
63868.043880140154,167564.0,95174.0,4608.0,11.582134744312498
63868.0539691077,167541.0,95144.0,4578.0,11.592223711857514
63868.064058075244,167611.0,95183.0,4585.0,11.60231267940253
63868.0741470428,167604.0,95165.0,4628.0,11.612401646954822
63868.08423601034,167579.0,95165.0,4622.0,11.622490614499839
63868.09432497789,167603.0,95173.0,4609.0,11.632579582044855
63868.10441394544,167618.0,95212.0,4653.0,11.642668549597147
63868.114502912984,167646.0,95178.0,4622.0,11.652757517142163
63868.12459188053,167637.0,95168.0,4633.0,11.66284648468718
63868.134680848074,167632.0,95184.0,4632.0,11.672935452232196
63868.144769815626,167639.0,95172.0,4638.0,11.683024419784488
63868.15485878317,167638.0,95160.0,4639.0,11.693113387329504
63868.164947750716,167674.0,95216.0,4669.0,11.70320235487452
63868.17503671827,167668.0,95214.0,4655.0,11.713291322426812
63868.18512568581,167664.0,95184.0,4657.0,11.723380289971828
63868.19521465336,167676.0,95194.0,4652.0,11.733469257516845
63868.20530362091,167693.0,95198.0,4678.0,11.743558225069137
63868.215392588456,167696.0,95212.0,4711.0,11.753647192614153
63868.225481556,167680.0,95172.0,4666.0,11.76373616015917
63868.23557052355,167705.0,95216.0,4707.0,11.773825127711461
63868.2456594911,167727.0,95205.0,4692.0,11.783914095256478
63868.25574845864,167758.0,95193.0,4728.0,11.794003062801494
63868.265837426196,167748.0,95224.0,4680.0,11.804092030353786
63868.27592639374,167717.0,95205.0,4724.0,11.814180997898802
63868.286015361286,167675.0,95192.0,4693.0,11.824269965443818
63868.29610432884,167630.0,95171.0,4655.0,11.83435893299611
63868.30619329638,167574.0,95197.0,4660.0,11.844447900541127
63868.31628226393,167580.0,95168.0,4671.0,11.854536868086143
63868.32637123147,167524.0,95142.0,4630.0,11.86462583563116
63868.336460199025,167460.0,95123.0,4602.0,11.874714803183451
63868.34654916657,167471.0,95140.0,4576.0,11.884803770728467
63868.356638134115,167403.0,95109.0,4564.0,11.894892738273484
63868.36672710167,167380.0,95124.0,4547.0,11.904981705825776
63868.37681606921,167377.0,95116.0,4540.0,11.915070673370792
63868.38690503676,167317.0,95090.0,4523.0,11.925159640915808
63868.39699400431,167312.0,95086.0,4519.0,11.9352486084681
63868.407082971855,167310.0,95095.0,4516.0,11.945337576013117
63868.4171719394,167291.0,95089.0,4519.0,11.955426543558133
63868.42726090695,167244.0,95074.0,4497.0,11.965515511110425
63868.4373498745,167236.0,95085.0,4518.0,11.975604478655441
63868.44743884204,167270.0,95083.0,4514.0,11.985693446200457
63868.457527809594,167266.0,95079.0,4531.0,11.99578241375275
63868.46761677714,167234.0,95054.0,4521.0,12.005871381297766
63868.477705744684,167276.0,95091.0,4531.0,12.015960348842782
63868.48779471224,167272.0,95095.0,4516.0,12.026049316395074
63868.49788367978,167252.0,95050.0,4513.0,12.03613828394009
63868.50797264733,167243.0,95106.0,4548.0,12.046227251485107
63868.51806161487,167290.0,95113.0,4545.0,12.056316219030123
63868.528150582424,167269.0,95094.0,4528.0,12.066405186582415
63868.53823954997,167247.0,95083.0,4527.0,12.076494154127431
63868.548328517514,167255.0,95068.0,4540.0,12.086583121672447
63868.55841748507,167283.0,95112.0,4541.0,12.09667208922474
63868.56850645261,167238.0,95080.0,4521.0,12.106761056769756
63868.57859542016,167242.0,95108.0,4533.0,12.116850024314772
63868.58868438771,167242.0,95106.0,4551.0,12.126938991867064
63868.598773355254,167233.0,95077.0,4538.0,12.13702795941208
63868.6088623228,167228.0,95089.0,4544.0,12.147116926957096
63868.61895129035,167215.0,95041.0,4538.0,12.157205894509389
63868.629040257896,167253.0,95098.0,4566.0,12.167294862054405
63868.63912922544,167184.0,95069.0,4509.0,12.177383829599421
63868.64921819299,167225.0,95080.0,4557.0,12.187472797151713
63868.65930716054,167213.0,95101.0,4543.0,12.19756176469673
63868.66939612808,167181.0,95054.0,4526.0,12.207650732241746
63868.679485095636,167201.0,95052.0,4545.0,12.217739699794038
63868.68957406318,167175.0,95067.0,4536.0,12.227828667339054
63868.699663030726,167163.0,95055.0,4523.0,12.23791763488407
63868.70975199827,167163.0,95063.0,4533.0,12.248006602429086
63868.71984096582,167196.0,95063.0,4545.0,12.258095569981379
63868.72992993337,167195.0,95062.0,4566.0,12.268184537526395
63868.74001890091,167199.0,95074.0,4549.0,12.278273505071411
63868.750107868465,167199.0,95052.0,4539.0,12.288362472623703
63868.76019683601,167219.0,95107.0,4553.0,12.29845144016872
63868.770285803555,167202.0,95080.0,4554.0,12.308540407713735
63868.78037477111,167225.0,95077.0,4578.0,12.318629375266028
63868.79046373865,167217.0,95081.0,4581.0,12.328718342811044
63868.8005527062,167218.0,95077.0,4579.0,12.33880731035606
63868.81064167375,167222.0,95047.0,4588.0,12.348896277908352
63868.820730641295,167241.0,95082.0,4586.0,12.358985245453368
63868.83081960884,167258.0,95075.0,4601.0,12.369074212998385
63868.84090857639,167206.0,95069.0,4570.0,12.379163180550677
63868.85099754394,167240.0,95071.0,4598.0,12.389252148095693
63868.86108651148,167253.0,95078.0,4605.0,12.39934111564071
63868.87117547903,167275.0,95117.0,4623.0,12.409430083185725
63868.88126444658,167255.0,95064.0,4609.0,12.419519050738018
63868.891353414125,167307.0,95112.0,4611.0,12.429608018283034
63868.90144238167,167273.0,95079.0,4615.0,12.43969698582805
63868.91153134922,167252.0,95078.0,4631.0,12.449785953380342
63868.92162031677,167261.0,95068.0,4626.0,12.459874920925358
63868.93170928431,167241.0,95118.0,4641.0,12.469963888470375
63868.941798251864,167270.0,95083.0,4638.0,12.480052856022667
63868.95188721941,167249.0,95067.0,4614.0,12.490141823567683
63868.961976186954,167260.0,95087.0,4614.0,12.500230791112699
63868.97206515451,167183.0,95053.0,4624.0,12.510319758664991
63868.98215412205,167145.0,95057.0,4587.0,12.520408726210007
63868.9922430896,167105.0,95034.0,4573.0,12.530497693755024
63869.00233205715,167049.0,95001.0,4564.0,12.540586661307316
63869.012421024694,167011.0,94999.0,4520.0,12.550675628852332
63869.02250999224,167002.0,95004.0,4510.0,12.560764596397348
63869.03259895979,166977.0,94989.0,4505.0,12.57085356394964
63869.04268792734,166934.0,94998.0,4474.0,12.580942531494657
63869.05277689488,166945.0,95006.0,4461.0,12.591031499039673
63869.06286586243,166901.0,94982.0,4460.0,12.601120466584689
63869.07295482998,166857.0,94956.0,4493.0,12.611209434136981
63869.083043797524,166873.0,94981.0,4463.0,12.621298401681997
63869.09313276507,166856.0,94951.0,4472.0,12.631387369227014
63869.10322173262,166794.0,94966.0,4431.0,12.641476336779306
63869.113310700166,166840.0,94937.0,4464.0,12.651565304324322
63869.12339966771,166835.0,94968.0,4462.0,12.661654271869338
63869.13348863526,166818.0,94979.0,4459.0,12.67174323942163
63869.14357760281,166797.0,94968.0,4434.0,12.681832206966646
63869.15366657035,166830.0,94948.0,4470.0,12.691921174511663
63869.163755537906,166839.0,94938.0,4473.0,12.702010142063955
63869.17384450545,166844.0,94986.0,4494.0,12.712099109608971
63869.183933472996,166836.0,95008.0,4483.0,12.722188077153987
63869.19402244055,166825.0,94970.0,4481.0,12.73227704470628
63869.20411140809,166818.0,94956.0,4477.0,12.742366012251296
63869.21420037564,166860.0,94984.0,4510.0,12.752454979796312
63869.22428934318,166830.0,94959.0,4465.0,12.762543947341328
63869.234378310735,166828.0,94962.0,4477.0,12.77263291489362
63869.24446727828,166803.0,94958.0,4486.0,12.782721882438636
63869.254556245825,166816.0,94974.0,4523.0,12.792810849983653
63869.26464521338,166791.0,94940.0,4484.0,12.802899817535945
63869.27473418092,166814.0,94971.0,4496.0,12.812988785080961
63869.28482314847,166802.0,94953.0,4475.0,12.823077752625977
63869.29491211602,166783.0,94960.0,4469.0,12.83316672017827
63869.305001083565,166781.0,94945.0,4472.0,12.843255687723286
63869.31509005111,166790.0,94963.0,4497.0,12.853344655268302
63869.32517901866,166772.0,94931.0,4483.0,12.863433622820594
63869.33526798621,166770.0,94947.0,4479.0,12.87352259036561
63869.34535695375,166763.0,94955.0,4479.0,12.883611557910626
63869.355445921305,166785.0,94952.0,4497.0,12.893700525462918
63869.36553488885,166766.0,94965.0,4491.0,12.903789493007935
63869.375623856395,166765.0,94921.0,4490.0,12.91387846055295
63869.38571282395,166787.0,94988.0,4521.0,12.923967428105243
63869.39580179149,166770.0,94961.0,4503.0,12.93405639565026
63869.40589075904,166781.0,94980.0,4533.0,12.944145363195275
63869.41597972658,166788.0,94982.0,4531.0,12.954234330740292
63869.426068694134,166773.0,94930.0,4528.0,12.964323298292584
63869.43615766168,166802.0,94964.0,4527.0,12.9744122658376
63869.446246629224,166789.0,94958.0,4546.0,12.984501233382616
63869.45633559678,166793.0,94963.0,4516.0,12.994590200934908
63869.46642456432,166798.0,94960.0,4557.0,13.004679168479925
63869.47651353187,166811.0,94965.0,4548.0,13.01476813602494
63869.48660249942,166823.0,94967.0,4567.0,13.024857103577233
63869.496691466964,166802.0,94958.0,4562.0,13.03494607112225
63869.50678043451,166808.0,94934.0,4555.0,13.045035038667265
63869.51686940206,166823.0,94955.0,4558.0,13.055124006219557
63869.526958369606,166820.0,94965.0,4538.0,13.065212973764574
63869.53704733715,166825.0,94967.0,4552.0,13.07530194130959
63869.5471363047,166866.0,94987.0,4585.0,13.085390908861882
63869.55722527225,166855.0,94974.0,4578.0,13.095479876406898
63869.56731423979,166816.0,94994.0,4591.0,13.105568843951914
63869.577403207346,166838.0,94963.0,4588.0,13.115657811504207
63869.58749217489,166870.0,94990.0,4578.0,13.125746779049223
63869.597581142436,166878.0,94984.0,4600.0,13.135835746594239
63869.60767010998,166892.0,94959.0,4598.0,13.145924714139255
63869.61775907753,166868.0,94972.0,4588.0,13.156013681691547
63869.62784804508,166886.0,94955.0,4596.0,13.166102649236564
63869.63793701262,166860.0,94983.0,4583.0,13.17619161678158
63869.648025980176,166915.0,95000.0,4612.0,13.186280584333872
63869.65811494772,166887.0,95008.0,4622.0,13.196369551878888
63869.668203915266,166867.0,94995.0,4616.0,13.206458519423904
63869.67829288282,166817.0,94952.0,4598.0,13.216547486976197
63869.68838185036,166823.0,94958.0,4558.0,13.226636454521213
63869.69847081791,166738.0,94942.0,4550.0,13.236725422066229
63869.70855978546,166695.0,94902.0,4528.0,13.246814389618521
63869.718648753005,166712.0,94959.0,4520.0,13.256903357163537
63869.72873772055,166679.0,94925.0,4501.0,13.266992324708553
63869.7388266881,166623.0,94896.0,4516.0,13.277081292260846
63869.74891565565,166636.0,94931.0,4493.0,13.287170259805862
63869.75900462319,166553.0,94887.0,4453.0,13.297259227350878
63869.76909359074,166547.0,94888.0,4450.0,13.307348194895894
63869.77918255829,166529.0,94873.0,4478.0,13.317437162448186
63869.789271525835,166515.0,94868.0,4434.0,13.327526129993203
63869.79936049338,166556.0,94879.0,4432.0,13.337615097538219
63869.80944946093,166534.0,94893.0,4453.0,13.347704065090511
63869.81953842848,166498.0,94877.0,4427.0,13.357793032635527
63869.82962739602,166514.0,94863.0,4461.0,13.367882000180543
63869.839716363575,166531.0,94906.0,4482.0,13.377970967732836
63869.84980533112,166498.0,94878.0,4455.0,13.388059935277852
63869.859894298665,166505.0,94870.0,4435.0,13.398148902822868
63869.86998326622,166491.0,94856.0,4465.0,13.40823787037516
63869.88007223376,166492.0,94883.0,4484.0,13.418326837920176
63869.89016120131,166492.0,94885.0,4471.0,13.428415805465193
63869.90025016886,166471.0,94894.0,4509.0,13.438504773017485
63869.910339136404,166506.0,94879.0,4498.0,13.448593740562501
63869.92042810395,166483.0,94881.0,4495.0,13.458682708107517
63869.9305170715,166475.0,94880.0,4478.0,13.46877167565981
63869.94060603905,166466.0,94866.0,4486.0,13.478860643204825
63869.95069500659,166464.0,94861.0,4501.0,13.488949610749842
63869.96078397414,166479.0,94849.0,4462.0,13.499038578294858
63869.97087294169,166485.0,94877.0,4488.0,13.50912754584715
63869.980961909234,166493.0,94891.0,4503.0,13.519216513392166
63869.99105087678,166444.0,94837.0,4491.0,13.529305480937182
63870.00113984433,166450.0,94840.0,4483.0,13.539394448489475
63870.011228811876,166446.0,94869.0,4485.0,13.54948341603449
63870.02131777942,166462.0,94848.0,4515.0,13.559572383579507
63870.03140674697,166424.0,94876.0,4500.0,13.5696613511318
63870.04149571452,166433.0,94876.0,4503.0,13.579750318676815
63870.05158468206,166420.0,94856.0,4484.0,13.589839286221832
63870.061673649616,166448.0,94877.0,4472.0,13.599928253774124
63870.07176261716,166415.0,94820.0,4474.0,13.61001722131914
63870.081851584706,166451.0,94888.0,4478.0,13.620106188864156
63870.09194055226,166438.0,94864.0,4460.0,13.630195156416448
63870.1020295198,166435.0,94823.0,4503.0,13.640284123961465
63870.11211848735,166476.0,94899.0,4510.0,13.65037309150648
63870.1222074549,166478.0,94845.0,4524.0,13.660462059058773
63870.132296422446,166451.0,94868.0,4506.0,13.670551026603789
63870.14238538999,166460.0,94875.0,4523.0,13.680639994148805
63870.152474357536,166479.0,94901.0,4525.0,13.690728961693821
63870.16256332509,166464.0,94862.0,4497.0,13.700817929246114
63870.17265229263,166465.0,94862.0,4525.0,13.71090689679113
63870.18274126018,166470.0,94870.0,4526.0,13.720995864336146
63870.19283022773,166467.0,94844.0,4529.0,13.731084831888438
63870.202919195275,166470.0,94868.0,4538.0,13.741173799433454
63870.21300816282,166501.0,94879.0,4531.0,13.75126276697847
63870.22309713037,166502.0,94882.0,4546.0,13.761351734530763
63870.23318609792,166469.0,94864.0,4577.0,13.771440702075779
63870.24327506546,166507.0,94884.0,4579.0,13.781529669620795
63870.253364033015,166481.0,94852.0,4537.0,13.791618637173087
63870.26345300056,166499.0,94863.0,4558.0,13.801707604718104
63870.273541968105,166482.0,94847.0,4546.0,13.81179657226312
63870.28363093566,166542.0,94891.0,4539.0,13.821885539815412
63870.2937199032,166516.0,94853.0,4567.0,13.831974507360428
63870.30380887075,166508.0,94866.0,4575.0,13.842063474905444
63870.31389783829,166515.0,94866.0,4589.0,13.85215244245046
63870.323986805844,166548.0,94869.0,4607.0,13.862241410002753
63870.33407577339,166539.0,94867.0,4594.0,13.872330377547769
63870.344164740935,166543.0,94886.0,4586.0,13.882419345092785
63870.35425370849,166571.0,94910.0,4580.0,13.892508312645077
63870.36434267603,166555.0,94896.0,4587.0,13.902597280190093
63870.37443164358,166542.0,94890.0,4579.0,13.91268624773511
63870.38452061113,166546.0,94886.0,4602.0,13.922775215287402
63870.394609578674,166555.0,94893.0,4591.0,13.932864182832418
63870.40469854622,166491.0,94863.0,4569.0,13.942953150377434
63870.41478751377,166479.0,94848.0,4589.0,13.953042117929726
63870.42487648132,166476.0,94866.0,4559.0,13.963131085474743
63870.43496544886,166431.0,94831.0,4571.0,13.973220053019759
63870.445054416414,166425.0,94852.0,4537.0,13.983309020572051
63870.45514338396,166398.0,94864.0,4535.0,13.993397988117067
63870.465232351504,166353.0,94823.0,4490.0,14.003486955662083
63870.475321319056,166335.0,94827.0,4456.0,14.013575923214376
63870.4854102866,166335.0,94848.0,4456.0,14.023664890759392
63870.495499254146,166286.0,94817.0,4477.0,14.033753858304408
63870.50558822169,166269.0,94817.0,4446.0,14.043842825849424
63870.51567718924,166244.0,94776.0,4430.0,14.053931793401716
63870.52576615679,166213.0,94815.0,4472.0,14.064020760946732
63870.53585512433,166203.0,94772.0,4443.0,14.074109728491749
63870.545944091886,166212.0,94794.0,4448.0,14.08419869604404
63870.55603305943,166234.0,94801.0,4433.0,14.094287663589057
63870.566122026976,166198.0,94773.0,4438.0,14.104376631134073
63870.57621099453,166176.0,94778.0,4454.0,14.114465598686365
63870.58629996207,166191.0,94790.0,4462.0,14.124554566231382
63870.59638892962,166205.0,94807.0,4466.0,14.134643533776398
63870.60647789717,166169.0,94768.0,4466.0,14.14473250132869
63870.616566864715,166203.0,94798.0,4449.0,14.154821468873706
63870.62665583226,166207.0,94788.0,4506.0,14.164910436418722
63870.63674479981,166191.0,94799.0,4482.0,14.174999403971015
63870.64683376736,166188.0,94810.0,4509.0,14.18508837151603
63870.6569227349,166173.0,94807.0,4500.0,14.195177339061047
63870.66701170245,166200.0,94777.0,4469.0,14.205266306606063
63870.67710067,166207.0,94777.0,4486.0,14.215355274158355
63870.687189637545,166198.0,94786.0,4476.0,14.225444241703372
63870.69727860509,166237.0,94800.0,4514.0,14.235533209248388
63870.70736757264,166140.0,94757.0,4477.0,14.24562217680068
63870.71745654019,166200.0,94793.0,4489.0,14.255711144345696
63870.72754550773,166167.0,94814.0,4484.0,14.265800111890712
63870.737634475285,166210.0,94780.0,4516.0,14.275889079443004
63870.74772344283,166177.0,94773.0,4465.0,14.28597804698802
63870.757812410375,166179.0,94789.0,4486.0,14.296067014533037
63870.76790137793,166156.0,94766.0,4501.0,14.306155982085329
63870.77799034547,166141.0,94763.0,4481.0,14.316244949630345
63870.78807931302,166125.0,94791.0,4493.0,14.326333917175361
63870.79816828057,166173.0,94772.0,4493.0,14.336422884727654
63870.808257248114,166204.0,94778.0,4515.0,14.34651185227267
63870.81834621566,166175.0,94762.0,4474.0,14.356600819817686
63870.82843518321,166200.0,94794.0,4515.0,14.366689787369978
63870.83852415076,166211.0,94795.0,4510.0,14.376778754914994
63870.8486131183,166176.0,94791.0,4503.0,14.38686772246001
63870.85870208585,166139.0,94785.0,4492.0,14.396956690005027
63870.8687910534,166226.0,94777.0,4532.0,14.407045657557319
63870.878880020944,166203.0,94794.0,4517.0,14.417134625102335
63870.88896898849,166173.0,94760.0,4520.0,14.427223592647351
63870.89905795604,166233.0,94765.0,4523.0,14.437312560199643
63870.90914692359,166212.0,94780.0,4535.0,14.44740152774466
63870.91923589113,166231.0,94781.0,4543.0,14.457490495289676
63870.929324858684,166208.0,94788.0,4538.0,14.467579462841968
63870.93941382623,166271.0,94815.0,4566.0,14.477668430386984
63870.949502793774,166244.0,94778.0,4532.0,14.487757397932
63870.959591761326,166281.0,94806.0,4553.0,14.497846365484293
63870.96968072887,166327.0,94829.0,4574.0,14.507935333029309
63870.979769696416,166280.0,94785.0,4583.0,14.518024300574325
63870.98985866397,166283.0,94802.0,4550.0,14.528113268126617
63870.99994763151,166333.0,94829.0,4575.0,14.538202235671633
63871.01003659906,166361.0,94827.0,4599.0,14.54829120321665
63871.02012556661,166327.0,94807.0,4587.0,14.558380170768942
63871.030214534156,166373.0,94820.0,4591.0,14.568469138313958
63871.0403035017,166384.0,94840.0,4595.0,14.578558105858974
63871.050392469246,166384.0,94833.0,4612.0,14.58864707340399
63871.0604814368,166376.0,94841.0,4587.0,14.598736040956283
63871.07057040434,166431.0,94831.0,4621.0,14.608825008501299
63871.08065937189,166410.0,94840.0,4617.0,14.618913976046315
63871.09074833944,166411.0,94814.0,4609.0,14.629002943598607
63871.100837306985,166450.0,94841.0,4605.0,14.639091911143623
63871.11092627453,166377.0,94832.0,4610.0,14.64918087868864
63871.12101524208,166407.0,94837.0,4576.0,14.659269846240932
63871.13110420963,166387.0,94823.0,4610.0,14.669358813785948
63871.14119317717,166392.0,94856.0,4607.0,14.679447781330964
63871.151282144725,166348.0,94835.0,4545.0,14.689536748883256
63871.16137111227,166327.0,94825.0,4550.0,14.699625716428272
63871.171460079815,166320.0,94776.0,4531.0,14.709714683973289
63871.18154904737,166320.0,94790.0,4555.0,14.71980365152558
63871.19163801491,166260.0,94794.0,4500.0,14.729892619070597
63871.20172698246,166256.0,94799.0,4505.0,14.739981586615613
63871.21181595001,166258.0,94803.0,4505.0,14.750070554167905
63871.221904917555,166240.0,94784.0,4485.0,14.760159521712922
63871.2319938851,166201.0,94787.0,4501.0,14.770248489257938
63871.242082852645,166224.0,94805.0,4498.0,14.780337456802954
63871.2521718202,166185.0,94783.0,4500.0,14.790426424355246
63871.26226078774,166163.0,94786.0,4472.0,14.800515391900262
63871.27234975529,166222.0,94786.0,4513.0,14.810604359445279
63871.28243872284,166210.0,94806.0,4525.0,14.82069332699757
63871.292527690384,166213.0,94788.0,4518.0,14.830782294542587
63871.30261665793,166193.0,94758.0,4481.0,14.840871262087603
63871.31270562548,166243.0,94818.0,4526.0,14.850960229639895
63871.32279459303,166203.0,94772.0,4516.0,14.861049197184911
63871.33288356057,166231.0,94803.0,4528.0,14.871138164729928
63871.342972528124,166254.0,94799.0,4533.0,14.88122713228222
63871.35306149567,166251.0,94788.0,4546.0,14.891316099827236
63871.363150463214,166244.0,94807.0,4525.0,14.901405067372252
63871.373239430766,166288.0,94817.0,4556.0,14.911494034924544
63871.38332839831,166305.0,94826.0,4559.0,14.92158300246956
63871.393417365856,166296.0,94817.0,4582.0,14.931671970014577
63871.4035063334,166294.0,94820.0,4545.0,14.941760937559593
63871.41359530095,166318.0,94821.0,4558.0,14.951849905111885
63871.4236842685,166335.0,94848.0,4561.0,14.961938872656901
63871.43377323604,166306.0,94815.0,4534.0,14.972027840201918
63871.443862203596,166334.0,94832.0,4536.0,14.98211680775421
63871.45395117114,166358.0,94833.0,4553.0,14.992205775299226
63871.464040138686,166330.0,94821.0,4550.0,15.002294742844242
63871.47412910624,166339.0,94859.0,4579.0,15.012383710396534
63871.48421807378,166375.0,94819.0,4580.0,15.02247267794155
63871.49430704133,166369.0,94842.0,4565.0,15.032561645486567
63871.50439600888,166400.0,94837.0,4535.0,15.042650613038859
63871.514484976426,166372.0,94830.0,4576.0,15.052739580583875
63871.52457394397,166396.0,94849.0,4589.0,15.062828548128891
63871.53466291152,166414.0,94858.0,4585.0,15.072917515681183
63871.54475187907,166431.0,94848.0,4575.0,15.0830064832262
63871.55484084661,166431.0,94880.0,4604.0,15.093095450771216
63871.564929814165,166438.0,94847.0,4570.0,15.103184418323508
63871.57501878171,166484.0,94887.0,4608.0,15.113273385868524
63871.585107749255,166505.0,94909.0,4587.0,15.12336235341354
63871.5951967168,166540.0,94903.0,4632.0,15.133451320958557
63871.60528568435,166497.0,94882.0,4610.0,15.143540288510849
63871.6153746519,166550.0,94894.0,4620.0,15.153629256055865
63871.62546361944,166542.0,94928.0,4628.0,15.163718223600881
63871.635552586995,166581.0,94866.0,4608.0,15.173807191153173
63871.64564155454,166587.0,94904.0,4634.0,15.18389615869819
63871.655730522085,166602.0,94915.0,4640.0,15.193985126243206
63871.66581948964,166608.0,94903.0,4688.0,15.204074093795498
63871.67590845718,166611.0,94927.0,4651.0,15.214163061340514
63871.68599742473,166679.0,94963.0,4688.0,15.22425202888553
63871.69608639228,166703.0,94938.0,4699.0,15.234340996437822
63871.706175359825,166704.0,94936.0,4683.0,15.244429963982839
63871.71626432737,166709.0,94952.0,4685.0,15.254518931527855
63871.72635329492,166757.0,94974.0,4715.0,15.264607899080147
63871.73644226247,166742.0,94947.0,4696.0,15.274696866625163
63871.74653123001,166767.0,94975.0,4704.0,15.28478583417018
63871.75662019756,166755.0,94971.0,4700.0,15.294874801715196
63871.76670916511,166776.0,94962.0,4726.0,15.304963769267488
63871.776798132654,166793.0,94977.0,4727.0,15.315052736812504
63871.7868871002,166806.0,94987.0,4725.0,15.32514170435752
63871.79697606775,166800.0,94965.0,4729.0,15.335230671909812
63871.8070650353,166790.0,94977.0,4742.0,15.345319639454829
63871.81715400284,166781.0,94991.0,4716.0,15.355408606999845
63871.827242970394,166801.0,94985.0,4708.0,15.365497574552137
63871.83733193794,166808.0,94985.0,4711.0,15.375586542097153
63871.847420905484,166756.0,94955.0,4680.0,15.38567550964217
63871.857509873036,166771.0,94946.0,4665.0,15.395764477194462
63871.86759884058,166772.0,94975.0,4659.0,15.405853444739478
63871.877687808126,166713.0,94975.0,4638.0,15.415942412284494
63871.88777677568,166736.0,94992.0,4658.0,15.426031379836786
63871.89786574322,166760.0,94985.0,4647.0,15.436120347381802
63871.90795471077,166710.0,94948.0,4642.0,15.446209314926818
63871.91804367832,166724.0,94953.0,4634.0,15.45629828247911
63871.928132645866,166743.0,94953.0,4621.0,15.466387250024127
63871.93822161341,166719.0,94966.0,4631.0,15.476476217569143
63871.948310580956,166743.0,94987.0,4630.0,15.48656518511416
63871.95839954851,166735.0,94983.0,4630.0,15.496654152666451
63871.96848851605,166760.0,94990.0,4631.0,15.506743120211468
63871.9785774836,166748.0,94956.0,4642.0,15.516832087756484
63871.98866645115,166789.0,94989.0,4660.0,15.526921055308776
63871.998755418696,166795.0,94970.0,4650.0,15.537010022853792
63872.00884438624,166825.0,95004.0,4682.0,15.547098990398808
63872.01893335379,166822.0,94971.0,4650.0,15.5571879579511
63872.02902232134,166843.0,95017.0,4679.0,15.567276925496117
63872.03911128888,166849.0,94994.0,4712.0,15.577365893041133
63872.049200256435,166845.0,94999.0,4692.0,15.587454860593425
63872.05928922398,166860.0,95000.0,4679.0,15.597543828138441
63872.069378191525,166896.0,95039.0,4701.0,15.607632795683458
63872.07946715908,166890.0,95041.0,4706.0,15.61772176323575
63872.08955612662,166857.0,95067.0,4718.0,15.627810730780766
63872.09964509417,166922.0,95074.0,4733.0,15.637899698325782
63872.10973406171,166936.0,95050.0,4704.0,15.647988665870798
63872.119823029265,166935.0,95029.0,4711.0,15.65807763342309
63872.12991199681,166903.0,95019.0,4696.0,15.668166600968107
63872.140000964355,166942.0,95078.0,4722.0,15.678255568513123
63872.15008993191,166941.0,95054.0,4690.0,15.688344536065415
63872.16017889945,166927.0,95046.0,4712.0,15.698433503610431
63872.170267867,166968.0,95080.0,4743.0,15.708522471155447
63872.18035683455,166932.0,95022.0,4715.0,15.71861143870774
63872.190445802094,166949.0,95053.0,4706.0,15.728700406252756
63872.20053476964,166930.0,95036.0,4714.0,15.738789373797772
63872.21062373719,166993.0,95073.0,4717.0,15.748878341350064
63872.22071270474,166968.0,95042.0,4761.0,15.75896730889508
63872.23080167228,166988.0,95033.0,4738.0,15.769056276440097
63872.240890639834,167016.0,95069.0,4732.0,15.779145243992389
63872.25097960738,166997.0,95053.0,4729.0,15.789234211537405
63872.261068574924,166990.0,95066.0,4727.0,15.799323179082421
63872.27115754248,167048.0,95105.0,4777.0,15.809412146634713
63872.28124651002,167047.0,95083.0,4748.0,15.81950111417973
63872.29133547757,167037.0,95080.0,4745.0,15.829590081724746
63872.30142444512,167075.0,95082.0,4760.0,15.839679049277038
63872.311513412664,167134.0,95131.0,4784.0,15.849768016822054
63872.32160238021,167104.0,95101.0,4781.0,15.85985698436707
63872.331691347754,167099.0,95089.0,4752.0,15.869945951912086
63872.341780315306,167141.0,95110.0,4766.0,15.880034919464379
63872.35186928285,167142.0,95087.0,4818.0,15.890123887009395
63872.361958250396,167154.0,95107.0,4802.0,15.900212854554411
63872.37204721795,167160.0,95078.0,4796.0,15.910301822106703
63872.38213618549,167183.0,95093.0,4828.0,15.92039078965172
63872.39222515304,167189.0,95094.0,4803.0,15.930479757196736
63872.40231412059,167201.0,95125.0,4822.0,15.940568724749028
63872.412403088136,167197.0,95134.0,4794.0,15.950657692294044
63872.42249205568,167221.0,95088.0,4826.0,15.96074665983906
63872.43258102323,167219.0,95111.0,4854.0,15.970835627391352
63872.44266999078,167224.0,95143.0,4816.0,15.980924594936369
63872.45275895832,167215.0,95152.0,4837.0,15.991013562481385
63872.462847925875,167233.0,95154.0,4849.0,16.001102530033677
63872.47293689342,167212.0,95167.0,4837.0,16.011191497578693
63872.483025860965,167190.0,95116.0,4817.0,16.02128046512371
63872.49311482851,167164.0,95106.0,4801.0,16.031369432668725
63872.50320379606,167131.0,95098.0,4786.0,16.041458400221018
63872.51329276361,167096.0,95135.0,4765.0,16.051547367766034
63872.52338173115,167091.0,95104.0,4749.0,16.06163633531105
63872.533470698705,167032.0,95079.0,4709.0,16.071725302863342
63872.54355966625,167027.0,95076.0,4711.0,16.08181427040836
63872.553648633795,167044.0,95085.0,4723.0,16.091903237953375
63872.56373760135,166995.0,95074.0,4710.0,16.101992205505667
63872.57382656889,167023.0,95092.0,4701.0,16.112081173050683
63872.58391553644,166943.0,95050.0,4683.0,16.1221701405957
63872.59400450399,166934.0,95057.0,4685.0,16.13225910814799
63872.604093471535,166949.0,95056.0,4680.0,16.142348075693008
63872.61418243908,166938.0,95047.0,4680.0,16.152437043238024
63872.62427140663,166925.0,95031.0,4682.0,16.162526010790316
63872.63436037418,166924.0,95054.0,4705.0,16.172614978335332
63872.64444934172,166919.0,95041.0,4667.0,16.18270394588035
63872.654538309274,166899.0,95031.0,4725.0,16.19279291343264
63872.66462727682,166929.0,95057.0,4680.0,16.202881880977657
63872.674716244364,166935.0,95050.0,4683.0,16.212970848522673
63872.68480521191,166931.0,95045.0,4690.0,16.22305981606769
63872.69489417946,166940.0,95022.0,4707.0,16.23314878361998
63872.70498314701,166880.0,95037.0,4695.0,16.243237751164997
63872.71507211455,166893.0,95067.0,4701.0,16.253326718710014
63872.725161082104,166976.0,95063.0,4746.0,16.263415686262306
63872.73525004965,166951.0,95085.0,4716.0,16.273504653807322
63872.745339017194,166971.0,95076.0,4702.0,16.28359362135234
63872.755427984746,166949.0,95023.0,4713.0,16.29368258890463
63872.76551695229,166986.0,95087.0,4712.0,16.303771556449647
63872.77560591984,166956.0,95055.0,4717.0,16.313860523994663
63872.78569488739,166971.0,95093.0,4724.0,16.323949491546955
63872.795783854934,166958.0,95055.0,4713.0,16.33403845909197
63872.80587282248,166958.0,95039.0,4726.0,16.344127426636987
63872.81596179003,166950.0,95059.0,4713.0,16.35421639418928
63872.826050757576,166946.0,95074.0,4714.0,16.364305361734296
63872.83613972512,166959.0,95079.0,4692.0,16.374394329279312
63872.846228692666,166941.0,95043.0,4686.0,16.384483296824328
63872.85631766022,166951.0,95056.0,4719.0,16.39457226437662
63872.86640662776,166945.0,95075.0,4707.0,16.404661231921636
63872.87649559531,166977.0,95085.0,4746.0,16.414750199466653
63872.88658456286,167011.0,95091.0,4759.0,16.424839167018945
63872.896673530406,166989.0,95073.0,4728.0,16.43492813456396
63872.90676249795,166980.0,95111.0,4740.0,16.445017102108977
63872.9168514655,166997.0,95068.0,4730.0,16.45510606966127
63872.92694043305,166987.0,95061.0,4722.0,16.465195037206286
63872.93702940059,167010.0,95093.0,4744.0,16.475284004751302
63872.947118368145,166985.0,95105.0,4747.0,16.485372972303594
63872.95720733569,167011.0,95051.0,4736.0,16.49546193984861
63872.967296303235,167049.0,95092.0,4737.0,16.505550907393626
63872.97738527079,167059.0,95072.0,4782.0,16.51563987494592
63872.98747423833,167015.0,95084.0,4742.0,16.525728842490935
63872.99756320588,167036.0,95076.0,4744.0,16.53581781003595
63873.00765217343,167066.0,95079.0,4781.0,16.545906777588243
63873.017741140975,167094.0,95104.0,4792.0,16.55599574513326
63873.02783010852,167095.0,95109.0,4776.0,16.566084712678276
63873.037919076065,167110.0,95092.0,4776.0,16.57617368022329
63873.04800804362,167134.0,95126.0,4820.0,16.586262647775584
63873.05809701116,167139.0,95116.0,4800.0,16.5963516153206
63873.06818597871,167133.0,95121.0,4801.0,16.606440582865616
63873.07827494626,167136.0,95147.0,4821.0,16.61652955041791
63873.088363913805,167171.0,95093.0,4810.0,16.626618517962925
63873.09845288135,167176.0,95125.0,4818.0,16.63670748550794
63873.1085418489,167169.0,95108.0,4830.0,16.646796453060233
63873.11863081645,167165.0,95106.0,4825.0,16.65688542060525
63873.12871978399,167136.0,95097.0,4804.0,16.666974388150265
63873.138808751544,167153.0,95123.0,4791.0,16.677063355702558
63873.14889771909,167095.0,95103.0,4790.0,16.687152323247574
63873.158986686634,167084.0,95078.0,4756.0,16.69724129079259
63873.16907565419,167049.0,95085.0,4736.0,16.707330258344882
63873.17916462173,167027.0,95086.0,4745.0,16.7174192258899
63873.18925358928,166985.0,95061.0,4705.0,16.727508193434915
63873.19934255682,166942.0,95049.0,4680.0,16.73759716097993
63873.209431524374,166937.0,95052.0,4688.0,16.747686128532223
63873.21952049192,166929.0,95056.0,4685.0,16.75777509607724
63873.229609459464,166892.0,95062.0,4656.0,16.767864063622255
63873.239698427016,166844.0,95018.0,4637.0,16.777953031174548
63873.24978739456,166846.0,95047.0,4653.0,16.788041998719564
63873.259876362106,166791.0,95029.0,4664.0,16.79813096626458
63873.26996532966,166806.0,95019.0,4640.0,16.808219933816872
63873.2800542972,166786.0,95018.0,4636.0,16.81830890136189
63873.29014326475,166785.0,94993.0,4625.0,16.828397868906904
63873.3002322323,166764.0,94986.0,4633.0,16.838486836459197
63873.310321199846,166781.0,95023.0,4633.0,16.848575804004213
63873.32041016739,166772.0,95023.0,4652.0,16.85866477154923
63873.33049913494,166749.0,95026.0,4640.0,16.86875373910152
63873.34058810249,166743.0,94993.0,4620.0,16.878842706646537
63873.35067707003,166775.0,95019.0,4626.0,16.888931674191554
63873.360766037586,166775.0,95026.0,4656.0,16.899020641743846
63873.37085500513,166752.0,94985.0,4653.0,16.909109609288862
63873.380943972676,166771.0,94993.0,4642.0,16.919198576833878
63873.39103294022,166759.0,95013.0,4644.0,16.929287544378894
63873.40112190777,166750.0,95020.0,4652.0,16.939376511931187
63873.41121087532,166757.0,95023.0,4622.0,16.949465479476203
63873.42129984286,166785.0,95048.0,4660.0,16.95955444702122
63873.431388810415,166773.0,95025.0,4639.0,16.96964341457351
63873.44147777796,166782.0,95010.0,4644.0,16.979732382118527
63873.451566745505,166770.0,94994.0,4630.0,16.989821349663544
63873.46165571306,166764.0,95027.0,4646.0,16.999910317215836
63873.4717446806,166768.0,95025.0,4634.0,17.009999284760852
63873.48183364815,166742.0,94997.0,4641.0,17.020088252305868
63873.4919226157,166757.0,95002.0,4627.0,17.03017721985816
63873.502011583245,166776.0,94996.0,4655.0,17.040266187403176
63873.51210055079,166773.0,95001.0,4662.0,17.050355154948193
63873.52218951834,166757.0,95035.0,4655.0,17.060444122500485
63873.53227848589,166773.0,95041.0,4666.0,17.0705330900455
63873.54236745343,166773.0,95022.0,4625.0,17.080622057590517
63873.55245642098,166785.0,95025.0,4645.0,17.090711025135533
63873.56254538853,166819.0,95036.0,4646.0,17.100799992687826
63873.572634356075,166773.0,95010.0,4648.0,17.110888960232842
63873.58272332362,166811.0,95014.0,4651.0,17.120977927777858
63873.59281229117,166820.0,95037.0,4660.0,17.13106689533015
63873.60290125872,166795.0,95041.0,4654.0,17.141155862875166
63873.61299022626,166809.0,95056.0,4664.0,17.151244830420183
63873.623079193814,166871.0,95051.0,4687.0,17.161333797972475
63873.63316816136,166846.0,95050.0,4674.0,17.17142276551749
63873.643257128904,166860.0,95049.0,4650.0,17.181511733062507
63873.65334609646,166882.0,95026.0,4686.0,17.1916007006148
63873.663435064,166899.0,95079.0,4675.0,17.201689668159815
63873.67352403155,166883.0,95061.0,4684.0,17.21177863570483
63873.6836129991,166885.0,95055.0,4723.0,17.221867603257124
63873.693701966644,166912.0,95093.0,4691.0,17.23195657080214
63873.70379093419,166935.0,95053.0,4730.0,17.242045538347156
63873.71387990174,166943.0,95080.0,4735.0,17.25213450589945
63873.723968869286,166938.0,95074.0,4716.0,17.262223473444465
63873.73405783683,166985.0,95102.0,4728.0,17.27231244098948
63873.74414680438,166981.0,95085.0,4704.0,17.282401408541773
63873.75423577193,166994.0,95086.0,4721.0,17.29249037608679
63873.76432473947,167002.0,95117.0,4718.0,17.302579343631805
63873.77441370702,166998.0,95065.0,4752.0,17.31266831117682
63873.78450267457,166997.0,95095.0,4709.0,17.322757278729114
63873.794591642116,167061.0,95118.0,4737.0,17.33284624627413
63873.80468060966,167054.0,95101.0,4747.0,17.342935213819146
63873.81476957721,167006.0,95108.0,4710.0,17.35302418137144
63873.82485854476,167050.0,95100.0,4733.0,17.363113148916455
63873.8349475123,167070.0,95138.0,4760.0,17.37320211646147
63873.845036479855,167024.0,95107.0,4724.0,17.383291084013763
63873.8551254474,166989.0,95076.0,4687.0,17.39338005155878
63873.865214414946,166966.0,95115.0,4704.0,17.403469019103795
63873.8753033825,166907.0,95074.0,4702.0,17.413557986656087
63873.88539235004,166898.0,95069.0,4648.0,17.423646954201104
63873.89548131759,166840.0,95037.0,4627.0,17.43373592174612
63873.90557028514,166826.0,95039.0,4642.0,17.443824889298412
63873.915659252685,166810.0,95029.0,4647.0,17.453913856843428
63873.92574822023,166753.0,95016.0,4597.0,17.464002824388444
63873.935837187775,166753.0,95044.0,4562.0,17.47409179193346
63873.94592615533,166704.0,95017.0,4601.0,17.484180759485753
63873.95601512287,166668.0,95010.0,4559.0,17.49426972703077
63873.96610409042,166669.0,94989.0,4557.0,17.504358694575785
63873.97619305797,166659.0,95015.0,4558.0,17.514447662128077
63873.986282025515,166610.0,94975.0,4527.0,17.524536629673094
63873.99637099306,166654.0,95017.0,4527.0,17.53462559721811
63874.00645996061,166624.0,94992.0,4561.0,17.544714564770402
63874.01654892816,166613.0,94974.0,4593.0,17.554803532315418
63874.0266378957,166606.0,95017.0,4546.0,17.564892499860434
63874.036726863254,166616.0,95021.0,4579.0,17.574981467412726
63874.0468158308,166628.0,95017.0,4571.0,17.585070434957743
63874.056904798344,166585.0,94967.0,4534.0,17.59515940250276
63874.0669937659,166602.0,94994.0,4529.0,17.60524837005505
63874.07708273344,166620.0,95004.0,4567.0,17.615337337600067
63874.08717170099,166608.0,94996.0,4546.0,17.625426305145083
63874.09726066854,166589.0,94970.0,4540.0,17.635515272697376
63874.107349636084,166582.0,95014.0,4557.0,17.645604240242392
63874.11743860363,166635.0,95009.0,4546.0,17.655693207787408
63874.127527571174,166624.0,94998.0,4554.0,17.665782175332424
63874.13761653873,166627.0,95007.0,4538.0,17.675871142884716
63874.14770550627,166619.0,94974.0,4554.0,17.685960110429733
63874.15779447382,166590.0,94977.0,4553.0,17.69604907797475
63874.16788344137,166637.0,94993.0,4543.0,17.70613804552704
63874.177972408914,166630.0,95007.0,4580.0,17.716227013072057
63874.18806137646,166644.0,95025.0,4587.0,17.726315980617073
63874.19815034401,166609.0,94996.0,4555.0,17.736404948169366
63874.208239311556,166626.0,95023.0,4544.0,17.74649391571438
63874.2183282791,166640.0,94987.0,4558.0,17.756582883259398
63874.22841724665,166674.0,95043.0,4569.0,17.76667185081169
63874.2385062142,166641.0,95036.0,4570.0,17.776760818356706
63874.24859518174,166696.0,95016.0,4585.0,17.786849785901722
63874.258684149296,166673.0,95052.0,4577.0,17.796938753454015
63874.26877311684,166679.0,95033.0,4563.0,17.80702772099903
63874.278862084386,166721.0,95033.0,4558.0,17.817116688544047
63874.28895105193,166672.0,95011.0,4572.0,17.827205656089063
63874.29904001948,166735.0,95031.0,4576.0,17.837294623641355
63874.30912898703,166703.0,95078.0,4555.0,17.84738359118637
63874.31921795457,166720.0,95039.0,4581.0,17.857472558731388
63874.329306922125,166751.0,95032.0,4583.0,17.86756152628368
63874.33939588967,166779.0,95061.0,4593.0,17.877650493828696
63874.349484857215,166807.0,95051.0,4637.0,17.887739461373712
63874.35957382477,166794.0,95046.0,4615.0,17.897828428926005
63874.36966279231,166805.0,95080.0,4595.0,17.90791739647102
63874.37975175986,166857.0,95079.0,4626.0,17.918006364016037
63874.38984072741,166885.0,95073.0,4650.0,17.92809533156833
63874.399929694955,166875.0,95066.0,4622.0,17.938184299113345
63874.4100186625,166927.0,95075.0,4637.0,17.94827326665836
63874.42010763005,166932.0,95092.0,4639.0,17.958362234210654
63874.4301965976,166981.0,95127.0,4664.0,17.96845120175567
63874.44028556514,166931.0,95134.0,4663.0,17.978540169300686
63874.450374532695,166981.0,95127.0,4684.0,17.98862913685298
63874.46046350024,166989.0,95112.0,4658.0,17.998718104397994
63874.470552467785,166983.0,95117.0,4653.0,18.00880707194301
63874.48064143533,167012.0,95107.0,4662.0,18.018896039488027
63874.49073040288,167014.0,95129.0,4670.0,18.02898500704032
63874.50081937043,167058.0,95143.0,4676.0,18.039073974585335
63874.51090833797,167054.0,95130.0,4693.0,18.04916294213035
63874.520997305524,167086.0,95183.0,4689.0,18.059251909682644
63874.53108627307,167102.0,95130.0,4677.0,18.06934087722766
63874.541175240614,167110.0,95160.0,4690.0,18.079429844772676
63874.55126420817,167113.0,95156.0,4704.0,18.089518812324968
63874.56135317571,167138.0,95147.0,4679.0,18.099607779869984
63874.57144214326,167150.0,95167.0,4690.0,18.109696747415
63874.58153111081,167164.0,95168.0,4713.0,18.119785714967293
63874.591620078354,167200.0,95175.0,4713.0,18.12987468251231
63874.6017090459,167211.0,95162.0,4745.0,18.139963650057325
63874.61179801345,167220.0,95172.0,4711.0,18.150052617609617
63874.621886980996,167246.0,95193.0,4732.0,18.160141585154634
63874.63197594854,167265.0,95231.0,4735.0,18.17023055269965
63874.64206491609,167223.0,95189.0,4697.0,18.180319520244666
63874.65215388364,167204.0,95212.0,4731.0,18.190408487796958
63874.662242851184,167174.0,95184.0,4702.0,18.200497455341974
63874.67233181873,167120.0,95141.0,4677.0,18.21058642288699
63874.68242078628,167056.0,95139.0,4627.0,18.220675390439283
63874.692509753826,167073.0,95184.0,4649.0,18.2307643579843
63874.70259872137,167016.0,95147.0,4626.0,18.240853325529315
63874.71268768892,166949.0,95105.0,4616.0,18.250942293081607
63874.72277665647,166952.0,95132.0,4581.0,18.261031260626623
63874.73286562401,166928.0,95100.0,4599.0,18.27112022817164
63874.742954591566,166905.0,95111.0,4563.0,18.28120919572393
63874.75304355911,166870.0,95074.0,4566.0,18.291298163268948
63874.763132526656,166903.0,95131.0,4580.0,18.301387130813964
63874.77322149421,166844.0,95090.0,4541.0,18.311476098366256
63874.78331046175,166848.0,95088.0,4551.0,18.321565065911273
63874.7933994293,166834.0,95097.0,4542.0,18.33165403345629
63874.80348839685,166860.0,95120.0,4540.0,18.34174300100858
63874.813577364395,166777.0,95076.0,4529.0,18.351831968553597
63874.82366633194,166821.0,95100.0,4520.0,18.361920936098613
63874.833755299485,166811.0,95090.0,4533.0,18.37200990364363
63874.84384426704,166810.0,95075.0,4572.0,18.38209887119592
63874.85393323458,166793.0,95108.0,4535.0,18.392187838740938
63874.86402220213,166798.0,95087.0,4540.0,18.402276806285954
63874.87411116968,166795.0,95091.0,4542.0,18.412365773838246
63874.884200137225,166816.0,95074.0,4530.0,18.422454741383262
63874.89428910477,166833.0,95088.0,4516.0,18.43254370892828
63874.90437807232,166845.0,95104.0,4571.0,18.44263267648057
63874.91446703987,166826.0,95101.0,4552.0,18.452721644025587
63874.92455600741,166802.0,95078.0,4533.0,18.462810611570603
63874.934644974965,166842.0,95084.0,4569.0,18.472899579122895
63874.94473394251,166810.0,95086.0,4544.0,18.48298854666791
63874.954822910055,166820.0,95104.0,4554.0,18.493077514212928
63874.96491187761,166813.0,95100.0,4540.0,18.50316648176522
63874.97500084515,166793.0,95078.0,4536.0,18.513255449310236
63874.9850898127,166755.0,95068.0,4526.0,18.523344416855252
63874.99517878025,166783.0,95112.0,4554.0,18.533433384407545
63875.005267747794,166773.0,95107.0,4553.0,18.54352235195256
63875.01535671534,166773.0,95096.0,4572.0,18.553611319497577
63875.025445682884,166771.0,95097.0,4536.0,18.563700287042593
63875.03553465044,166766.0,95106.0,4546.0,18.573789254594885
63875.04562361798,166729.0,95099.0,4587.0,18.5838782221399
63875.05571258553,166719.0,95097.0,4545.0,18.593967189684918
63875.06580155308,166718.0,95060.0,4571.0,18.60405615723721
63875.075890520624,166692.0,95072.0,4553.0,18.614145124782226
63875.08597948817,166707.0,95063.0,4556.0,18.624234092327242
63875.09606845572,166636.0,95045.0,4547.0,18.634323059879534
63875.106157423266,166657.0,95052.0,4580.0,18.64441202742455
63875.11624639081,166585.0,95025.0,4540.0,18.654500994969567
63875.12633535836,166578.0,95034.0,4550.0,18.66458996252186
63875.13642432591,166516.0,95026.0,4543.0,18.674678930066875
63875.14651329345,166495.0,95000.0,4538.0,18.68476789761189
63875.156602261006,166512.0,95013.0,4545.0,18.694856865164184
63875.16669122855,166484.0,95000.0,4540.0,18.7049458327092
63875.176780196096,166490.0,95000.0,4586.0,18.715034800254216
63875.18686916365,166433.0,94950.0,4549.0,18.725123767806508
63875.19695813119,166428.0,94967.0,4532.0,18.735212735351524
63875.20704709874,166403.0,94981.0,4558.0,18.74530170289654
63875.21713606628,166422.0,94932.0,4535.0,18.755390670441557
63875.227225033836,166358.0,94928.0,4545.0,18.76547963799385
63875.23731400138,166365.0,94942.0,4551.0,18.775568605538865
63875.247402968926,166345.0,94949.0,4531.0,18.78565757308388
63875.25749193648,166319.0,94915.0,4538.0,18.795746540636173
63875.26758090402,166286.0,94925.0,4531.0,18.80583550818119
63875.27766987157,166336.0,94925.0,4577.0,18.815924475726206
63875.28775883912,166313.0,94950.0,4539.0,18.826013443278498
63875.297847806665,166311.0,94891.0,4545.0,18.836102410823514
63875.30793677421,166310.0,94894.0,4544.0,18.84619137836853
63875.31802574176,166310.0,94917.0,4551.0,18.856280345920823
63875.32811470931,166261.0,94899.0,4540.0,18.86636931346584
63875.33820367685,166222.0,94864.0,4534.0,18.876458281010855
63875.348292644405,166229.0,94903.0,4551.0,18.886547248563147
63875.35838161195,166192.0,94859.0,4515.0,18.896636216108163
63875.368470579495,166164.0,94854.0,4540.0,18.90672518365318
63875.37855954704,166152.0,94878.0,4559.0,18.916814151198196
63875.38864851459,166073.0,94818.0,4532.0,18.926903118750488
63875.39873748214,166061.0,94795.0,4516.0,18.936992086295504
63875.40882644968,166023.0,94800.0,4524.0,18.94708105384052
63875.418915417235,166012.0,94792.0,4511.0,18.957170021392812
63875.42900438478,165978.0,94775.0,4528.0,18.96725898893783
63875.439093352325,165983.0,94782.0,4529.0,18.977347956482845
63875.44918231988,165935.0,94769.0,4521.0,18.987436924035137
63875.45927128742,165911.0,94749.0,4493.0,18.997525891580153
63875.46936025497,165873.0,94743.0,4511.0,19.00761485912517
63875.47944922252,165906.0,94775.0,4532.0,19.01770382667746
63875.489538190064,165862.0,94755.0,4515.0,19.027792794222478
63875.49962715761,165832.0,94707.0,4492.0,19.037881761767494
63875.50971612516,165813.0,94709.0,4472.0,19.047970729319786
63875.51980509271,165848.0,94757.0,4499.0,19.058059696864802
63875.52989406025,165777.0,94711.0,4475.0,19.06814866440982
63875.539983027804,165705.0,94692.0,4444.0,19.07823763196211
63875.55007199535,165700.0,94692.0,4445.0,19.088326599507127
63875.560160962894,165667.0,94647.0,4421.0,19.098415567052143
63875.57024993044,165626.0,94665.0,4397.0,19.10850453459716
63875.58033889799,165564.0,94672.0,4412.0,19.11859350214945
63875.590427865536,165548.0,94655.0,4364.0,19.128682469694468
63875.60051683308,165454.0,94614.0,4368.0,19.138771437239484
63875.61060580063,165441.0,94604.0,4331.0,19.148860404791776
63875.62069476818,165368.0,94610.0,4306.0,19.158949372336792
63875.63078373572,165386.0,94618.0,4336.0,19.16903833988181
63875.640872703276,165335.0,94557.0,4294.0,19.1791273074341
63875.65096167082,165317.0,94580.0,4299.0,19.189216274979117
63875.661050638366,165281.0,94614.0,4307.0,19.199305242524133
63875.67113960592,165260.0,94554.0,4303.0,19.209394210076425
63875.68122857346,165245.0,94555.0,4300.0,19.21948317762144
63875.69131754101,165246.0,94555.0,4282.0,19.229572145166458
63875.70140650856,165190.0,94552.0,4303.0,19.23966111271875
63875.711495476105,165166.0,94519.0,4257.0,19.249750080263766
63875.72158444365,165188.0,94535.0,4255.0,19.259839047808782
63875.731673411196,165148.0,94531.0,4291.0,19.2699280153538
63875.74176237875,165105.0,94537.0,4281.0,19.28001698290609
63875.75185134629,165031.0,94462.0,4262.0,19.290105950451107
63875.76194031384,165025.0,94475.0,4274.0,19.300194917996123
63875.77202928139,164992.0,94475.0,4286.0,19.310283885548415
63875.782118248935,164905.0,94439.0,4241.0,19.32037285309343
63875.79220721648,164866.0,94449.0,4237.0,19.330461820638448
63875.80229618403,164779.0,94380.0,4253.0,19.34055078819074
63875.81238515158,164705.0,94365.0,4257.0,19.350639755735756
63875.82247411912,164688.0,94381.0,4231.0,19.360728723280772
63875.832563086675,164654.0,94361.0,4224.0,19.370817690833064
63875.84265205422,164578.0,94296.0,4205.0,19.38090665837808
63875.852741021765,164561.0,94317.0,4202.0,19.390995625923097
63875.86282998932,164518.0,94316.0,4220.0,19.40108459347539
63875.87291895686,164459.0,94294.0,4221.0,19.411173561020405
63875.88300792441,164463.0,94312.0,4206.0,19.42126252856542
63875.89309689196,164425.0,94296.0,4204.0,19.431351496117713
63875.903185859504,164418.0,94284.0,4189.0,19.44144046366273
63875.91327482705,164403.0,94272.0,4171.0,19.451529431207746
63875.923363794594,164400.0,94278.0,4171.0,19.461618398752762
63875.93345276215,164427.0,94288.0,4208.0,19.471707366305054
63875.94354172969,164420.0,94289.0,4196.0,19.48179633385007
63875.95363069724,164479.0,94319.0,4195.0,19.491885301395087
63875.96371966479,164473.0,94318.0,4225.0,19.50197426894738
63875.973808632334,164478.0,94315.0,4233.0,19.512063236492395
63875.98389759988,164470.0,94297.0,4201.0,19.52215220403741
63875.99398656743,164525.0,94333.0,4180.0,19.532241171589703
63876.00407553498,164491.0,94304.0,4190.0,19.54233013913472
63876.01416450252,164534.0,94349.0,4218.0,19.552419106679736
63876.024253470074,164536.0,94328.0,4213.0,19.562508074232028
63876.03434243762,164542.0,94305.0,4225.0,19.572597041777044
63876.044431405164,164557.0,94317.0,4185.0,19.58268600932206
63876.054520372716,164567.0,94306.0,4243.0,19.592774976874352
63876.06460934026,164578.0,94345.0,4236.0,19.60286394441937
63876.074698307806,164571.0,94341.0,4257.0,19.612952911964385
63876.08478727535,164597.0,94334.0,4229.0,19.6230418795094
63876.0948762429,164586.0,94342.0,4229.0,19.633130847061693
63876.10496521045,164626.0,94348.0,4244.0,19.64321981460671
63876.11505417799,164647.0,94351.0,4261.0,19.653308782151726
63876.125143145546,164625.0,94380.0,4253.0,19.663397749704018
63876.13523211309,164623.0,94333.0,4250.0,19.673486717249034
63876.145321080636,164639.0,94371.0,4254.0,19.68357568479405
63876.15541004819,164643.0,94374.0,4233.0,19.693664652346342
63876.16549901573,164610.0,94374.0,4240.0,19.70375361989136
63876.17558798328,164671.0,94395.0,4283.0,19.713842587436375
63876.18567695083,164628.0,94343.0,4282.0,19.723931554988667
63876.195765918375,164660.0,94368.0,4250.0,19.734020522533683
63876.20585488592,164606.0,94338.0,4254.0,19.7441094900787
63876.21594385347,164665.0,94397.0,4247.0,19.75419845763099
63876.22603282102,164670.0,94370.0,4301.0,19.764287425176008
63876.23612178856,164664.0,94389.0,4268.0,19.774376392721024
63876.246210756115,164664.0,94352.0,4266.0,19.784465360273316
63876.25629972366,164688.0,94351.0,4308.0,19.794554327818332
63876.266388691205,164690.0,94372.0,4288.0,19.80464329536335
63876.27647765876,164705.0,94384.0,4286.0,19.81473226291564
63876.2865666263,164694.0,94378.0,4288.0,19.824821230460657
63876.29665559385,164696.0,94385.0,4287.0,19.834910198005673
63876.30674456139,164692.0,94356.0,4279.0,19.84499916555069
63876.316833528945,164752.0,94403.0,4292.0,19.85508813310298
63876.32692249649,164698.0,94416.0,4297.0,19.865177100647998
63876.337011464035,164747.0,94397.0,4314.0,19.875266068193014
63876.34710043159,164784.0,94409.0,4291.0,19.885355035745306
63876.35718939913,164786.0,94399.0,4306.0,19.895444003290322
63876.36727836668,164807.0,94416.0,4340.0,19.90553297083534
63876.37736733423,164794.0,94404.0,4312.0,19.91562193838763
63876.387456301774,164814.0,94398.0,4291.0,19.925710905932647
