timestamp,time_from_segment_start_sec,selected_channel_name,backup_channel_name,selected_channel_raw,selected_channel_clipped,selected_channel_detrended,selected_channel_filtered,selected_channel_filtered_z
63102.993390270225,0.0,PPG_1,PPG_3,106914.0,106914.0,216.30897031574568,-1.8504859101653743,-0.04289618838199439
63103.0033881836,0.0099979133738088,PPG_1,PPG_3,106934.0,106934.0,236.25420309096808,0.9851395449966838,0.02249111292234555
63103.01338609698,0.0199958267548936,PPG_1,PPG_3,106932.0,106932.0,234.19943586617592,3.6753630683421816,0.08452555960034022
63103.02338401036,0.0299937401359784,PPG_1,PPG_3,106927.0,106927.0,229.1446686413983,6.053870283487609,0.13937207243867705
63103.033381923735,0.0399916535097872,PPG_1,PPG_3,106927.0,106927.0,229.0899014166207,7.992898839293725,0.18408455172094798
63103.04337983712,0.049989566890872,PPG_1,PPG_3,106938.0,106938.0,240.0351341918431,9.415195399343299,0.21688159603679283
63103.0533777505,0.0599874802719568,PPG_1,PPG_3,106955.0,106955.0,256.9803669670655,10.300347646010046,0.23729251333465023
63103.06337566387,0.0699853936457657,PPG_1,PPG_3,106920.0,106920.0,221.9255997422879,10.68534342434442,0.246170214341679
63103.07337357725,0.0799833070268505,PPG_1,PPG_3,106949.0,106949.0,250.87083251749573,10.65841777758561,0.24554933002346713
63103.08337149063,0.0899812204079353,PPG_1,PPG_3,106943.0,106943.0,244.81606529271812,10.34629449185993,0.23835201160093264
63103.09336940401,0.0999791337817441,PPG_1,PPG_3,106924.0,106924.0,225.76129806794052,9.896184527378281,0.22797282847783384
63103.10336731739,0.1099770471628289,PPG_1,PPG_3,106911.0,106911.0,212.7065308431629,9.454373661724315,0.2177850160714185
63103.11336523077,0.1199749605439137,PPG_1,PPG_3,106922.0,106922.0,223.6517636183853,9.144764136137294,0.21064566298816892
63103.12336314414,0.1299728739177226,PPG_1,PPG_3,106931.0,106931.0,232.5969963936077,9.052497905047062,0.2085180759891419
63103.13336105752,0.1399707872988074,PPG_1,PPG_3,106940.0,106940.0,241.54222916881554,9.216456729707312,0.21229883802527355
63103.143358970905,0.1499687006798922,PPG_1,PPG_3,106924.0,106924.0,225.48746194403793,9.630674977683293,0.22185038628664763
63103.15335688428,0.159966614053701,PPG_1,PPG_3,106934.0,106934.0,235.43269471926033,10.252509941397957,0.23618941334678534
63103.16335479766,0.1699645274347858,PPG_1,PPG_3,106946.0,106946.0,247.37792749448272,11.015992572417861,0.2537947246350759
63103.17335271104,0.1799624408158706,PPG_1,PPG_3,106985.0,106985.0,286.3231602697051,11.849125980405084,0.27300612826936116
63103.183350624415,0.1899603541896795,PPG_1,PPG_3,106946.0,106946.0,247.2683930449275,12.691657658917247,0.29243424865847567
63103.19334853779,0.1999582675707643,PPG_1,PPG_3,106945.0,106945.0,246.21362582013535,13.507780524487883,0.3112534025122693
63103.20334645118,0.2099561809518491,PPG_1,PPG_3,106965.0,106965.0,266.15885859535774,14.290362782734823,0.3292991362399978
63103.21334436455,0.2199540943256579,PPG_1,PPG_3,106957.0,106957.0,258.10409137058014,15.0575095878142,0.3469889405112464
63103.22334227793,0.2299520077067427,PPG_1,PPG_3,106958.0,106958.0,259.04932414580253,15.843411970259163,0.3651112337016884
63103.23334019131,0.2399499210878275,PPG_1,PPG_3,106898.0,106898.0,198.99455692102492,16.684715087687024,0.38451102443476753
63103.24333810469,0.2499478344616363,PPG_1,PPG_3,106949.0,106949.0,249.93978969624732,17.605657180178245,0.4057472275362562
63103.25333601807,0.2599457478427212,PPG_1,PPG_3,106976.0,106976.0,276.88502247145516,18.60820086354279,0.4288650993890372
63103.26333393145,0.269943661223806,PPG_1,PPG_3,106955.0,106955.0,255.83025524667755,19.67111653568969,0.45337510200213
63103.27333184482,0.2799415745976148,PPG_1,PPG_3,106954.0,106954.0,254.77548802189995,20.755668790156268,0.47838402725141127
63103.28332975821,0.2899394879786996,PPG_1,PPG_3,106970.0,106970.0,270.72072079712234,21.81319059635574,0.5027696515418106
63103.293327671585,0.2999374013597844,PPG_1,PPG_3,106965.0,106965.0,265.66595357234473,22.792532544473175,0.5253525095581824
63103.30332558496,0.3099353147335932,PPG_1,PPG_3,106979.0,106979.0,279.6111863475671,23.647097759423247,0.5450581138693676
63103.31332349834,0.319933228114678,PPG_1,PPG_3,106949.0,106949.0,249.55641912277497,24.34049010981319,0.5610471982015509
63103.32332141172,0.3299311414957628,PPG_1,PPG_3,106964.0,106964.0,264.50165189799736,24.85005717699157,0.5727974155286335
63103.333319325095,0.3399290548695717,PPG_1,PPG_3,106980.0,106980.0,280.44688467321976,25.169328342985438,0.5801595584698407
63103.34331723848,0.3499269682506565,PPG_1,PPG_3,106989.0,106989.0,289.39211744844215,25.310557607844476,0.5834161946653994
63103.35331515186,0.3599248816317413,PPG_1,PPG_3,106988.0,106988.0,288.33735022366454,25.30599799709094,0.5833110536138444
63103.36331306523,0.3699227950055501,PPG_1,PPG_3,106966.0,106966.0,266.28258299888694,25.204292716716996,0.5809658095337606
63103.37331097861,0.3799207083866349,PPG_1,PPG_3,106952.0,106952.0,252.22781577409478,25.059923407162024,0.5776367663677158
63103.38330889199,0.3899186217677197,PPG_1,PPG_3,106948.0,106948.0,248.17304854931717,24.918208939262854,0.5743689417702046
63103.393306805374,0.3999165351488045,PPG_1,PPG_3,106951.0,106951.0,251.11828132453957,24.80206722160363,0.5716908047571648
63103.40330471875,0.4099144485226134,PPG_1,PPG_3,106973.0,106973.0,273.06351409976196,24.706718449775604,0.5694921367838722
63103.41330263213,0.4199123619036982,PPG_1,PPG_3,106958.0,106958.0,258.00874687498435,24.605015357823937,0.5671469431670917
63103.42330054551,0.429910275284783,PPG_1,PPG_3,106999.0,106999.0,298.95397965020675,24.46186996695826,0.5638461226070905
63103.43329845888,0.4399081886585918,PPG_1,PPG_3,107000.0,107000.0,299.8992124254146,24.25329159935159,0.5590364688696984
63103.443296372265,0.4499061020396766,PPG_1,PPG_3,106982.0,106982.0,281.844445200637,23.983796117639777,0.5528221142091525
63103.453294285646,0.4599040154207614,PPG_1,PPG_3,106982.0,106982.0,281.7896779758594,23.696084324506337,0.5461877056795701
63103.46329219902,0.4699019287945702,PPG_1,PPG_3,106980.0,106980.0,279.73491075108177,23.470112624761974,0.5409769753306306
63103.4732901124,0.479899842175655,PPG_1,PPG_3,106994.0,106994.0,293.68014352630416,23.412606592768185,0.5396509312884071
63103.48328802578,0.4898977555567398,PPG_1,PPG_3,106971.0,106971.0,270.62537630152656,23.639242007914472,0.5448769663944989
63103.493285939156,0.4998956689305487,PPG_1,PPG_3,106948.0,106948.0,247.5706090767344,24.2513676861573,0.5589921049388099
63103.50328385254,0.5098935823116335,PPG_1,PPG_3,106923.0,106923.0,222.5158418519568,25.311014177172666,0.5834267227963887
63103.51328176592,0.5198914956927183,PPG_1,PPG_3,106995.0,106995.0,294.4610746271792,26.82158112636478,0.6182592131266597
63103.52327967929,0.5298894090665272,PPG_1,PPG_3,106980.0,106980.0,279.4063074024016,28.721456336764977,0.6620688469402284
63103.53327759267,0.539887322447612,PPG_1,PPG_3,106979.0,106979.0,278.351540177624,30.891516174347363,0.7121087265689493
63103.543275506054,0.5498852358286968,PPG_1,PPG_3,106992.0,106992.0,291.29677295284637,33.17139607258365,0.764680970753139
63103.55327341943,0.5598831492025056,PPG_1,PPG_3,107010.0,107010.0,309.2420057280542,35.379134054018024,0.8155896788585382
63103.56327133281,0.5698810625835904,PPG_1,PPG_3,106984.0,106984.0,283.1872385032766,37.330829626751054,0.8605942496266291
63103.57326924619,0.5798789759646752,PPG_1,PPG_3,107005.0,107005.0,304.132471278499,38.85766830581824,0.8958019532990383
63103.58326715956,0.589876889338484,PPG_1,PPG_3,107006.0,107006.0,305.0777040537214,39.818528952200424,0.9179586469773592
63103.593265072945,0.5998748027195688,PPG_1,PPG_3,106988.0,106988.0,287.0229368289438,40.10766623105501,0.9246259260908137
63103.603262986326,0.6098727161006536,PPG_1,PPG_3,106991.0,106991.0,289.9681696041662,39.65756790875474,0.914247011427296
63103.6132608997,0.6198706294744625,PPG_1,PPG_3,106996.0,106996.0,294.913402379374,38.43795604231661,0.8861237173441636
63103.62325881308,0.6298685428555473,PPG_1,PPG_3,107002.0,107002.0,300.8586351545964,36.45268037517134,0.8403448159086836
63103.63325672646,0.6398664562366321,PPG_1,PPG_3,107004.0,107004.0,302.8038679298188,33.73516766918073,0.7776811020597666
63103.64325463984,0.6498643696104409,PPG_1,PPG_3,106944.0,106944.0,242.7491007050412,30.34148973525587,0.6994255478251709
63103.65325255322,0.6598622829915257,PPG_1,PPG_3,106978.0,106978.0,276.6943334802636,26.341321882198272,0.6071848112357671
63103.6632504666,0.6698601963726105,PPG_1,PPG_3,106966.0,106966.0,264.639566255486,21.8104639375747,0.502706776926637
63103.67324837997,0.6798581097464194,PPG_1,PPG_3,106989.0,106989.0,287.58479903069383,16.829152648782564,0.3878416414278634
63103.68324629335,0.6898560231275042,PPG_1,PPG_3,106988.0,106988.0,286.5300318059162,11.486211965340454,0.26463761542243347
63103.693244206734,0.699853936508589,PPG_1,PPG_3,106952.0,106952.0,250.47526458113862,5.884636605699172,0.13546967642221808
63103.70324212011,0.7098518498823978,PPG_1,PPG_3,106937.0,106937.0,235.420497356361,0.14417714390829167,0.0030991788411058804
63103.71324003349,0.7198497632634826,PPG_1,PPG_3,106971.0,106971.0,269.3657301315834,-5.599493954789038,-0.12934537657077513
63103.72323794687,0.7298476766445674,PPG_1,PPG_3,106963.0,106963.0,261.3109629068058,-11.196680544793086,-0.2584121139817247
63103.73323586024,0.7398455900183762,PPG_1,PPG_3,106941.0,106941.0,239.25619568201364,-16.486419287653263,-0.38038934492066445
63103.743233773625,0.749843503399461,PPG_1,PPG_3,106922.0,106922.0,220.20142845723603,-21.302765840164657,-0.4914505228494622
63103.753231687006,0.7598414167805458,PPG_1,PPG_3,106960.0,106960.0,258.1466612324584,-25.48577889197419,-0.5879075264642166
63103.76322960038,0.7698393301543547,PPG_1,PPG_3,106901.0,106901.0,199.09189400768082,-28.895412890414146,-0.6665310150450713
63103.77322751376,0.7798372435354395,PPG_1,PPG_3,106925.0,106925.0,223.03712678290321,-31.426138259692927,-0.7248875592559186
63103.78322542714,0.7898351569165243,PPG_1,PPG_3,106915.0,106915.0,212.9823595581256,-33.020287613358704,-0.7616473943471527
63103.793223340515,0.7998330702903331,PPG_1,PPG_3,106907.0,106907.0,204.92759233333345,-33.677457398694465,-0.7768012147093
63103.8032212539,0.8098309836714179,PPG_1,PPG_3,106914.0,106914.0,211.87282510855584,-33.45758675977354,-0.7717311700428126
63103.81321916728,0.8198288970525027,PPG_1,PPG_3,106925.0,106925.0,222.81805788377824,-32.4765342410286,-0.7491088676079902
63103.82321708065,0.8298268104263116,PPG_1,PPG_3,106932.0,106932.0,229.76329065900063,-30.89433776912812,-0.7126246566052689
63103.83321499403,0.8398247238073964,PPG_1,PPG_3,106940.0,106940.0,237.70852343422303,-28.89831349448756,-0.6665979007024023
63103.84321290741,0.8498226371884812,PPG_1,PPG_3,106943.0,106943.0,240.65375620944542,-26.684880467468062,-0.6155578693078366
63103.85321082079,0.85982055056229,PPG_1,PPG_3,106929.0,106929.0,226.59898898465326,-24.444071548164526,-0.5638865712860113
63103.86320873417,0.8698184639433748,PPG_1,PPG_3,106919.0,106919.0,216.54422175987565,-22.348868447256212,-0.5155728293552916
63103.87320664755,0.8798163773244596,PPG_1,PPG_3,106934.0,106934.0,231.48945453509805,-20.54852959265999,-0.4740584259205595
63103.88320456092,0.8898142906982685,PPG_1,PPG_3,106939.0,106939.0,236.43468731032044,-19.163082109895104,-0.44211109245591845
63103.893202474304,0.8998122040793533,PPG_1,PPG_3,106962.0,106962.0,259.37992008554284,-18.277254437205393,-0.4216846003631628
63103.903200387686,0.909810117460438,PPG_1,PPG_3,106919.0,106919.0,216.32515286076523,-17.9352090731547,-0.4137973022581819
63103.91319830106,0.9198080308342468,PPG_1,PPG_3,106943.0,106943.0,240.27038563597307,-18.13866269918199,-0.41848878346995094
63103.92319621444,0.9298059442153316,PPG_1,PPG_3,106954.0,106954.0,251.21561841119546,-18.84911609011786,-0.4348712820299235
63103.93319412782,0.9398038575964164,PPG_1,PPG_3,106934.0,106934.0,231.16085118641786,-19.993431504396774,-0.4612582989204809
63103.943192041195,0.9498017709702252,PPG_1,PPG_3,106920.0,106920.0,217.10608396164025,-21.47272881208035,-0.4953697358170992
63103.95318995458,0.95979968435131,PPG_1,PPG_3,106927.0,106927.0,224.05131673686265,-23.17433487195315,-0.5346074383619279
63103.96318786796,0.9697975977323948,PPG_1,PPG_3,106930.0,106930.0,226.99654951208504,-24.984376724063058,-0.5763455853170983
63103.97318578133,0.9797955111062038,PPG_1,PPG_3,106927.0,106927.0,223.94178228729288,-26.798171447971885,-0.6181702705556044
63103.98318369471,0.9897934244872886,PPG_1,PPG_3,106890.0,106890.0,186.88701506251527,-28.527317053529163,-0.6580430134468856
63103.99318160809,0.9997913378683734,PPG_1,PPG_3,106941.0,106941.0,237.83224783773767,-30.102915511200237,-0.6943750794109725
63104.003179521475,1.0097892512494582,PPG_1,PPG_3,106949.0,106949.0,245.77748061296006,-31.473969914649306,-0.7259905197434627
63104.01317743485,1.019787164623267,PPG_1,PPG_3,106923.0,106923.0,219.72271338818246,-32.60233884007118,-0.7520098230949335
63104.02317534823,1.0297850780043518,PPG_1,PPG_3,106906.0,106906.0,202.66794616340485,-33.45881039905953,-0.7717593862060351
63104.03317326161,1.0397829913854366,PPG_1,PPG_3,106907.0,106907.0,203.6131789386127,-34.02311440248241,-0.7847717943969288
63104.043171174984,1.0497809047592457,PPG_1,PPG_3,106911.0,106911.0,207.55841171383508,-34.28546879322671,-0.7908214810947559
63104.053169088365,1.0597788181403305,PPG_1,PPG_3,106937.0,106937.0,233.50364448905748,-34.24544027938335,-0.7898984549275744
63104.06316700175,1.069776731521415,PPG_1,PPG_3,106931.0,106931.0,227.44887726427987,-33.907160179937534,-0.7820979808743248
63104.07316491512,1.079774644895224,PPG_1,PPG_3,106890.0,106890.0,186.39411003950227,-33.27374853569858,-0.767492004631541
63104.0831628285,1.0897725582763087,PPG_1,PPG_3,106941.0,106941.0,237.33934281472466,-32.34372009215797,-0.7460462773939427
63104.09316074188,1.0997704716573935,PPG_1,PPG_3,106949.0,106949.0,245.2845755899325,-31.109469243503277,-0.7175854198504313
63104.103158655256,1.1097683850312023,PPG_1,PPG_3,106923.0,106923.0,219.2298083651549,-29.558017890637007,-0.6818101672040642
63104.11315656864,1.1197662984122871,PPG_1,PPG_3,106906.0,106906.0,202.1750411403773,-27.676461395153115,-0.6384229486038869
63104.12315448202,1.129764211793372,PPG_1,PPG_3,106907.0,106907.0,203.12027391559968,-25.462790091411673,-0.5873774227348013
63104.13315239539,1.1397621251671808,PPG_1,PPG_3,106911.0,106911.0,207.06550669082208,-22.93761673818345,-0.5291489036641162
63104.14315030877,1.1497600385482656,PPG_1,PPG_3,106937.0,106937.0,233.01073946604447,-20.150561326270804,-0.4648815895028358
63104.153148222154,1.1597579519293504,PPG_1,PPG_3,106931.0,106931.0,226.9559722412523,-17.178429051489523,-0.3963465478901662
63104.16314613553,1.1697558653031592,PPG_1,PPG_3,106947.0,106947.0,242.9012050164747,-14.116846707673002,-0.32574885776901547
63104.17314404891,1.179753778684244,PPG_1,PPG_3,106938.0,106938.0,233.8464377916971,-11.069148423855083,-0.2554713231933735
63104.18314196229,1.1897516920653288,PPG_1,PPG_3,106936.0,106936.0,231.7916705669195,-8.135627714993245,-0.1878266340389282
63104.193139875664,1.1997496054391377,PPG_1,PPG_3,106957.0,106957.0,252.7369033421419,-5.404412281256688,-0.12484694602417615
63104.203137789045,1.2097475188202225,PPG_1,PPG_3,106947.0,106947.0,242.68213611736428,-2.944069487745946,-0.06811336886630917
63104.21313570243,1.2197454322013073,PPG_1,PPG_3,106967.0,106967.0,262.6273688925721,-0.798467426062314,-0.018637466387325864
63104.2231336158,1.229743345575116,PPG_1,PPG_3,106944.0,106944.0,239.57260166779452,1.014688066943577,0.023172478687391196
63104.23313152918,1.239741258956201,PPG_1,PPG_3,106928.0,106928.0,223.5178344430169,2.5007626335397437,0.05744019386460122
63104.24312944256,1.2497391723372857,PPG_1,PPG_3,106962.0,106962.0,257.4630672182393,3.682017866304542,0.08467901402736697
63104.253127355936,1.2597370857110946,PPG_1,PPG_3,106955.0,106955.0,250.4082999934617,4.591542556582533,0.10565194077926927
63104.26312526932,1.2697349990921794,PPG_1,PPG_3,106956.0,106956.0,251.3535327686841,5.2689950447020735,0.12127346437626194
63104.2731231827,1.2797329124732642,PPG_1,PPG_3,106925.0,106925.0,220.29876554389193,5.757277884294814,0.13253288409125547
63104.28312109607,1.289730825847073,PPG_1,PPG_3,106962.0,106962.0,257.2439983191143,6.099686591252075,0.14042856059898534
63104.29311900945,1.2997287392281578,PPG_1,PPG_3,106976.0,106976.0,271.1892310943367,6.338940402507566,0.1459455660329348
63104.303116922834,1.3097266526092426,PPG_1,PPG_3,106962.0,106962.0,257.1344638695591,6.5181483762215136,0.15007796149864852
63104.31311483621,1.3197245659830514,PPG_1,PPG_3,106926.0,106926.0,221.0796966447815,6.680653601931333,0.1538252046818673
63104.32311274959,1.3297224793641362,PPG_1,PPG_3,106940.0,106940.0,235.0249294200039,6.866757751499652,0.15811662055967976
63104.33311066297,1.339720392745221,PPG_1,PPG_3,106981.0,106981.0,275.97016219521174,7.1098985450496635,0.1637232567599188
63104.343108576344,1.34971830611903,PPG_1,PPG_3,106955.0,106955.0,249.91539497043414,7.435586014837903,0.17123335463949743
63104.353106489725,1.359716219500115,PPG_1,PPG_3,106952.0,106952.0,246.86062774565653,7.862068293407236,0.18106770183757642
63104.363104403106,1.3697141328811997,PPG_1,PPG_3,106951.0,106951.0,245.80586052087892,8.399434061223223,0.19345893542128462
63104.37310231648,1.3797120462550083,PPG_1,PPG_3,106965.0,106965.0,259.7510932961013,9.04636831946844,0.20837673254818412
63104.38310022986,1.3897099596360931,PPG_1,PPG_3,106912.0,106912.0,206.6963260713237,9.78630319661834,0.2254390510817244
63104.39309814324,1.399707873017178,PPG_1,PPG_3,106959.0,106959.0,253.64155884653155,10.585367936762225,0.2438648579280931
63104.403096056616,1.4097057863909868,PPG_1,PPG_3,106942.0,106942.0,236.58679162175395,11.395073631329623,0.2625360368463584
63104.41309397,1.4197036997720716,PPG_1,PPG_3,106972.0,106972.0,266.53202439697634,12.161765719458108,0.2802153557009868
63104.42309188338,1.4297016131531564,PPG_1,PPG_3,106970.0,106970.0,264.47725717219873,12.841393593146526,0.29588704198479915
63104.43308979675,1.4396995265269652,PPG_1,PPG_3,106965.0,106965.0,259.4224899474211,13.414996420978019,0.3091138737809948
63104.44308771013,1.44969743990805,PPG_1,PPG_3,106966.0,106966.0,260.3677227226435,13.900056761952145,0.3202989852026471
63104.453085623514,1.4596953532891348,PPG_1,PPG_3,106991.0,106991.0,285.31295549785136,14.354742454001258,0.33078368101840266
63104.46308353689,1.4696932666629436,PPG_1,PPG_3,106949.0,106949.0,243.25818827307376,14.873674693170383,0.3427498518740484
63104.47308145027,1.4796911800440284,PPG_1,PPG_3,106966.0,106966.0,260.20342104829615,15.574716463315314,0.3589153258325175
63104.48307936365,1.4896890934251132,PPG_1,PPG_3,106923.0,106923.0,217.14865382351854,16.578341552751876,0.3820581340620456
63104.493077277024,1.499687006798922,PPG_1,PPG_3,106949.0,106949.0,243.09388659874094,17.984525023116372,0.41448362315423987
63104.503075190405,1.5096849201800069,PPG_1,PPG_3,106974.0,106974.0,268.03911937396333,19.853680274005132,0.45758487877033727
63104.513073103786,1.5196828335610917,PPG_1,PPG_3,106968.0,106968.0,261.9843521491712,22.195574832746935,0.5115871324377537
63104.52307101716,1.5296807469349003,PPG_1,PPG_3,106945.0,106945.0,238.92958492439357,24.965376778372033,0.5754565951844071
63104.53306893054,1.539678660315985,PPG_1,PPG_3,106955.0,106955.0,248.87481769961596,28.064359294276375,0.6469167039711432
63104.54306684392,1.54967657369707,PPG_1,PPG_3,106990.0,106990.0,283.82005047483835,31.34541428954816,0.7225752614796435
63104.5530647573,1.559674487078155,PPG_1,PPG_3,106970.0,106970.0,263.76528325006075,34.62478028175168,0.798194871900711
63104.56306267068,1.5696724004519638,PPG_1,PPG_3,106995.0,106995.0,288.71051602528314,37.69868576241198,0.8690767239023923
63104.57306058406,1.5796703138330486,PPG_1,PPG_3,106996.0,106996.0,289.655748800491,40.361101688060856,0.9304699491645512
63104.58305849744,1.5896682272141334,PPG_1,PPG_3,106952.0,106952.0,245.60098157571338,42.419233252436555,0.9779288505081051
63104.59305641081,1.5996661405879422,PPG_1,PPG_3,106982.0,106982.0,275.54621435093577,43.70588602258425,1.0075980553047248
63104.603054324194,1.609664053969027,PPG_1,PPG_3,107005.0,107005.0,298.49144712615816,44.09069029898832,1.0164713404272812
63104.613052237575,1.6196619673501118,PPG_1,PPG_3,107008.0,107008.0,301.43667990138056,43.49187281299586,1.0026630783693928
63104.62305015095,1.6296598807239209,PPG_1,PPG_3,107009.0,107009.0,302.38191267660295,41.88582104609871,0.9656287829544965
63104.63304806433,1.6396577941050057,PPG_1,PPG_3,106988.0,106988.0,281.3271454518108,39.30846281661032,0.9061969215237188
63104.64304597771,1.6496557074860905,PPG_1,PPG_3,106934.0,106934.0,227.2723782270332,35.84490094497275,0.8263298984390194
63104.653043891085,1.659653620859899,PPG_1,PPG_3,106929.0,106929.0,222.21761100225558,31.61039173583198,0.7286854337830672
63104.663041804466,1.669651534240984,PPG_1,PPG_3,106974.0,106974.0,267.162843777478,26.731927337016902,0.6161918669873824
63104.67303971785,1.6796494476220687,PPG_1,PPG_3,106978.0,106978.0,271.10807655270037,21.3393913670694,0.4918442125326805
63104.68303763122,1.6896473609958775,PPG_1,PPG_3,106962.0,106962.0,255.05330932792276,15.567349834323695,0.35874545713967043
63104.6930355446,1.6996452743769623,PPG_1,PPG_3,106973.0,106973.0,265.9985421031306,9.560876227571393,0.22024088179587478
63104.70303345798,1.7096431877580471,PPG_1,PPG_3,106942.0,106942.0,234.943774878353,3.47821058653585,0.07997937783740627
63104.71303137136,1.719641101131856,PPG_1,PPG_3,106943.0,106943.0,235.8890076535754,-2.5129720668030857,-0.05817260010102676
63104.72302928474,1.7296390145129408,PPG_1,PPG_3,106916.0,106916.0,208.83424042879778,-8.245159011340876,-0.19035233991573913
63104.73302719812,1.7396369278940256,PPG_1,PPG_3,106899.0,106899.0,191.77947320402018,-13.563362293230144,-0.31298594082293274
63104.74302511149,1.7496348412678344,PPG_1,PPG_3,106943.0,106943.0,235.72470597924257,-18.335711818711268,-0.42303258177975966
63104.753023024874,1.7596327546489192,PPG_1,PPG_3,106929.0,106929.0,221.6699387544504,-22.458970296103107,-0.5181116917257119
63104.763020938255,1.769630668030004,PPG_1,PPG_3,106901.0,106901.0,193.6151715296728,-25.859731320388832,-0.5965305764744799
63104.77301885163,1.7796285814038129,PPG_1,PPG_3,106941.0,106941.0,233.5604043048952,-28.494892277363896,-0.6572953235130883
63104.78301676501,1.7896264947848977,PPG_1,PPG_3,106867.0,106867.0,159.5056370801176,-30.35359704474391,-0.700155599167351
63104.79301467839,1.7996244081659825,PPG_1,PPG_3,106910.0,106910.0,202.45086985534,-31.45968428385048,-0.7256611042899285
63104.803012591765,1.8096223215397913,PPG_1,PPG_3,106917.0,106917.0,209.39610263056238,-31.871712785794443,-0.7351621587234541
63104.813010505146,1.819620234920876,PPG_1,PPG_3,106901.0,106901.0,193.34133540577022,-31.678285147696037,-0.7307018689380373
63104.82300841853,1.829618148301961,PPG_1,PPG_3,106917.0,106917.0,209.28656818099262,-30.989379553389387,-0.7148162456857944
63104.8330063319,1.8396160616757695,PPG_1,PPG_3,106908.0,106908.0,200.231800956215,-29.92624368835645,-0.6903011655972692
63104.84300424528,1.8496139750568543,PPG_1,PPG_3,106941.0,106941.0,233.1770337314374,-28.61181979812426,-0.6599915805299694
63104.85300215866,1.8596118884379391,PPG_1,PPG_3,106907.0,106907.0,199.1222665066598,-27.163416976612208,-0.6265925462788637
63104.86300007204,1.869609801811748,PPG_1,PPG_3,106898.0,106898.0,190.0674992818822,-25.689504331329466,-0.5926052754783654
63104.87299798542,1.879607715192833,PPG_1,PPG_3,106903.0,106903.0,195.01273205709003,-24.290408198116562,-0.5603432148280103
63104.8829958988,1.8896056285739176,PPG_1,PPG_3,106905.0,106905.0,196.95796483231243,-23.05931330954932,-0.5319551312514441
63104.89299381217,1.8996035419477264,PPG_1,PPG_3,106938.0,106938.0,229.90319760753482,-22.079484647096816,-0.5093610499838429
63104.902991725554,1.9096014553288112,PPG_1,PPG_3,106933.0,106933.0,224.84843038275721,-21.417196622351977,-0.49408920703102527
63104.912989638935,1.919599368709896,PPG_1,PPG_3,106916.0,106916.0,207.7936631579796,-21.11400561502494,-0.487097859949989
63104.92298755231,1.929597282083705,PPG_1,PPG_3,106909.0,106909.0,200.738895933202,-21.18261591211325,-0.48867995964518207
63104.93298546569,1.93959519546479,PPG_1,PPG_3,106899.0,106899.0,190.68412870840984,-21.60705883096082,-0.4984672808059006
63104.94298337907,1.949593108845875,PPG_1,PPG_3,106944.0,106944.0,235.62936148363224,-22.344208250305915,-0.5154653688648477
63104.952981292445,1.9595910222196835,PPG_1,PPG_3,106932.0,106932.0,223.57459425885463,-23.324217776791787,-0.5380636207153529
63104.962979205826,1.9695889356007683,PPG_1,PPG_3,106909.0,106909.0,200.51982703407703,-24.451488779576035,-0.5640576068310144
63104.97297711921,1.979586848981853,PPG_1,PPG_3,106928.0,106928.0,219.46505980929942,-25.609791972213607,-0.590767170931201
63104.98297503258,1.989584762355662,PPG_1,PPG_3,106889.0,106889.0,180.4102925845218,-26.6726271874977,-0.6152753182720748
63104.99297294596,1.9995826757367468,PPG_1,PPG_3,106927.0,106927.0,218.35552535972965,-27.516460462602453,-0.6347334524588231
63105.00297085934,2.0095805891178316,PPG_1,PPG_3,106882.0,106882.0,173.30075813495205,-28.033475329153806,-0.6466554102041503
63105.01296877272,2.0195785024916404,PPG_1,PPG_3,106921.0,106921.0,212.24599091017444,-28.14117900795662,-0.6491389726523027
63105.0229666861,2.029576415872725,PPG_1,PPG_3,106914.0,106914.0,205.19122368539684,-27.787287783394326,-0.6409785182850689
63105.03296459948,2.03957432925381,PPG_1,PPG_3,106932.0,106932.0,223.13645646061923,-26.95004161822226,-0.6216722776924162
63105.04296251285,2.049572242627619,PPG_1,PPG_3,106897.0,106897.0,188.08168923584162,-25.636165773874197,-0.5913753301338145
63105.052960426234,2.0595701560087036,PPG_1,PPG_3,106913.0,106913.0,204.02692201104946,-23.878788304930367,-0.5508515825922968
63105.062958339615,2.0695680693897884,PPG_1,PPG_3,106943.0,106943.0,233.97215478627186,-21.735318006480686,-0.5014248369032676
63105.07295625299,2.0795659827635973,PPG_1,PPG_3,106891.0,106891.0,181.91738756149425,-19.284100784200948,-0.4449016882681696
63105.08295416637,2.089563896144682,PPG_1,PPG_3,106931.0,106931.0,221.86262033671665,-16.619642111908565,-0.3834613588688884
63105.09295207975,2.099561809525767,PPG_1,PPG_3,106934.0,106934.0,224.80785311193904,-13.84635216433079,-0.3195114655300301
63105.102949993125,2.1095597228995757,PPG_1,PPG_3,106913.0,106913.0,203.75308588716143,-11.070323224973937,-0.2554984131867262
63105.112947906506,2.1195576362806605,PPG_1,PPG_3,106973.0,106973.0,263.6983186623693,-8.389697489723666,-0.19368528398241108
63105.12294581989,2.1295555496617453,PPG_1,PPG_3,106937.0,106937.0,227.64355143759167,-5.885800825123795,-0.13594738868136658
63105.13294373326,2.139553463035554,PPG_1,PPG_3,106911.0,106911.0,201.58878421281406,-3.617874777716513,-0.08365079093153943
63105.14294164664,2.149551376416639,PPG_1,PPG_3,106959.0,106959.0,249.53401698803646,-1.6226296615154385,-0.03764200181182253
63105.15293956002,2.159549289797724,PPG_1,PPG_3,106934.0,106934.0,224.47924976325885,0.08336167170032484,0.0016968217004655363
63105.16293747341,2.169547203178809,PPG_1,PPG_3,106949.0,106949.0,239.42448253848124,1.5009825673464547,0.034386048858515636
63105.17293538678,2.1795451165526174,PPG_1,PPG_3,106955.0,106955.0,245.36971531368908,2.6457645465928588,0.0607838243716732
63105.18293330016,2.189543029933702,PPG_1,PPG_3,106936.0,106936.0,226.31494808891148,3.5438342471340203,0.08149260803514445
63105.19293121354,2.199540943314787,PPG_1,PPG_3,106935.0,106935.0,225.26018086413387,4.2263046711973296,0.09722984130348451
63105.202929126914,2.209538856688596,PPG_1,PPG_3,106939.0,106939.0,229.20541363935627,4.723451758312594,0.10869366362127468
63105.212927040295,2.2195367700696806,PPG_1,PPG_3,106937.0,106937.0,227.15064641457866,5.0613430027926904,0.11648517098367978
63105.22292495368,2.2295346834507654,PPG_1,PPG_3,106956.0,106956.0,246.09587918980105,5.2630727165173425,0.12113690012842263
63105.23292286705,2.2395325968245743,PPG_1,PPG_3,106970.0,106970.0,260.0411119650089,5.354386195079492,0.12324251740062667
63105.24292078043,2.249530510205659,PPG_1,PPG_3,106950.0,106950.0,239.9863447402313,5.370737566852453,0.12361956722253158
63105.25291869381,2.259528423586744,PPG_1,PPG_3,106940.0,106940.0,229.93157751545368,5.3617640326014655,0.12341264455340191
63105.262916607186,2.2695263369605527,PPG_1,PPG_3,106965.0,106965.0,254.87681029067608,5.391163466284003,0.12409057245988107
63105.27291452057,2.2795242503416375,PPG_1,PPG_3,106952.0,106952.0,241.82204306589847,5.5327802280395195,0.1273561440302716
63105.28291243395,2.2895221637227223,PPG_1,PPG_3,106947.0,106947.0,236.76727584112086,5.8640180374503315,0.13499422839289643
63105.29291034732,2.299520077096531,PPG_1,PPG_3,106953.0,106953.0,242.7125086163287,6.4567879615324175,0.14866303841135176
63105.3029082607,2.309517990477616,PPG_1,PPG_3,106931.0,106931.0,220.6577413915511,7.366823632424533,0.16964774797586624
63105.31290617408,2.3195159038587008,PPG_1,PPG_3,106962.0,106962.0,251.6029741667735,8.623558511045362,0.19862706963432442
63105.32290408746,2.3295138172325096,PPG_1,PPG_3,106946.0,106946.0,235.5482069419959,10.222895221854639,0.23550652111703146
63105.33290200084,2.3395117306135944,PPG_1,PPG_3,106928.0,106928.0,217.49343971721828,12.124170740508983,0.2793484449418096
63105.34289991422,2.349509643994679,PPG_1,PPG_3,106950.0,106950.0,239.43867249244067,14.25227895854446,0.3284209530925643
63105.35289782759,2.359507557368488,PPG_1,PPG_3,106997.0,106997.0,286.3839052676485,16.506376986805453,0.3803986875550294
63105.362895740975,2.369505470749573,PPG_1,PPG_3,106965.0,106965.0,254.3291380428709,18.774609515439433,0.43270235252181843
63105.37289365435,2.3795033841306577,PPG_1,PPG_3,106976.0,106976.0,265.2743708180933,20.95004646228727,0.4828662240772751
63105.38289156773,2.3895012975044665,PPG_1,PPG_3,106973.0,106973.0,262.2196035933157,22.9422033710211,0.5288038015523853
63105.39288948111,2.3994992108855513,PPG_1,PPG_3,106943.0,106943.0,232.1648363685381,24.682372058271174,0.5689307280709989
63105.40288739449,2.409497124266636,PPG_1,PPG_3,106979.0,106979.0,268.1100691437605,26.124951408445977,0.6021954776357146
63105.412885307866,2.419495037640445,PPG_1,PPG_3,106984.0,106984.0,273.0553019189683,27.248117107435945,0.6280947986623554
63105.42288322125,2.4294929510215297,PPG_1,PPG_3,106967.0,106967.0,256.0005346941907,28.055302281072105,0.646707856342756
63105.43288113463,2.4394908644026145,PPG_1,PPG_3,106984.0,106984.0,272.9457674694131,28.57615244946051,0.6587182531435147
63105.442879048,2.4494887777764234,PPG_1,PPG_3,106988.0,106988.0,276.8910002446355,28.86500092775933,0.6653788727424264
63105.45287696138,2.459486691157508,PPG_1,PPG_3,106948.0,106948.0,236.8362330198579,28.99609512954082,0.6684018023241642
63105.46287487477,2.469484604538593,PPG_1,PPG_3,106977.0,106977.0,265.7814657950803,29.056150623732027,0.6697866349671753
63105.47287278814,2.479482517912402,PPG_1,PPG_3,106987.0,106987.0,275.72669857028814,29.136304196471883,0.6716349135548214
63105.48287070152,2.4894804312934866,PPG_1,PPG_3,106991.0,106991.0,279.67193134551053,29.32529448471502,0.6759928815292068
63105.4928686149,2.4994783446745714,PPG_1,PPG_3,106992.0,106992.0,280.6171641207329,29.702661472522013,0.6846946686037754
63105.50286652827,2.5094762580483803,PPG_1,PPG_3,106963.0,106963.0,251.56239689595532,30.328774268929877,0.6991323391341678
63105.512864441655,2.519474171429465,PPG_1,PPG_3,106925.0,106925.0,213.5076296711777,31.230981688315964,0.7199365353523307
63105.52286235504,2.52947208481055,PPG_1,PPG_3,106981.0,106981.0,269.4528624464001,32.39054733551853,0.7466752106656622
63105.53286026841,2.5394699981843587,PPG_1,PPG_3,106998.0,106998.0,286.39809522160795,33.737718284093866,0.7777399172412754
63105.54285818179,2.5494679115654435,PPG_1,PPG_3,106990.0,106990.0,278.34332799683034,35.1578569978771,0.8104872033128752
63105.55285609517,2.5594658249465283,PPG_1,PPG_3,106980.0,106980.0,268.28856077205273,36.50424578757244,0.8415338739175313
63105.562854008545,2.569463738320337,PPG_1,PPG_3,106977.0,106977.0,265.2337935472751,37.61154077526304,0.8670672287761944
63105.57285192193,2.579461651701422,PPG_1,PPG_3,106989.0,106989.0,277.1790263224975,38.308057886299515,0.8831283676406597
63105.58284983531,2.5894595650825067,PPG_1,PPG_3,106999.0,106999.0,287.1242590977199,38.42812683621274,0.8858970635525192
63105.59284774868,2.5994574784563156,PPG_1,PPG_3,106961.0,106961.0,249.06949187292776,37.82491261532398,0.8719874162327317
63105.60284566206,2.6094553918374004,PPG_1,PPG_3,106994.0,106994.0,282.01472464815015,36.38285183990991,0.838734624595699
63105.61284357544,2.619453305218485,PPG_1,PPG_3,107014.0,107014.0,301.95995742337254,34.02923593698159,0.7844620859149286
63105.62284148882,2.629451218592294,PPG_1,PPG_3,106957.0,106957.0,244.90519019859494,30.743975179247446,0.7087065468192302
63105.6328394022,2.639449131973379,PPG_1,PPG_3,106985.0,106985.0,272.85042297381733,26.56511919998992,0.6123454020404892
63105.64283731558,2.6494470453544636,PPG_1,PPG_3,106975.0,106975.0,262.7956557490397,21.588829298392266,0.4975960557962005
63105.65283522895,2.6594449587282725,PPG_1,PPG_3,106952.0,106952.0,239.74088852424757,15.964965483909918,0.3679141624901905
63105.662833142334,2.6694428721093573,PPG_1,PPG_3,106989.0,106989.0,276.68612129946996,9.88960365936345,0.22782107881747354
63105.672831055716,2.679440785490442,PPG_1,PPG_3,106960.0,106960.0,247.63135407469235,3.594358308580188,0.08265765330686238
63105.68282896909,2.689438698864251,PPG_1,PPG_3,106943.0,106943.0,230.57658684991475,-2.668795315120839,-0.06176576212086468
63105.69282688247,2.6994366122453357,PPG_1,PPG_3,106909.0,106909.0,196.52181962513714,-8.647903241079163,-0.19963930630636095
63105.70282479585,2.7094345256264205,PPG_1,PPG_3,106949.0,106949.0,236.46705240035953,-14.113961946486803,-0.3256823374362509
63105.712822709225,2.71943243900023,PPG_1,PPG_3,106920.0,106920.0,207.41228517556738,-18.88122126639336,-0.4356116022406669
63105.72282062261,2.729430352381314,PPG_1,PPG_3,106914.0,106914.0,201.35751795078977,-22.82152432655314,-0.5264719036094722
63105.73281853599,2.739428265762399,PPG_1,PPG_3,106918.0,106918.0,205.30275072601216,-25.872247325082107,-0.5968191857365092
63105.74281644937,2.749426179143484,PPG_1,PPG_3,106906.0,106906.0,193.24798350123456,-28.03760199996527,-0.6467505679998464
63105.75281436274,2.7594240925172926,PPG_1,PPG_3,106932.0,106932.0,219.19321627645695,-29.382497623502058,-0.6777628073627712
63105.76281227612,2.7694220058983774,PPG_1,PPG_3,106914.0,106914.0,201.13844905167934,-30.019308747546525,-0.6924471729464026
63105.772810189505,2.779419919279462,PPG_1,PPG_3,106919.0,106919.0,206.0836818268872,-30.089687926748347,-0.6940700616772271
63105.78280810288,2.789417832653271,PPG_1,PPG_3,106953.0,106953.0,240.02891460210958,-29.744296452720953,-0.686105604897836
63105.79280601626,2.799415746034356,PPG_1,PPG_3,106927.0,106927.0,213.97414737733197,-29.12357614213974,-0.6717922808656333
63105.80280392964,2.8094136594154406,PPG_1,PPG_3,106927.0,106927.0,213.91938015255437,-28.34325896952534,-0.6537987782379131
63105.812801843014,2.8194115727892495,PPG_1,PPG_3,106920.0,106920.0,206.86461292777676,-27.487393811606022,-0.6340631982603527
63105.822799756395,2.8294094861703343,PPG_1,PPG_3,106923.0,106923.0,209.80984570299916,-26.608508238853346,-0.6137967855530608
63105.83279766978,2.839407399551419,PPG_1,PPG_3,106941.0,106941.0,227.755078478207,-25.732281570216397,-0.5935916850914459
63105.84279558315,2.849405312925228,PPG_1,PPG_3,106915.0,106915.0,201.7003112534294,-24.86478500905787,-0.5735878940683081
63105.85279349653,2.8594032263063127,PPG_1,PPG_3,106919.0,106919.0,205.64554402865178,-24.001717959870028,-0.5536862441207245
63105.86279140991,2.8694011396873975,PPG_1,PPG_3,106892.0,106892.0,178.59077680387418,-23.13833270493794,-0.5337772565979904
63105.872789323286,2.8793990530612064,PPG_1,PPG_3,106962.0,106962.0,248.53600957909657,-22.276712585618903,-0.5139089717195223
63105.88278723667,2.889396966442291,PPG_1,PPG_3,106927.0,106927.0,213.48124235431897,-21.42765912463943,-0.4943304641364803
63105.89278515005,2.899394879823376,PPG_1,PPG_3,106918.0,106918.0,204.4264751295268,-20.60834075407686,-0.4754376244412273
63105.90278306342,2.909392793197185,PPG_1,PPG_3,106937.0,106937.0,223.3717079047492,-19.83892413674253,-0.45769548007776073
63105.9127809768,2.9193907065782696,PPG_1,PPG_3,106937.0,106937.0,223.3169406799716,-19.13929361797611,-0.441562548470375
63105.922778890184,2.9293886199593544,PPG_1,PPG_3,106941.0,106941.0,227.262173455194,-18.52536010458134,-0.42740572266388577
63105.93277680356,2.9393865333331632,PPG_1,PPG_3,106924.0,106924.0,210.20740623041638,-18.005630673210206,-0.41542116918065597
63105.94277471694,2.949384446714248,PPG_1,PPG_3,106930.0,106930.0,216.15263900563878,-17.579132480386303,-0.4055864550123353
63105.95277263032,2.959382360095333,PPG_1,PPG_3,106970.0,106970.0,256.0978717808466,-17.23447717180066,-0.3976389736312508
63105.962770543694,2.9693802734691417,PPG_1,PPG_3,106925.0,106925.0,211.043104556069,-16.949991541782488,-0.3910789578954314
63105.972768457075,2.9793781868502265,PPG_1,PPG_3,106925.0,106925.0,210.9883373312914,-16.696453778785145,-0.38523257572568603
63105.98276637046,2.9893761002313113,PPG_1,PPG_3,106932.0,106932.0,217.9335701065138,-16.443083828158336,-0.3793900631777254
63105.99276428383,2.99937401360512,PPG_1,PPG_3,106926.0,106926.0,211.8788028817362,-16.16421886778,-0.37295965568004724
63106.00276219721,3.009371926986205,PPG_1,PPG_3,106956.0,106956.0,241.82403565695859,-15.843375786786646,-0.36556126561053576
63106.01276011059,3.0193698403672897,PPG_1,PPG_3,106944.0,106944.0,229.76926843216643,-15.474191353451069,-0.35704816183110666
63106.022758023966,3.0293677537410986,PPG_1,PPG_3,106904.0,106904.0,189.71450120738882,-15.060299900411446,-0.34750414920492356
63106.03275593735,3.0393656671221834,PPG_1,PPG_3,106946.0,106946.0,231.65973398261121,-14.615375464858325,-0.33724454031609286
63106.04275385073,3.049363580503268,PPG_1,PPG_3,106947.0,106947.0,232.6049667578336,-14.161697601427111,-0.32678308423863967
63106.0527517641,3.059361493877077,PPG_1,PPG_3,106942.0,106942.0,227.550199533056,-13.725578929027025,-0.31672652934886725
63106.06274967748,3.069359407258162,PPG_1,PPG_3,106931.0,106931.0,216.4954323082784,-13.331033364085762,-0.30762861774487127
63106.072747590864,3.0793573206392466,PPG_1,PPG_3,106974.0,106974.0,259.44066508348624,-12.994221576503216,-0.2998620018127771
63106.08274550424,3.0893552340130555,PPG_1,PPG_3,106912.0,106912.0,197.38589785870863,-12.719996340530368,-0.2935385827246996
63106.09274341762,3.0993531473941403,PPG_1,PPG_3,106953.0,106953.0,238.33113063393102,-12.501019511557322,-0.28848914861531677
63106.102741331,3.109351060775225,PPG_1,PPG_3,106931.0,106931.0,216.27636340915342,-12.318922543220953,-0.28429013519711605
63106.112739244374,3.119348974149034,PPG_1,PPG_3,106950.0,106950.0,235.2215961843758,-12.145876326910091,-0.28029982502942585
63106.122737157755,3.1293468875301187,PPG_1,PPG_3,106957.0,106957.0,242.1668289595982,-11.945714838108593,-0.2756842579227182
63106.132735071136,3.1393448009112035,PPG_1,PPG_3,106942.0,106942.0,227.11206173480605,-11.67572084175558,-0.2694584079051289
63106.14273298451,3.1493427142850123,PPG_1,PPG_3,106915.0,106915.0,200.05729451002844,-11.290686502856516,-0.26057981772169037
63106.15273089789,3.159340627666097,PPG_1,PPG_3,106950.0,106950.0,235.00252728525084,-10.748726816956442,-0.24808265198626417
63106.16272881127,3.169338541047182,PPG_1,PPG_3,106953.0,106953.0,237.94776006047323,-10.015886464154772,-0.23118392762568635
63106.172726724646,3.1793364544209908,PPG_1,PPG_3,106945.0,106945.0,229.89299283569562,-9.067634633433446,-0.20931798335759058
63106.18272463803,3.1893343678020756,PPG_1,PPG_3,106953.0,106953.0,237.83822561091802,-7.888641054819636,-0.18213131516755723
63106.19272255141,3.1993322811831604,PPG_1,PPG_3,106949.0,106949.0,233.78345838612586,-6.473174071212671,-0.149491755533556
63106.20272046478,3.209330194556969,PPG_1,PPG_3,106931.0,106931.0,215.72869116134825,-4.826759458062304,-0.11152672450805381
63106.21271837816,3.219328107938054,PPG_1,PPG_3,106966.0,106966.0,250.67392393657065,-2.967990339735222,-0.0686649649713702
63106.222716291544,3.229326021319139,PPG_1,PPG_3,106941.0,106941.0,225.61915671179304,-0.9288202364650012,-0.021643300064743208
63106.23271420492,3.2393239346929477,PPG_1,PPG_3,106983.0,106983.0,267.56438948701543,1.247317887768248,0.028536740091853745
63106.2427121183,3.2493218480740325,PPG_1,PPG_3,106946.0,106946.0,230.50962226223783,3.508417534738125,0.0806759263960289
63106.25271003168,3.2593197614551173,PPG_1,PPG_3,106968.0,106968.0,252.45485503744567,5.795986501350582,0.13342547447264458
63106.262707945054,3.269317674828926,PPG_1,PPG_3,106938.0,106938.0,222.40008781266806,8.045756000475897,0.1853033964446117
63106.272705858435,3.279315588210011,PPG_1,PPG_3,106978.0,106978.0,262.34532058789046,10.188567131668945,0.23471494225315565
63106.282703771816,3.2893135015910957,PPG_1,PPG_3,106952.0,106952.0,236.29055336311285,12.153739110120815,0.28003026837845824
63106.29270168519,3.2993114149649045,PPG_1,PPG_3,106976.0,106976.0,260.23578613833524,13.875883755800237,0.3197415746201567
63106.30269959857,3.3093093283459893,PPG_1,PPG_3,107000.0,107000.0,284.18101891355764,15.304171420209666,0.35267676910855356
63106.31269751195,3.319307241727074,PPG_1,PPG_3,106943.0,106943.0,227.12625168876548,16.41159934414656,0.37821318937290155
63106.32269542533,3.329305155108159,PPG_1,PPG_3,106987.0,106987.0,271.0714844639879,17.20173110297701,0.39643300866910763
63106.33269333871,3.339303068481968,PPG_1,PPG_3,106990.0,106990.0,274.01671723921027,17.71222546428066,0.40820460867219077
63106.34269125209,3.3493009818630526,PPG_1,PPG_3,106976.0,106976.0,259.96195001443266,18.015578425450855,0.4151996902819606
63106.35268916547,3.3592988952441374,PPG_1,PPG_3,106993.0,106993.0,276.90718278965505,18.216065590732942,0.4198227672331455
63106.36268707884,3.3692968086179462,PPG_1,PPG_3,106986.0,106986.0,269.85241556487745,18.44095400409691,0.4250085178469
63106.372684992224,3.379294721999031,PPG_1,PPG_3,106965.0,106965.0,248.7976483400853,18.825273367484826,0.4338706212552296
63106.382682905605,3.389292635380116,PPG_1,PPG_3,106938.0,106938.0,221.74288111530768,19.49165056681661,0.4492367573701839
63106.39268081898,3.3992905487539247,PPG_1,PPG_3,106988.0,106988.0,271.6881138905301,20.529722717956876,0.4731738878535798
63106.40267873236,3.4092884621350095,PPG_1,PPG_3,106955.0,106955.0,238.63334666575247,21.981274268942407,0.5066455293393375
63106.41267664574,3.4192863755160943,PPG_1,PPG_3,106992.0,106992.0,275.57857944097486,23.834725985516936,0.5493846737577525
63106.422674559115,3.429284288889903,PPG_1,PPG_3,106983.0,106983.0,266.52381221619726,26.028380106210193,0.5999686190690627
63106.432672472496,3.439282202270988,PPG_1,PPG_3,106978.0,106978.0,261.4690449914051,28.459723418885947,0.6560334909197549
63106.44267038588,3.4492801156520727,PPG_1,PPG_3,107005.0,107005.0,288.4142777666275,30.998180046024444,0.7145683118794636
63106.45266829925,3.4592780290258816,PPG_1,PPG_3,106983.0,106983.0,266.3595105418499,33.499448470410314,0.7722456020203801
63106.46266621263,3.4692759424069664,PPG_1,PPG_3,107000.0,107000.0,283.3047433170723,35.82001249395045,0.8257559902583635
63106.47266412601,3.479273855788051,PPG_1,PPG_3,107027.0,107027.0,310.2499760922947,37.83044893473076,0.8721150794205865
63106.48266203939,3.48927176916186,PPG_1,PPG_3,106998.0,106998.0,281.19520886751707,39.425648828146606,0.908899139135367
63106.49265995277,3.499269682542945,PPG_1,PPG_3,107011.0,107011.0,294.1404416427249,40.52933767275303,0.9343493391598955
63106.50265786615,3.5092675959240296,PPG_1,PPG_3,106987.0,106987.0,270.0856744179473,41.091278523139955,0.947307254893293
63106.51265577952,3.5192655092978384,PPG_1,PPG_3,106991.0,106991.0,274.0309071931697,41.078627152019244,0.9470155241875057
63106.522653692904,3.5292634226789232,PPG_1,PPG_3,107002.0,107002.0,284.9761399683921,40.46530592965562,0.9328728173324692
63106.532651606285,3.539261336060008,PPG_1,PPG_3,106963.0,106963.0,245.92137274361448,39.22328101378961,0.9042326958899894
63106.54264951966,3.549259249433817,PPG_1,PPG_3,106994.0,106994.0,276.8666055188369,37.31857900597966,0.860311759909912
63106.55264743304,3.5592571628149017,PPG_1,PPG_3,106974.0,106974.0,256.8118382940447,34.71429727052347,0.8002590635258858
63106.56264534642,3.5692550761959865,PPG_1,PPG_3,107029.0,107029.0,311.7570710692671,31.381671303004474,0.7234113198028426
63106.572643259795,3.5792529895697953,PPG_1,PPG_3,107010.0,107010.0,292.7023038444895,27.31669719298468,0.6296762017031163
63106.582641173176,3.58925090295088,PPG_1,PPG_3,106996.0,106996.0,278.6475366197119,22.555596331750824,0.5198889461305857
63106.59263908656,3.599248816331965,PPG_1,PPG_3,106980.0,106980.0,262.5927693949343,17.18188513378119,0.395975376168623
63106.60263699993,3.6092467297057738,PPG_1,PPG_3,106944.0,106944.0,226.5380021701567,11.322439112849393,0.26086114175881553
63106.61263491331,3.6192446430868586,PPG_1,PPG_3,106962.0,106962.0,244.48323494536453,5.136053376139085,0.11820793365801936
63106.62263282669,3.6292425564679434,PPG_1,PPG_3,106967.0,106967.0,249.42846772058692,-1.1992335159682845,-0.027878818423272462
63106.63263074007,3.639240469841752,PPG_1,PPG_3,106955.0,106955.0,237.37370049580932,-7.4959962892758565,-0.17307723450840481
63106.64262865345,3.649238383222837,PPG_1,PPG_3,106968.0,106968.0,250.3189332710317,-13.564918679577506,-0.3130218298726857
63106.65262656683,3.659236296603922,PPG_1,PPG_3,106935.0,106935.0,217.2641660462541,-19.222912156919097,-0.44349072646388976
63106.6626244802,3.66923420997773,PPG_1,PPG_3,106929.0,106929.0,211.2093988214765,-24.303914735302598,-0.5606546649932477
63106.672622393584,3.679232123358815,PPG_1,PPG_3,106936.0,106936.0,218.15463159668434,-28.671702786649384,-0.6613724353274775
63106.682620306965,3.6892300367399,PPG_1,PPG_3,106887.0,106887.0,169.09986437190673,-32.23176458270634,-0.7434646710623066
63106.69261822034,3.699227950113709,PPG_1,PPG_3,106922.0,106922.0,204.04509714712913,-34.93839581608946,-0.8058774666784487
63106.70261613372,3.709225863494794,PPG_1,PPG_3,106931.0,106931.0,212.99032992235152,-36.79347987463666,-0.8486542516238255
63106.7126140471,3.7192237768758782,PPG_1,PPG_3,106962.0,106962.0,243.9355626975739,-37.836071440014464,-0.8726955962586112
63106.722611960475,3.729221690249687,PPG_1,PPG_3,106939.0,106939.0,220.8807954727963,-38.12721052202106,-0.8794090353843529
63106.732609873856,3.739219603630772,PPG_1,PPG_3,106901.0,106901.0,182.82602824800415,-37.73758395752838,-0.8704245520767004
63106.74260778724,3.749217517011857,PPG_1,PPG_3,106935.0,106935.0,216.77126102322654,-36.74229955399784,-0.8474740735292993
63106.75260570061,3.759215430385666,PPG_1,PPG_3,106941.0,106941.0,222.71649379844894,-35.22087937759577,-0.8123913162829905
63106.76260361399,3.7692133437667503,PPG_1,PPG_3,106940.0,106940.0,221.66172657367133,-33.259089546698696,-0.7671539798304138
63106.77260152737,3.779211257147835,PPG_1,PPG_3,106892.0,106892.0,173.60695934889372,-30.95214923223516,-0.7139577436496609
63106.78259944075,3.789209170521645,PPG_1,PPG_3,106933.0,106933.0,214.55219212411612,-28.409147309969903,-0.6553181117455344
63106.79259735413,3.799207083902729,PPG_1,PPG_3,106912.0,106912.0,193.49742489932396,-25.755063663965434,-0.5941170223236957
63106.80259526751,3.809204997283814,PPG_1,PPG_3,106963.0,106963.0,244.44265767454635,-23.125860118389312,-0.5334896485243589
63106.81259318088,3.819202910657623,PPG_1,PPG_3,106965.0,106965.0,246.38789044976875,-20.65617863727996,-0.476540728547261
63106.822591094264,3.829200824038708,PPG_1,PPG_3,106946.0,106946.0,227.33312322499114,-18.464292108781322,-0.4259975425270631
63106.832589007645,3.839198737419793,PPG_1,PPG_3,106933.0,106933.0,214.27835600021353,-16.64030721653701,-0.38393787999066276
63106.84258692102,3.8491966507936017,PPG_1,PPG_3,106967.0,106967.0,248.22358877543593,-15.240079001867558,-0.3516497144288972
63106.8525848344,3.859194564174686,PPG_1,PPG_3,106969.0,106969.0,250.16882155064377,-14.283435237790037,-0.32959025875262565
63106.86258274778,3.869192477555771,PPG_1,PPG_3,106946.0,106946.0,227.11405432586616,-13.755866278486998,-0.3174249318974986
63106.872580661155,3.87919039092958,PPG_1,PPG_3,106939.0,106939.0,220.05928710108856,-13.614885509914167,-0.31417402583160486
63106.882578574536,3.889188304310665,PPG_1,PPG_3,106935.0,106935.0,216.00451987631095,-13.800624866934507,-0.3184570298790732
63106.89257648792,3.89918621769175,PPG_1,PPG_3,106928.0,106928.0,208.94975265153334,-14.24660071123477,-0.328740883429842
63106.9025744013,3.909184131072834,PPG_1,PPG_3,106961.0,106961.0,241.89498542675574,-14.885687853390694,-0.34347773220788014
63106.91257231467,3.919182044446643,PPG_1,PPG_3,106970.0,106970.0,250.84021820196358,-15.649197243457746,-0.3610836605388324
63106.92257022805,3.929179957827728,PPG_1,PPG_3,106963.0,106963.0,243.78545097718597,-16.461613254364767,-0.37981733722837646
63106.932568141434,3.939177871208813,PPG_1,PPG_3,106958.0,106958.0,238.73068375240837,-17.23668526062541,-0.3976898904295282
63106.94256605481,3.9491757845826214,PPG_1,PPG_3,106958.0,106958.0,238.67591652763076,-17.879579104667194,-0.41251451877053136
63106.95256396819,3.959173697963706,PPG_1,PPG_3,106925.0,106925.0,205.62114930285315,-18.296017333912502,-0.4221172580606371
63106.96256188157,3.969171611344791,PPG_1,PPG_3,106924.0,106924.0,204.56638207807555,-18.40563287618426,-0.42464490658245235
63106.972559794944,3.9791695247186,PPG_1,PPG_3,106951.0,106951.0,231.5116148532834,-18.15424203433644,-0.4188480307323181
63106.982557708325,3.9891674380996847,PPG_1,PPG_3,106955.0,106955.0,235.45684762850578,-17.519974065597168,-0.4042223083174809
63106.992555621706,3.9991653514807695,PPG_1,PPG_3,106967.0,106967.0,247.40208040372818,-16.512249697975765,-0.38098497394476477
63107.00255353508,4.009163264854578,PPG_1,PPG_3,106954.0,106954.0,234.34731317895057,-15.167162918200424,-0.3499683266687486
63107.01255144846,4.019161178235663,PPG_1,PPG_3,106941.0,106941.0,221.29254595417297,-13.543542259611216,-0.3125289063765309
63107.02254936184,4.029159091616748,PPG_1,PPG_3,106966.0,106966.0,246.23777872939536,-11.721034148069041,-0.27050329724607497
63107.032547275216,4.039157004990557,PPG_1,PPG_3,106910.0,106910.0,190.1830115046032,-9.798385898740014,-0.226168534997316
63107.0425451886,4.0491549183716415,PPG_1,PPG_3,106985.0,106985.0,265.1282442798256,-7.888807977882272,-0.18213516428259863
63107.05254310198,4.059152831752726,PPG_1,PPG_3,106952.0,106952.0,232.073477055048,-6.1100181758197465,-0.14111766511576937
63107.06254101535,4.069150745126535,PPG_1,PPG_3,106970.0,106970.0,250.01870983027038,-4.569251150387685,-0.10558878468894302
63107.07253892873,4.07914865850762,PPG_1,PPG_3,106983.0,106983.0,262.9639426054928,-3.3464239263016213,-0.07739134697765847
63107.082536842114,4.089146571888705,PPG_1,PPG_3,106986.0,106986.0,265.90917538071517,-2.4795164515214534,-0.05740113982486093
63107.09253475549,4.099144485262514,PPG_1,PPG_3,106976.0,106976.0,255.854408155923,-1.9558892737843145,-0.04532670736428666
63107.10253266887,4.109142398643598,PPG_1,PPG_3,106955.0,106955.0,234.7996409311454,-1.712360525660348,-0.03971112523553177
63107.11253058225,4.119140312024683,PPG_1,PPG_3,106968.0,106968.0,247.7448737063678,-1.6440578088318423,-0.03813611810014291
63107.12252849562,4.129138225398492,PPG_1,PPG_3,106978.0,106978.0,257.6901064815902,-1.6188398450503823,-0.03755461161343167
63107.132526409005,4.139136138779577,PPG_1,PPG_3,106966.0,106966.0,245.63533925681259,-1.493857505930356,-0.034672616796067715
63107.142524322386,4.149134052160662,PPG_1,PPG_3,106938.0,106938.0,217.58057203203498,-1.1327583751182162,-0.02634595375805403
63107.15252223576,4.1591319655344705,PPG_1,PPG_3,106979.0,106979.0,258.5258048072428,-0.42215094631336697,-0.009959903205510419
63107.16252014914,4.169129878915555,PPG_1,PPG_3,106986.0,106986.0,265.4710375824652,0.7153307261069983,0.01626953295197542
63107.17251806252,4.17912779229664,PPG_1,PPG_3,106960.0,106960.0,239.4162703576876,2.3126031835186023,0.05310138436865947
63107.182515975896,4.189125705670449,PPG_1,PPG_3,106959.0,106959.0,238.36150313291,4.352860857805814,0.10014812781083436
63107.19251388928,4.199123619051534,PPG_1,PPG_3,106984.0,106984.0,263.3067359081324,6.766724236677887,0.15580992608341332
63107.20251180266,4.2091215324326186,PPG_1,PPG_3,106941.0,106941.0,220.2519686833548,9.433787954485254,0.21731032579123605
63107.21250971603,4.219119445806427,PPG_1,PPG_3,107011.0,107011.0,290.19720145856263,12.190859741390682,0.28088624105179966
63107.22250762941,4.229117359187512,PPG_1,PPG_3,106957.0,106957.0,236.14243423378502,14.847393940745977,0.3421438383139179
63107.232505542794,4.239115272568597,PPG_1,PPG_3,106992.0,106992.0,271.0876670090074,17.206818390161786,0.39655031752573644
63107.24250345617,4.249113185942406,PPG_1,PPG_3,107021.0,107021.0,300.0328997842298,19.091438835927487,0.44000818841882966
63107.25250136955,4.259111099323491,PPG_1,PPG_3,107004.0,107004.0,282.9781325594522,20.367632175222468,0.4694362069348729
63107.26249928293,4.269109012704575,PPG_1,PPG_3,107000.0,107000.0,278.9233653346746,20.966379412547994,0.483242849113541
63107.2724971963,4.279106926078384,PPG_1,PPG_3,106994.0,106994.0,272.86859810988244,20.894422701322345,0.48158358373023175
63107.282495109685,4.289104839459469,PPG_1,PPG_3,107005.0,107005.0,283.81383088510484,20.234824847140665,0.4663737740028717
63107.292493023066,4.299102752840554,PPG_1,PPG_3,107019.0,107019.0,297.75906366032723,19.138415427188242,0.4410914318074888
63107.30249093644,4.309100666214363,PPG_1,PPG_3,106942.0,106942.0,220.70429643554962,17.807265030819842,0.41039614661378265
63107.31248884982,4.3190985795954475,PPG_1,PPG_3,107008.0,107008.0,286.649529210772,16.471559703718537,0.3795958282861305
63107.3224867632,4.329096492976532,PPG_1,PPG_3,106976.0,106976.0,254.5947619859944,15.363757687460671,0.35405078174595944
63107.332484676575,4.339094406350341,PPG_1,PPG_3,106990.0,106990.0,268.53999476120225,14.694517277685577,0.3386186222414867
63107.34248258996,4.349092319731426,PPG_1,PPG_3,106965.0,106965.0,243.48522753642465,14.632307787392621,0.3371841201360094
63107.35248050334,4.359090233112511,PPG_1,PPG_3,106998.0,106998.0,276.43046031164704,15.287240517749172,0.3522863557630522
63107.36247841671,4.36908814648632,PPG_1,PPG_3,106987.0,106987.0,265.37569308686943,16.700205565873254,0.3848682227250662
63107.37247633009,4.379086059867404,PPG_1,PPG_3,106971.0,106971.0,249.32092586209183,18.83790947200593,0.4341619999251913
63107.38247424347,4.389083973248489,PPG_1,PPG_3,106971.0,106971.0,249.26615863731422,21.593842707337203,0.4977116610785016
63107.39247215685,4.399081886622298,PPG_1,PPG_3,107006.0,107006.0,284.21139141252206,24.79649873824399,0.5715623998937573
63107.40247007023,4.409079800003383,PPG_1,PPG_3,107040.0,107040.0,318.15662418774446,28.226200335766272,0.650648631586634
63107.41246798361,4.419077713384468,PPG_1,PPG_3,107000.0,107000.0,278.10185696296685,31.637744789871785,0.7293161737783084
63107.42246589698,4.4290756267582765,PPG_1,PPG_3,106983.0,106983.0,261.04708973818924,34.782443324411076,0.8018304581366019
63107.432463810364,4.439073540139361,PPG_1,PPG_3,107008.0,107008.0,285.99232251341164,37.426079310139606,0.8627906326981425
63107.442461723746,4.449071453520446,PPG_1,PPG_3,107033.0,107033.0,310.93755528863403,39.36512136359299,0.9075034232255841
63107.45245963712,4.459069366894255,PPG_1,PPG_3,107032.0,107032.0,309.8827880638419,40.44361655866277,0.9323726774308367
63107.4624575505,4.46906728027534,PPG_1,PPG_3,107039.0,107039.0,316.82802083906427,40.567941572120375,0.9352395148334351
63107.47245546388,4.4790651936564245,PPG_1,PPG_3,107023.0,107023.0,300.77325361428666,39.713570005372986,0.9155383758980817
63107.48245337726,4.489063107037509,PPG_1,PPG_3,106983.0,106983.0,260.71848638950905,37.92035843463411,0.8741883220449256
63107.49245129064,4.499061020411318,PPG_1,PPG_3,106999.0,106999.0,276.66371916473145,35.27812265709707,0.8132604351872279
63107.50244920402,4.509058933792403,PPG_1,PPG_3,106996.0,106996.0,273.60895193995384,31.90875106803106,0.7355653662212347
63107.5124471174,4.519056847173488,PPG_1,PPG_3,107001.0,107001.0,278.5541847151617,27.951341308575582,0.6443105977696437
63107.52244503077,4.529054760547297,PPG_1,PPG_3,107000.0,107000.0,277.4994174903841,23.55298066113854,0.5428878473229769
63107.53244294415,4.539052673928381,PPG_1,PPG_3,107023.0,107023.0,300.44465026560647,18.863731690554367,0.43475744005339984
63107.542440857535,4.549050587309466,PPG_1,PPG_3,106975.0,106975.0,252.38988304082886,14.03240986804216,0.32335094413139726
63107.55243877091,4.559048500683275,PPG_1,PPG_3,106976.0,106976.0,253.33511581605126,9.200082576103654,0.21192126287220214
63107.56243668429,4.56904641406436,PPG_1,PPG_3,106985.0,106985.0,262.28034859127365,4.491058523020715,0.10333485769383531
63107.57243459767,4.579044327445445,PPG_1,PPG_3,106947.0,106947.0,224.2255813664815,0.004140005988987242,-0.00012996784124524687
63107.58243251104,4.5890422408192535,PPG_1,PPG_3,106969.0,106969.0,246.1708141417039,-4.19268335939151,-0.09690542646666701
63107.592430424425,4.599040154200338,PPG_1,PPG_3,106972.0,106972.0,249.11604691692628,-8.06210740994606,-0.18613131340715863
63107.60242833781,4.609038067581423,PPG_1,PPG_3,106972.0,106972.0,249.06127969214867,-11.591681994073529,-0.2675205379214002
63107.61242625118,4.619035980955232,PPG_1,PPG_3,106959.0,106959.0,236.00651246737107,-14.784453899132679,-0.3411433565387492
63107.62242416456,4.629033894336317,PPG_1,PPG_3,106959.0,106959.0,235.95174524259346,-17.64940733741567,-0.40720693815559866
63107.63242207794,4.6390318077174015,PPG_1,PPG_3,106966.0,106966.0,242.8969780178013,-20.193668262548258,-0.46587560167942627
63107.64241999131,4.64902972109121,PPG_1,PPG_3,106943.0,106943.0,219.8422107930237,-22.416893537333763,-0.5171414346353219
63107.6524179047,4.659027634472295,PPG_1,PPG_3,106961.0,106961.0,237.7874435682461,-24.30792019017862,-0.5607470276444443
63107.66241581808,4.66902554785338,PPG_1,PPG_3,106971.0,106971.0,247.73267634346848,-25.843807585074426,-0.5961633876142592
63107.67241373145,4.679023461227189,PPG_1,PPG_3,106954.0,106954.0,230.67790911869088,-26.992022639829383,-0.6226403271588546
63107.68241164483,4.689021374608274,PPG_1,PPG_3,106934.0,106934.0,210.62314189391327,-27.717335090658693,-0.6393654639980056
63107.692409558214,4.699019287989358,PPG_1,PPG_3,106940.0,106940.0,216.5683746691211,-27.99358283822793,-0.645735520618873
63107.70240747159,4.709017201363167,PPG_1,PPG_3,106925.0,106925.0,201.5136074443435,-27.817043100764227,-0.6416646525905464
63107.71240538497,4.719015114744252,PPG_1,PPG_3,106949.0,106949.0,225.4588402195659,-27.216419518584097,-0.6278147433696336
63107.72240329835,4.729013028125337,PPG_1,PPG_3,106949.0,106949.0,225.4040729947883,-26.25606119296427,-0.6056696328145281
63107.73240121173,4.739010941499146,PPG_1,PPG_3,106950.0,106950.0,226.3493057700107,-25.032210069301488,-0.5774485847812222
63107.742399125105,4.7490088548802305,PPG_1,PPG_3,106931.0,106931.0,207.29453854523308,-23.66425604002302,-0.5459046366479857
63107.75239703849,4.759006768261315,PPG_1,PPG_3,106968.0,106968.0,244.23977132044092,-22.282691226259114,-0.5140468344884647
63107.76239495186,4.769004681635124,PPG_1,PPG_3,106957.0,106957.0,233.18500409566332,-21.014336818498997,-0.4847995755918701
63107.77239286524,4.779002595016209,PPG_1,PPG_3,106969.0,106969.0,245.1302368708857,-19.966197144612636,-0.4606302959217794
63107.78239077862,4.789000508397294,PPG_1,PPG_3,106956.0,106956.0,232.0754696461081,-19.210992302497587,-0.44321586396004803
63107.792388692,4.798998421771103,PPG_1,PPG_3,106973.0,106973.0,249.0207024213305,-18.77728384804841,-0.4332148868078355
63107.80238660538,4.808996335152187,PPG_1,PPG_3,106963.0,106963.0,238.9659351965529,-18.645606915042,-0.4301785199006166
63107.81238451876,4.818994248533272,PPG_1,PPG_3,106997.0,106997.0,272.91116797176073,-18.751406303371777,-0.43261817090245835
63107.82238243213,4.828992161907081,PPG_1,PPG_3,106932.0,106932.0,207.85640074698313,-18.99600868596107,-0.438258510200799
63107.83238034551,4.838990075288166,PPG_1,PPG_3,106911.0,106911.0,186.80163352220552,-19.265700813542285,-0.44447739936102254
63107.842378258894,4.848987988669251,PPG_1,PPG_3,106952.0,106952.0,227.7468662974279,-19.454269785451945,-0.4488256521108562
63107.85237617227,4.8589859020430595,PPG_1,PPG_3,106956.0,106956.0,231.6920990726503,-19.480450163712263,-0.4494293511214052
63107.86237408565,4.868983815424144,PPG_1,PPG_3,106967.0,106967.0,242.6373318478727,-19.294910432016284,-0.44515095027751167
63107.87237199903,4.878981728805229,PPG_1,PPG_3,106943.0,106943.0,218.58256462308054,-18.878621245667322,-0.4355516477998216
63107.8823699124,4.888979642179038,PPG_1,PPG_3,106955.0,106955.0,230.52779739830294,-18.237216452986917,-0.42076135581655105
63107.892367825785,4.898977555560123,PPG_1,PPG_3,106990.0,106990.0,265.47303017352533,-17.393689588774773,-0.4013102872249157
63107.902365739166,4.9089754689412075,PPG_1,PPG_3,106933.0,106933.0,208.41826294874772,-16.380320092935104,-0.3779427806184028
63107.91236365254,4.918973382315016,PPG_1,PPG_3,106991.0,106991.0,266.3634957239701,-15.231531700350335,-0.35145262035265795
63107.92236156592,4.928971295696101,PPG_1,PPG_3,106966.0,106966.0,241.3087284991925,-13.979415750297173,-0.3225798075680736
63107.9323594793,4.938969209077186,PPG_1,PPG_3,106927.0,106927.0,202.25396127440035,-12.652566250080904,-0.29198369766991505
63107.94235739267,4.948967122450995,PPG_1,PPG_3,106977.0,106977.0,252.19919404962275,-11.277398171974284,-0.26027339922285564
63107.95235530606,4.95896503583208,PPG_1,PPG_3,106991.0,106991.0,266.14442682484514,-9.87946310804396,-0.2280381119204676
63107.96235321944,4.968962949213164,PPG_1,PPG_3,106943.0,106943.0,218.08965960006753,-8.483319846031238,-0.1958441421664358
63107.97235113281,4.978960862586973,PPG_1,PPG_3,106972.0,106972.0,247.03489237528993,-7.112501347283359,-0.1642341416115255
63107.98234904619,4.988958775968058,PPG_1,PPG_3,106981.0,106981.0,255.98012515051232,-5.79077167475692,-0.13375609092854712
63107.992346959574,4.998956689349143,PPG_1,PPG_3,106932.0,106932.0,206.92535792572016,-4.543443375494936,-0.10499367762011813
63108.00234487295,5.008954602722952,PPG_1,PPG_3,106974.0,106974.0,248.87059070094256,-3.3969212899129606,-0.0785557766182228
63108.01234278633,5.0189525161040365,PPG_1,PPG_3,107004.0,107004.0,278.81582347616495,-2.3748595454261143,-0.05498783356821892
63108.02234069971,5.028950429485121,PPG_1,PPG_3,106968.0,106968.0,242.76105625138734,-1.4909434528319947,-0.034605421014758685
63108.03233861309,5.03894834285893,PPG_1,PPG_3,106990.0,106990.0,264.70628902660974,-0.7417925563988761,-0.017330588297230703
63108.042336526465,5.048946256240015,PPG_1,PPG_3,106983.0,106983.0,257.65152180183213,-0.10426288566189848,-0.0026296535898460214
63108.052334439846,5.0589441696211,PPG_1,PPG_3,106949.0,106949.0,223.59675457703997,0.46159197841648747,0.010418516232675614
63108.06233235323,5.0689420830021845,PPG_1,PPG_3,107003.0,107003.0,277.54198735226237,1.0055426423335692,0.022961592361257364
63108.0723302666,5.078939996375993,PPG_1,PPG_3,106957.0,106957.0,231.48722012748476,1.578781312599411,0.03618002696930386
63108.08232817998,5.088937909757078,PPG_1,PPG_3,106969.0,106969.0,243.43245290270715,2.2260189104857977,0.05110481887066437
63108.09232609336,5.098935823138163,PPG_1,PPG_3,106985.0,106985.0,259.37768567792955,2.9792074845017535,0.06847275726976187
63108.10232400674,5.108933736511972,PPG_1,PPG_3,106980.0,106980.0,254.32291845315194,3.853921623382454,0.08864297998025375
63108.11232192012,5.118931649893057,PPG_1,PPG_3,106975.0,106975.0,249.26815122835978,4.848537043986017,0.1115780323055021
63108.1223198335,5.128929563274141,PPG_1,PPG_3,106985.0,106985.0,259.2133840035822,5.945104179219964,0.13686401129170822
63108.13231774687,5.13892747664795,PPG_1,PPG_3,106970.0,106970.0,244.15861677880457,7.11118409242421,0.16375290047515895
63108.142315660254,5.148925390029035,PPG_1,PPG_3,106990.0,106990.0,264.10384955402697,8.302956107497236,0.1912342293981308
63108.152313573635,5.15892330341012,PPG_1,PPG_3,106975.0,106975.0,249.04908232924936,9.470080751646675,0.21814720925863865
63108.16231148701,5.168921216783929,PPG_1,PPG_3,106981.0,106981.0,254.99431510447175,10.562412495761999,0.24333552344404713
63108.17230940039,5.1789191301650135,PPG_1,PPG_3,106998.0,106998.0,271.9395478796796,11.538342232309194,0.26583969853505174
63108.18230731377,5.188917043546098,PPG_1,PPG_3,107016.0,107016.0,289.884780654902,12.373841424411804,0.28510565529746335
63108.192305227145,5.198914956919907,PPG_1,PPG_3,106984.0,106984.0,257.8300134301244,13.06952163654585,0.30114749592894274
63108.202303140526,5.208912870300992,PPG_1,PPG_3,106997.0,106997.0,270.7752462053468,13.652065806958012,0.31458050807957244
63108.21230105391,5.218910783682077,PPG_1,PPG_3,106972.0,106972.0,245.72047898056917,14.168631445808588,0.3264921069860864
63108.22229896728,5.228908697055886,PPG_1,PPG_3,106981.0,106981.0,254.66571175579156,14.676604195483657,0.33820556060067863
63108.23229688066,5.23890661043697,PPG_1,PPG_3,106989.0,106989.0,262.6109445309994,15.23293569742144,0.3510341291537222
63108.24229479404,5.248904523818055,PPG_1,PPG_3,106985.0,106985.0,258.5561773062218,15.886382399531774,0.36610209813369937
63108.25229270742,5.258902437191864,PPG_1,PPG_3,106993.0,106993.0,266.5014100814442,16.673668291958226,0.38425629398034467
63108.2622906208,5.268900350572949,PPG_1,PPG_3,106982.0,106982.0,255.44664285666659,17.618900117431053,0.40605259929356197
63108.27228853418,5.278898263954034,PPG_1,PPG_3,107001.0,107001.0,274.391875631889,18.735374030061216,0.4317976129697111
63108.28228644755,5.2888961773278425,PPG_1,PPG_3,107000.0,107000.0,273.3371084071114,20.029158883118257,0.46163127801028575
63108.292284360934,5.298894090708927,PPG_1,PPG_3,107018.0,107018.0,291.2823411823192,21.503196548013843,0.4956214316651044
63108.302282274315,5.308892004090012,PPG_1,PPG_3,106981.0,106981.0,254.2275739575416,23.159611243440317,0.5338170567529027
63108.31228018769,5.318889917463821,PPG_1,PPG_3,107024.0,107024.0,297.172806732764,24.99826047851156,0.5762148675454873
63108.32227810107,5.328887830844906,PPG_1,PPG_3,107010.0,107010.0,283.1180395079864,27.0112118406493,0.6226319488237901
63108.33227601445,5.3388857442259905,PPG_1,PPG_3,106991.0,106991.0,264.0632722832088,29.17359806403701,0.6724948809214022
63108.342273927825,5.348883657599799,PPG_1,PPG_3,106978.0,106978.0,251.00850505843118,31.431701221660433,0.7245649705289755
63108.352271841206,5.358881570980884,PPG_1,PPG_3,107011.0,107011.0,283.953737833639,33.69141244282509,0.7766721408219037
63108.36226975459,5.368879484361969,PPG_1,PPG_3,106988.0,106988.0,260.8989706088614,35.812122755558384,0.8255740590725945
63108.37226766796,5.378877397735778,PPG_1,PPG_3,107000.0,107000.0,272.8442033840838,37.60944047571927,0.8670187975142842
63108.38226558134,5.388875311116863,PPG_1,PPG_3,106996.0,106996.0,268.7894361593062,38.8673551889998,0.8960253252356035
63108.39226349472,5.398873224497947,PPG_1,PPG_3,107026.0,107026.0,298.7346689345286,39.35934878272526,0.907370312033549
63108.4022614081,5.408871137871756,PPG_1,PPG_3,107027.0,107027.0,299.679901709751,38.87664838969682,0.8962396191625223
63108.41225932148,5.418869051252841,PPG_1,PPG_3,107039.0,107039.0,311.62513448495883,37.2589487484307,0.8589367328907014
63108.42225723486,5.428866964633926,PPG_1,PPG_3,106999.0,106999.0,271.57036726018123,34.420933930965575,0.7934943347637006
63108.43225514823,5.438864878007735,PPG_1,PPG_3,107020.0,107020.0,292.5156000354036,30.36942412849262,0.7000696930468185
63108.442253061614,5.4488627913888195,PPG_1,PPG_3,107017.0,107017.0,289.460832810626,25.209724186389632,0.5810910549688951
63108.452250974995,5.458860704769904,PPG_1,PPG_3,106995.0,106995.0,267.4060655858484,19.141847591531743,0.44117057482817434
63108.46224888837,5.468858618143713,PPG_1,PPG_3,107007.0,107007.0,279.3512983610708,12.446853552750325,0.2867892577724838
63108.47224680175,5.478856531524798,PPG_1,PPG_3,106985.0,106985.0,257.29653113627865,5.463292408023887,0.12575380934390723
63108.48224471513,5.488854444905883,PPG_1,PPG_3,106970.0,106970.0,242.24176391150104,-1.4452743054814339,-0.03355232625829595
63108.492242628505,5.4988523582796915,PPG_1,PPG_3,106946.0,106946.0,218.18699668672343,-7.9291976223821,-0.18306651783977512
63108.502240541886,5.508850271660776,PPG_1,PPG_3,106923.0,106923.0,195.13222946194583,-13.69329529486398,-0.31598209403905747
63108.51223845527,5.518848185041861,PPG_1,PPG_3,106895.0,106895.0,167.07746223716822,-18.531425295161807,-0.4275455812066391
63108.52223636864,5.52884609841567,PPG_1,PPG_3,106971.0,106971.0,243.0226950123906,-22.346251944275334,-0.5155124948465634
63108.53223428202,5.538844011796755,PPG_1,PPG_3,106945.0,106945.0,216.96792778759846,-25.148614543417022,-0.5801327807522767
63108.5422321954,5.54884192517784,PPG_1,PPG_3,106950.0,106950.0,221.91316056282085,-27.038557849488544,-0.6237133926336003
63108.55223010878,5.558839838551648,PPG_1,PPG_3,106977.0,106977.0,248.85839333804324,-28.176175092759465,-0.6499459549486811
63108.56222802216,5.568837751932733,PPG_1,PPG_3,106940.0,106940.0,211.80362611326564,-28.750602066252277,-0.6631917908981148
63108.57222593554,5.578835665313818,PPG_1,PPG_3,106953.0,106953.0,224.74885888848803,-28.95262775873037,-0.6678503450810147
63108.58222384891,5.588833578687627,PPG_1,PPG_3,106959.0,106959.0,230.69409166371042,-28.953511808558897,-0.6678707305774141
63108.592221762294,5.598831492068712,PPG_1,PPG_3,106939.0,106939.0,210.63932443891827,-28.890409974673393,-0.6664156517278372
63108.602219675675,5.6088294054497965,PPG_1,PPG_3,106959.0,106959.0,230.58455721414066,-28.85809418060281,-0.6656704748357567
63108.61221758905,5.618827318823605,PPG_1,PPG_3,106944.0,106944.0,215.52978998936305,-28.90673340519213,-0.6667920572463115
63108.62221550243,5.62882523220469,PPG_1,PPG_3,106937.0,106937.0,208.47502276458545,-29.045226334564152,-0.6699855956894384
63108.63221341581,5.638823145585775,PPG_1,PPG_3,106938.0,106938.0,209.42025553980784,-29.248884596451976,-0.6746817956438207
63108.64221132919,5.64882105896686,PPG_1,PPG_3,106948.0,106948.0,219.36548831503023,-29.469376378624116,-0.6797661633870199
63108.652209242566,5.6588189723406686,PPG_1,PPG_3,106949.0,106949.0,220.31072109023808,-29.644901773997354,-0.68381364148147
63108.66220715595,5.668816885721753,PPG_1,PPG_3,106941.0,106941.0,212.25595386546047,-29.710124377111562,-0.6853176236078535
63108.67220506933,5.678814799102838,PPG_1,PPG_3,106930.0,106930.0,201.20118664068286,-29.606423132576023,-0.6829263541580267
63108.6822029827,5.688812712476647,PPG_1,PPG_3,106906.0,106906.0,177.14641941590526,-29.29170131771465,-0.6756691156895516
63108.69220089608,5.698810625857732,PPG_1,PPG_3,106964.0,106964.0,235.09165219112765,-28.746509629030967,-0.6630974225021858
63108.702198809464,5.708808539238817,PPG_1,PPG_3,106964.0,106964.0,235.03688496635004,-27.973344480002037,-0.6452688399347888
63108.71219672284,5.718806452612625,PPG_1,PPG_3,106929.0,106929.0,199.9821177415579,-26.990229123210373,-0.6225989700708273
63108.72219463622,5.72880436599371,PPG_1,PPG_3,106986.0,106986.0,256.9273505167803,-25.82345003471974,-0.5956939584530713
63108.7321925496,5.738802279374795,PPG_1,PPG_3,106951.0,106951.0,221.87258329200267,-24.50360476180688,-0.5652593605487688
63108.742190462974,5.748800192748604,PPG_1,PPG_3,106924.0,106924.0,194.81781606722507,-23.06668562499323,-0.5321251310694257
63108.752188376355,5.758798106129689,PPG_1,PPG_3,106911.0,106911.0,181.76304884244746,-21.55929097705879,-0.4973657915206821
63108.762186289736,5.7687960195107735,PPG_1,PPG_3,106976.0,106976.0,246.70828161766985,-20.043022570040424,-0.4624018300399882
63108.77218420311,5.778793932884582,PPG_1,PPG_3,106945.0,106945.0,215.6535143928777,-18.59209852717711,-0.42894465839988083
63108.78218211649,5.788791846265667,PPG_1,PPG_3,106974.0,106974.0,244.5987471681001,-17.28349086586834,-0.3987691910145826
63108.79218002987,5.798789759646752,PPG_1,PPG_3,106953.0,106953.0,223.54397994332248,-16.18426788581648,-0.3734219703277103
63108.802177943246,5.808787673020561,PPG_1,PPG_3,106954.0,106954.0,224.48921271854488,-15.340718176044222,-0.353970374935358
63108.81217585663,5.818785586401646,PPG_1,PPG_3,106961.0,106961.0,231.43444549376727,-14.770738411054916,-0.3408270881296601
63108.82217377001,5.82878349978273,PPG_1,PPG_3,106974.0,106974.0,244.37967826898966,-14.459025739092512,-0.33363923813879387
63108.83217168338,5.838781413156539,PPG_1,PPG_3,106940.0,106940.0,210.3249110441975,-14.354883102216524,-0.33123779052742397
63108.84216959676,5.848779326537624,PPG_1,PPG_3,106988.0,106988.0,258.2701438194199,-14.373295209332428,-0.33166235929176613
63108.852167510144,5.858777239918709,PPG_1,PPG_3,106964.0,106964.0,234.2153765946423,-14.399965802248818,-0.33227736226820465
63108.86216542352,5.868775153292518,PPG_1,PPG_3,106944.0,106944.0,214.1606093698647,-14.30099645597299,-0.3299952066848392
63108.8721633369,5.878773066673602,PPG_1,PPG_3,106965.0,106965.0,235.10584214508708,-13.937388899023395,-0.32161070130542924
63108.88216125028,5.888770980054687,PPG_1,PPG_3,106952.0,106952.0,222.05107492030947,-13.182513958689206,-0.3042038766202889
63108.89215916365,5.898768893428496,PPG_1,PPG_3,106957.0,106957.0,226.99630769551732,-11.93940783420843,-0.27553882335427166
63108.902157077035,5.908766806809581,PPG_1,PPG_3,106943.0,106943.0,212.9415404707397,-10.155520980642887,-0.2344037901732852
63108.912154990416,5.918764720190666,PPG_1,PPG_3,106947.0,106947.0,216.8867732459621,-7.832968702547509,-0.1808475543430407
63108.92215290379,5.9287626335644745,PPG_1,PPG_3,106949.0,106949.0,218.8320060211845,-5.031644811875417,-0.11625122024081577
63108.93215081717,5.938760546945559,PPG_1,PPG_3,106987.0,106987.0,256.7772387964069,-1.862820874705552,-0.04318062299993685
63108.94214873055,5.948758460326644,PPG_1,PPG_3,107001.0,107001.0,270.7224715716293,1.5263391644711108,0.03497075212150278
63108.952146643926,5.958756373700453,PPG_1,PPG_3,106974.0,106974.0,243.66770434683713,4.972622382583934,0.11443934299361952
63108.96214455731,5.968754287081538,PPG_1,PPG_3,106973.0,106973.0,242.61293712205952,8.314558915300864,0.19150178105536786
63108.97214247069,5.978752200462623,PPG_1,PPG_3,106973.0,106973.0,242.5581698972819,11.405259631558227,0.26277091803097374
63108.98214038406,5.988750113836431,PPG_1,PPG_3,107000.0,107000.0,269.5034026725043,14.122225636353265,0.32542202537865716
63108.99213829744,5.998748027217516,PPG_1,PPG_3,107000.0,107000.0,269.4486354477267,16.376606785602824,0.3774062883892954
63109.002136210824,6.008745940598601,PPG_1,PPG_3,106999.0,106999.0,268.3938682229491,18.12109366834338,0.4176327891126452
63109.0121341242,6.01874385397241,PPG_1,PPG_3,106984.0,106984.0,253.33910099815694,19.35344738295968,0.4460499002316216
63109.02213203758,6.028741767353495,PPG_1,PPG_3,107017.0,107017.0,286.28433377337933,20.113926785537117,0.46358595942503633
63109.03212995096,6.0387396807345795,PPG_1,PPG_3,106974.0,106974.0,243.22956654860172,20.477083277901702,0.4719600636085218
63109.04212786433,6.048737594108388,PPG_1,PPG_3,106989.0,106989.0,258.1747993238241,20.5393156014837,0.47339509223175463
63109.052125777715,6.058735507489473,PPG_1,PPG_3,106983.0,106983.0,252.1200320990465,20.40434654087111,0.470282811441295
63109.062123691096,6.068733420870558,PPG_1,PPG_3,106989.0,106989.0,258.0652648742689,20.169749852316357,0.4648731956080032
63109.07212160447,6.078731334244367,PPG_1,PPG_3,107005.0,107005.0,274.01049764947675,19.916924285467182,0.4590432361234341
63109.08211951785,6.0887292476254515,PPG_1,PPG_3,106962.0,106962.0,230.95573042469914,19.70476078477357,0.4541509120259824
63109.09211743123,6.098727161006536,PPG_1,PPG_3,106987.0,106987.0,255.90096319992153,19.56648898018233,0.4509624725470508
63109.102115344605,6.108725074380345,PPG_1,PPG_3,106996.0,106996.0,264.8461959751439,19.510516811141972,0.4496717981827631
63109.11211325799,6.11872298776143,PPG_1,PPG_3,107018.0,107018.0,286.7914287503663,19.526236475183737,0.45003428131932494
63109.12211117137,6.128720901142515,PPG_1,PPG_3,106976.0,106976.0,244.73666152558872,19.59287477496932,0.45157090830176255
63109.13210908474,6.138718814516324,PPG_1,PPG_3,107003.0,107003.0,271.68189430079656,19.687388685389987,0.45375032502510915
63109.14210699812,6.148716727897408,PPG_1,PPG_3,106993.0,106993.0,261.62712707601895,19.789287448344176,0.45610003066190113
63109.1521049115,6.158714641278493,PPG_1,PPG_3,106982.0,106982.0,250.57235985124134,19.882971931216993,0.4582603214358447
63109.16210282488,6.168712554652302,PPG_1,PPG_3,107004.0,107004.0,272.51759262646374,19.95872291007332,0.4600070796579366
63109.17210073826,6.178710468033387,PPG_1,PPG_3,106978.0,106978.0,246.46282540168613,20.013059151596035,0.4612600308154046
63109.18209865164,6.188708381414472,PPG_1,PPG_3,106981.0,106981.0,249.40805817690853,20.04912191063287,0.46209160978388747
63109.19209656501,6.1987062947882805,PPG_1,PPG_3,107021.0,107021.0,289.35329095211637,20.077866240435252,0.4627544315081593
63109.202094478394,6.208704208169365,PPG_1,PPG_3,106978.0,106978.0,246.29852372733876,20.120225854686264,0.4637312110243413
63109.212092391776,6.21870212155045,PPG_1,PPG_3,106998.0,106998.0,266.24375650256115,20.20887378259566,0.46577536278693216
63109.22209030515,6.228700034924259,PPG_1,PPG_3,106993.0,106993.0,261.18898927778355,20.387978422802952,0.4699053754629435
63109.23208821853,6.238697948305344,PPG_1,PPG_3,107000.0,107000.0,268.13422205300594,20.710895889749054,0.4773515992472593
63109.24208613191,6.2486958616864285,PPG_1,PPG_3,107003.0,107003.0,271.07945482822834,21.236214066598595,0.48946502482248017
63109.25208404529,6.258693775067513,PPG_1,PPG_3,106997.0,106997.0,265.0246876034362,22.021611128893923,0.5075756657261862
63109.26208195867,6.268691688441322,PPG_1,PPG_3,107011.0,107011.0,278.96992037865857,23.11464162417129,0.5327800925659251
63109.27207987205,6.278689601822407,PPG_1,PPG_3,106966.0,106966.0,233.91515315388096,24.540356866129517,0.5656559690080712
63109.28207778543,6.288687515203492,PPG_1,PPG_3,106989.0,106989.0,256.86038592910336,26.28748436536817,0.6059433602789634
63109.2920756988,6.298685428577301,PPG_1,PPG_3,107003.0,107003.0,270.80561870432575,28.2970922123419,0.6522833427172039
63109.30207361218,6.308683341958385,PPG_1,PPG_3,107004.0,107004.0,271.75085147954815,30.457601356858305,0.7021029908467211
63109.312071525565,6.31868125533947,PPG_1,PPG_3,106994.0,106994.0,261.696084254756,32.60684233316978,0.7516628038459596
63109.32206943894,6.328679168713279,PPG_1,PPG_3,106986.0,106986.0,253.64131702997838,34.53957459905824,0.7962300956158262
63109.33206735232,6.338677082094364,PPG_1,PPG_3,106998.0,106998.0,265.5865498052008,36.0201783780705,0.8303716587176732
63109.3420652657,6.348674995475449,PPG_1,PPG_3,107006.0,107006.0,273.53178258042317,36.80207719200003,0.8484016327549158
63109.352063179074,6.3586729088492575,PPG_1,PPG_3,107019.0,107019.0,286.47701535564556,36.654396729562684,0.8449962369976672
63109.362061092455,6.368670822230342,PPG_1,PPG_3,107030.0,107030.0,297.42224813086796,35.39306628078255,0.8159109450919309
63109.37205900584,6.378668735611427,PPG_1,PPG_3,107022.0,107022.0,289.3674809060758,32.910728577348266,0.7586701825440773
63109.38205691921,6.388666648985236,PPG_1,PPG_3,107021.0,107021.0,288.3127136812982,29.19915844552774,0.6730842832922075
63109.39205483259,6.398664562366321,PPG_1,PPG_3,107027.0,107027.0,294.2579464565206,24.35938210660268,0.5614828328457759
63109.40205274597,6.4086624757474056,PPG_1,PPG_3,107004.0,107004.0,271.203179231743,18.596893404846764,0.4286043582508176
63109.412050659346,6.418660389121214,PPG_1,PPG_3,106976.0,106976.0,243.14841200696537,12.201375536036014,0.2811287270372732
63109.42204857273,6.428658302502299,PPG_1,PPG_3,106978.0,106978.0,245.09364478218777,5.513105488533155,0.1269024599522686
63109.43204648611,6.438656215883384,PPG_1,PPG_3,106941.0,106941.0,208.0388775573956,-1.1183508655636716,-0.026013727875904048
63109.44204439948,6.448654129257193,PPG_1,PPG_3,106925.0,106925.0,191.984110332618,-7.375399704344055,-0.17029637174641518
63109.45204231286,6.458652042638278,PPG_1,PPG_3,106969.0,106969.0,235.9293431078404,-13.005705368794517,-0.30012680906554773
63109.46204022624,6.468649956019362,PPG_1,PPG_3,106947.0,106947.0,213.8745758830628,-17.84180685359878,-0.41164352025517476
63109.47203813962,6.478647869393171,PPG_1,PPG_3,106946.0,106946.0,212.81980865828518,-21.80635973523536,-0.5030630035076782
63109.482036053,6.488645782774256,PPG_1,PPG_3,106940.0,106940.0,206.76504143350758,-24.90640753316853,-0.5745476768633584
63109.49203396638,6.498643696155341,PPG_1,PPG_3,106935.0,106935.0,201.71027420871542,-27.219842567964804,-0.6278936762064187
63109.502031879754,6.50864160952915,PPG_1,PPG_3,106948.0,106948.0,214.6555069839378,-28.87514887383267,-0.6660637426994105
63109.512029793135,6.5186395229102345,PPG_1,PPG_3,106968.0,106968.0,234.6007397591602,-30.02547177405501,-0.6925892875090023
63109.52202770652,6.528637436291319,PPG_1,PPG_3,106973.0,106973.0,239.5459725343826,-30.820441990531535,-0.7109206778476308
63109.53202561989,6.538635349665128,PPG_1,PPG_3,106960.0,106960.0,226.491205309605,-31.381961521572165,-0.7238688782870034
63109.54202353327,6.548633263046213,PPG_1,PPG_3,106955.0,106955.0,221.4364380848274,-31.79037856484494,-0.7332866553131228
63109.55202144665,6.558631176427298,PPG_1,PPG_3,106920.0,106920.0,186.38167086003523,-32.08390032365228,-0.7400550370990799
63109.562019360026,6.568629089801107,PPG_1,PPG_3,106939.0,106939.0,205.32690363525762,-32.26882022423155,-0.7443191451230552
63109.57201727341,6.578627003182191,PPG_1,PPG_3,106936.0,106936.0,202.27213641048002,-32.334626592275896,-0.7458365884113524
63109.58201518679,6.588624916563276,PPG_1,PPG_3,106939.0,106939.0,205.2173691857024,-32.26841413662696,-0.74430978106106
63109.59201310016,6.598622829937085,PPG_1,PPG_3,106927.0,106927.0,193.1626019609248,-32.06593344707826,-0.7396407350021987
63109.60201101354,6.60862074331817,PPG_1,PPG_3,106932.0,106932.0,198.1078347361472,-31.738536363238143,-0.7320912147620539
63109.61200892693,6.618618656699255,PPG_1,PPG_3,106927.0,106927.0,193.05306751135504,-31.315032259157377,-0.7223255419343034
63109.6220068403,6.6286165700730635,PPG_1,PPG_3,106956.0,106956.0,221.99830028657743,-30.837193461428583,-0.7113069536418625
63109.63200475368,6.638614483454148,PPG_1,PPG_3,106978.0,106978.0,243.94353306179983,-30.349400564874024,-0.7000588316294626
63109.64200266706,6.648612396835233,PPG_1,PPG_3,106935.0,106935.0,200.88876583702222,-29.886304852628175,-0.6893802073371593
63109.652000580434,6.658610310209042,PPG_1,PPG_3,106973.0,106973.0,238.8339986122446,-29.464154399329548,-0.6796457486358696
63109.661998493815,6.668608223590127,PPG_1,PPG_3,106945.0,106945.0,210.779231387467,-29.07932308472408,-0.6707718400335733
63109.6719964072,6.6786061369712115,PPG_1,PPG_3,106940.0,106940.0,205.72446416267485,-28.71412094053075,-0.6623505647216702
63109.68199432057,6.68860405034502,PPG_1,PPG_3,106922.0,106922.0,187.66969693789724,-28.347679059288453,-0.6539007020447427
63109.69199223395,6.698601963726105,PPG_1,PPG_3,106928.0,106928.0,193.61492971311964,-27.96768133314734,-0.6451382522053534
63109.70199014733,6.70859987710719,PPG_1,PPG_3,106946.0,106946.0,211.56016248834203,-27.577447800493022,-0.6361397726874487
63109.711988060706,6.718597790480999,PPG_1,PPG_3,106958.0,106958.0,223.50539526356442,-27.19476539489504,-0.6273154162432106
63109.72198597409,6.728595703862084,PPG_1,PPG_3,106982.0,106982.0,247.45062803878682,-26.843584296045275,-0.6192174552515441
63109.73198388747,6.738593617243168,PPG_1,PPG_3,106912.0,106912.0,177.39586081399466,-26.543693041097836,-0.6123021978750497
63109.74198180084,6.748591530616977,PPG_1,PPG_3,106955.0,106955.0,220.34109358921705,-26.302936875311893,-0.6067505493227118
63109.75197971422,6.758589443998062,PPG_1,PPG_3,106973.0,106973.0,238.28632636443945,-26.112170026800282,-0.6023516152604573
63109.7619776276,6.768587357379147,PPG_1,PPG_3,106943.0,106943.0,208.23155913966184,-25.94112314373673,-0.5984074081509873
63109.77197554098,6.778585270752956,PPG_1,PPG_3,106979.0,106979.0,244.17679191488423,-25.73600695295553,-0.5936775894986003
63109.78197345436,6.7885831841340405,PPG_1,PPG_3,106955.0,106955.0,220.12202469010663,-25.42176599225039,-0.5864314391502222
63109.79197136774,6.798581097515125,PPG_1,PPG_3,106932.0,106932.0,197.06725746531447,-24.91065730184022,-0.5746456731992651
63109.80196928112,6.80857901089621,PPG_1,PPG_3,106956.0,106956.0,221.01249024053686,-24.116099277297224,-0.5563237876836743
63109.811967194495,6.818576924270019,PPG_1,PPG_3,106939.0,106939.0,203.95772301575926,-22.96816230258234,-0.5298532604469294
63109.82196510787,6.828574837651104,PPG_1,PPG_3,106936.0,106936.0,200.90295579098165,-21.42638137057487,-0.49430100012886247
63109.83196302126,6.8385727510321885,PPG_1,PPG_3,106966.0,106966.0,230.84818856620404,-19.486917799407067,-0.4495784897331824
63109.84196093463,6.848570664405997,PPG_1,PPG_3,106952.0,106952.0,216.79342134142644,-17.182836782554933,-0.3964481867151097
63109.85195884801,6.858568577787082,PPG_1,PPG_3,106967.0,106967.0,231.73865411663428,-14.578159980145015,-0.3363863803966626
63109.86195676139,6.868566491168167,PPG_1,PPG_3,106971.0,106971.0,235.68388689185667,-11.757921300655402,-0.27135388608390365
63109.87195467477,6.878564404541976,PPG_1,PPG_3,106986.0,106986.0,250.62911966707907,-8.816785242360963,-0.20353359293811282
63109.88195258815,6.888562317923061,PPG_1,PPG_3,106964.0,106964.0,228.57435244230146,-5.848661352334175,-0.13509098153734184
63109.89195050153,6.898560231304145,PPG_1,PPG_3,106969.0,106969.0,233.51958521752385,-2.9391853355159663,-0.0680007441425832
63109.9019484149,6.908558144677954,PPG_1,PPG_3,106991.0,106991.0,255.46481799274625,-0.16111957449733924,-0.003940724287593582
63109.91194632829,6.918556058059039,PPG_1,PPG_3,106979.0,106979.0,243.4100507679541,2.428607048894086,0.055776342616042446
63109.921944241665,6.928553971440124,PPG_1,PPG_3,106982.0,106982.0,246.35528354317648,4.790674396607636,0.11024376499191546
63109.93194215504,6.938551884813933,PPG_1,PPG_3,106954.0,106954.0,218.30051631839888,6.903713189659158,0.15896878400932388
63109.94194006842,6.9485497981950175,PPG_1,PPG_3,107006.0,107006.0,270.24574909362127,8.764437841025464,0.20187563660574623
63109.9519379818,6.958547711576102,PPG_1,PPG_3,107023.0,107023.0,287.19098186884366,10.389508433568013,0.23934849123891538
63109.961935895175,6.968545624949911,PPG_1,PPG_3,106998.0,106998.0,262.13621464406606,11.817772337734757,0.27228313783473196
63109.97193380856,6.978543538330996,PPG_1,PPG_3,106989.0,106989.0,253.0814474192739,13.107793199067252,0.30203000817519843
63109.98193172194,6.988541451712081,PPG_1,PPG_3,106976.0,106976.0,240.0266801944963,14.327444496991365,0.3301542115175032
63109.99192963531,6.99853936508589,PPG_1,PPG_3,106994.0,106994.0,257.9719129697187,15.538246259446646,0.3580743515054427
63110.00192754869,7.008537278466974,PPG_1,PPG_3,106979.0,106979.0,242.91714574494108,16.780234247347792,0.3867136214179855
63110.01192546207,7.018535191848059,PPG_1,PPG_3,106983.0,106983.0,246.86237852016347,18.061769375528005,0.4162648174004699
63110.02192337545,7.028533105221868,PPG_1,PPG_3,107000.0,107000.0,263.80761129538587,19.356377232105977,0.44611746025742
63110.03192128883,7.038531018602953,PPG_1,PPG_3,107002.0,107002.0,265.7528440705937,20.607135114245466,0.4749589570599513
63110.04191920221,7.048528931984038,PPG_1,PPG_3,106998.0,106998.0,261.6980768458161,21.73735410773123,0.5010209215314607
63110.05191711558,7.0585268453578465,PPG_1,PPG_3,107011.0,107011.0,274.6433096210385,22.66485551890632,0.5224083773826216
63110.06191502896,7.068524758738931,PPG_1,PPG_3,107027.0,107027.0,290.5885423962609,23.316999405538294,0.5374463044584141
63110.071912942345,7.078522672120016,PPG_1,PPG_3,106996.0,106996.0,259.5337751714833,23.64370349694684,0.5449798448360414
63110.08191085572,7.088520585493825,PPG_1,PPG_3,107011.0,107011.0,274.4790079467057,23.625843948811585,0.5445680176488671
63110.0919087691,7.09851849887491,PPG_1,PPG_3,107005.0,107005.0,268.4242407219135,23.27808067690923,0.5365488690687656
63110.10190668248,7.1085164122559945,PPG_1,PPG_3,106982.0,106982.0,245.3694734971359,22.64737127540213,0.5220052044261911
63110.111904595855,7.118514325629803,PPG_1,PPG_3,107003.0,107003.0,266.3147062723583,21.80950014454013,0.5026845526143846
63110.12190250923,7.128512239010888,PPG_1,PPG_3,107029.0,107029.0,292.2599390475807,20.865820543591138,0.4809240403825304
63110.13190042262,7.138510152391973,PPG_1,PPG_3,107023.0,107023.0,286.2051718228031,19.940291535835502,0.4595820666088587
63110.14189833599,7.148508065765782,PPG_1,PPG_3,106981.0,106981.0,244.1504045980255,19.173485608213042,0.44190012270469164
63110.15189624937,7.158505979146867,PPG_1,PPG_3,107015.0,107015.0,278.09563737323333,18.71020178190396,0.4312171606494762
63110.16189416275,7.168503892527951,PPG_1,PPG_3,106968.0,106968.0,231.04087014845572,18.681698035735266,0.43055988659530164
63110.17189207613,7.17850180590176,PPG_1,PPG_3,106982.0,106982.0,244.98610292367812,19.187363447138626,0.44222013479713085
63110.18188998951,7.188499719282845,PPG_1,PPG_3,107011.0,107011.0,273.9313356989005,20.281192941863527,0.46744298593811956
63110.19188790289,7.19849763266393,PPG_1,PPG_3,107035.0,107035.0,297.8765684741229,21.966140404053068,0.5062965542722612
63110.20188581626,7.208495546037739,PPG_1,PPG_3,106996.0,106996.0,258.8218012493453,24.19465592622561,0.557684376188032
63110.21188372965,7.218493459418824,PPG_1,PPG_3,107013.0,107013.0,275.76703402455314,26.87031402042033,0.6193829554817164
63110.221881643025,7.228491372799908,PPG_1,PPG_3,106982.0,106982.0,244.71226679977553,29.84778053380675,0.6880410004572838
63110.2318795564,7.238489286173717,PPG_1,PPG_3,107015.0,107015.0,277.6574995749979,32.93350842348362,0.7591954679481167
63110.24187746978,7.248487199554802,PPG_1,PPG_3,106990.0,106990.0,252.60273235022032,35.89173109970294,0.8274097651160155
63110.25187538316,7.258485112935887,PPG_1,PPG_3,107016.0,107016.0,278.5479651254427,38.45888337656683,0.8866062852755612
63110.261873296535,7.268483026309696,PPG_1,PPG_3,107030.0,107030.0,292.4931979006651,40.367044298983785,0.9306069811164419
63110.27187120992,7.27848093969078,PPG_1,PPG_3,107037.0,107037.0,299.43843067587295,41.374313237861514,0.953833813659154
63110.2818691233,7.288478853071865,PPG_1,PPG_3,107059.0,107059.0,321.38366345109534,41.29710379488931,0.9520534243972459
63110.29186703667,7.298476766445674,PPG_1,PPG_3,107040.0,107040.0,302.32889622631774,40.0373212240248,0.9230038253434929
63110.30186495005,7.308474679826759,PPG_1,PPG_3,107045.0,107045.0,307.27412900154013,37.59773755627212,0.8667489373609845
63110.31186286343,7.318472593207844,PPG_1,PPG_3,107014.0,107014.0,276.2193617767625,34.081692161386535,0.7856716853506404
63110.32186077681,7.328470506581652,PPG_1,PPG_3,107020.0,107020.0,282.1645945519849,29.677342790575278,0.6841108396350849
63110.33185869019,7.338468419962737,PPG_1,PPG_3,106984.0,106984.0,246.10982732719276,24.630313074373767,0.5677302886901558
63110.34185660357,7.348466333343822,PPG_1,PPG_3,106974.0,106974.0,236.05506010241515,19.210799858024995,0.4427605600699149
63110.35185451694,7.358464246717631,PPG_1,PPG_3,107006.0,107006.0,268.00029287763755,13.682082987069652,0.31527268073470693
63110.36185243032,7.368462160098716,PPG_1,PPG_3,106971.0,106971.0,232.94552565285994,8.276124257184954,0.19061550795248702
63110.371850343705,7.3784600734798,PPG_1,PPG_3,107012.0,107012.0,273.89075842808234,3.1781805199122846,0.0730609195724183
63110.38184825708,7.388457986853609,PPG_1,PPG_3,106949.0,106949.0,210.83599120330473,-1.4812092063150384,-0.034380956916788254
63110.39184617046,7.398455900234694,PPG_1,PPG_3,106974.0,106974.0,235.78122397851257,-5.628896417657235,-0.13002337432790226
63110.40184408384,7.408453813615779,PPG_1,PPG_3,106965.0,106965.0,226.72645675373496,-9.246325908408302,-0.21343846415521053
63110.41184199722,7.418451726996864,PPG_1,PPG_3,106983.0,106983.0,244.67168952895736,-12.359875769850861,-0.28523448451664973
63110.42183991059,7.428449640370673,PPG_1,PPG_3,106989.0,106989.0,250.61692230417975,-15.024930174438655,-0.3466885510359113
63110.43183782398,7.438447553751757,PPG_1,PPG_3,106974.0,106974.0,235.56215507940215,-17.30768657530104,-0.3993271251169402
63110.44183573736,7.448445467132842,PPG_1,PPG_3,106973.0,106973.0,234.50738785462454,-19.269888955403598,-0.4445739746309661
63110.45183365073,7.458443380506651,PPG_1,PPG_3,106944.0,106944.0,205.45262062983238,-20.959520349895605,-0.48353555077417604
63110.46183156411,7.468441293887736,PPG_1,PPG_3,107002.0,107002.0,263.3978534050548,-22.4070954260001,-0.5169154978647159
63110.471829477494,7.478439207268821,PPG_1,PPG_3,106960.0,106960.0,221.34308618027717,-23.626063752089195,-0.5450239524116085
63110.48182739087,7.488437120642629,PPG_1,PPG_3,106936.0,106936.0,197.28831895549956,-24.617419045333786,-0.5678838287542448
63110.49182530425,7.498435034023714,PPG_1,PPG_3,106961.0,106961.0,222.23355173072196,-25.378585316721683,-0.585435726604272
63110.50182321763,7.508432947404799,PPG_1,PPG_3,106931.0,106931.0,192.17878450594435,-25.913470173664315,-0.5977697523270161
63110.51182113101,7.518430860778608,PPG_1,PPG_3,106944.0,106944.0,205.1240172811522,-26.23874919123322,-0.6052704316184362
63110.521819044385,7.528428774159693,PPG_1,PPG_3,106977.0,106977.0,238.06925005637459,-26.383120472568088,-0.6085995202521807
63110.531816957766,7.5384266875407775,PPG_1,PPG_3,106974.0,106974.0,235.01448283159698,-26.379643353881,-0.6085193406195534
63110.54181487114,7.548424600914586,PPG_1,PPG_3,106985.0,106985.0,245.95971560681937,-26.255258520459595,-0.6056511238154583
63110.55181278452,7.558422514295671,PPG_1,PPG_3,106931.0,106931.0,191.90494838204177,-26.023672994572117,-0.60031094303405
63110.5618106979,7.568420427676756,PPG_1,PPG_3,106968.0,106968.0,228.85018115726416,-25.684983780454264,-0.5925010351170016
63110.57180861128,7.578418341050565,PPG_1,PPG_3,106983.0,106983.0,243.795413932472,-25.230416707234486,-0.5820190745585135
63110.58180652466,7.58841625443165,PPG_1,PPG_3,106943.0,106943.0,203.7406467076944,-24.649315675863253,-0.5686193400634788
63110.59180443804,7.598414167812734,PPG_1,PPG_3,106938.0,106938.0,198.6858794829168,-23.937562213282327,-0.5522068628699679
63110.60180235141,7.608412081186543,PPG_1,PPG_3,106959.0,106959.0,219.63111225813918,-23.106130396994153,-0.5330346966070781
63110.61180026479,7.618409994567628,PPG_1,PPG_3,106962.0,106962.0,222.57634503336158,-22.18602814912855,-0.5118178596646441
63110.621798178174,7.628407907948713,PPG_1,PPG_3,106960.0,106960.0,220.52157780858397,-21.226928466178904,-0.48970177242337576
63110.63179609155,7.638405821322522,PPG_1,PPG_3,106971.0,106971.0,231.4668105837918,-20.290455831010714,-0.46810744717582214
63110.64179400493,7.6484037347036065,PPG_1,PPG_3,106957.0,106957.0,217.4120433590142,-19.440697960018408,-0.44851269644978425
63110.65179191831,7.658401648084691,PPG_1,PPG_3,106965.0,106965.0,225.3572761342366,-18.733715496992986,-0.43221023476798015
63110.66178983168,7.6683995614585,PPG_1,PPG_3,106987.0,106987.0,247.302508909459,-18.20684503775924,-0.4200610147771814
63110.671787745065,7.678397474839585,PPG_1,PPG_3,106982.0,106982.0,242.2477416846814,-17.86893854011725,-0.4122691556888137
63110.681785658446,7.68839538822067,PPG_1,PPG_3,106960.0,106960.0,220.19297445990378,-17.694122676453357,-0.40823803883966836
63110.69178357182,7.6983933015944785,PPG_1,PPG_3,106983.0,106983.0,243.13820723511162,-17.621666934475407,-0.40656726619819794
63110.7017814852,7.708391214975563,PPG_1,PPG_3,106971.0,106971.0,231.08344001033402,-17.562303767613532,-0.4051983980809679
63110.71177939858,7.718389128356648,PPG_1,PPG_3,106970.0,106970.0,230.0286727855564,-17.40972906173318,-0.4016801449045274
63110.721777311956,7.728387041730457,PPG_1,PPG_3,106971.0,106971.0,230.9739055607788,-17.056118671010232,-0.39352616634559767
63110.73177522534,7.738384955111542,PPG_1,PPG_3,106935.0,106935.0,194.9191383360012,-16.41016713390046,-0.3786310299981267
63110.74177313872,7.748382868492627,PPG_1,PPG_3,106952.0,106952.0,211.86437111120904,-15.41437357137929,-0.35566881064332395
63110.75177105209,7.758380781866435,PPG_1,PPG_3,106968.0,106968.0,227.80960388643143,-14.056580541897477,-0.32435916720432967
63110.76176896547,7.76837869524752,PPG_1,PPG_3,106979.0,106979.0,238.75483666165383,-12.37179870079164,-0.28550941796261536
63110.771766878854,7.778376608628605,PPG_1,PPG_3,106965.0,106965.0,224.70006943687622,-10.434500956428325,-0.24083684983613737
63110.78176479223,7.788374522002414,PPG_1,PPG_3,106982.0,106982.0,241.6453022120986,-8.344896507916836,-0.19265220844318548
63110.79176270561,7.798372435383499,PPG_1,PPG_3,107003.0,107003.0,262.590534987321,-6.212685560674159,-0.14348509457137087
63110.80176061899,7.808370348764584,PPG_1,PPG_3,106978.0,106978.0,237.53576776252885,-4.141083081683154,-0.09571556449115054
63110.81175853236,7.818368262138392,PPG_1,PPG_3,106982.0,106982.0,241.48100053775124,-2.2140203070963747,-0.0512790067486959
63110.821756445745,7.828366175519477,PPG_1,PPG_3,106999.0,106999.0,258.42623331297364,-0.48829173047494695,-0.011485057867458317
63110.831754359126,7.838364088900562,PPG_1,PPG_3,106990.0,106990.0,249.37146608819603,1.0095856480697578,0.023054820905868603
63110.8417522725,7.848362002274371,PPG_1,PPG_3,106990.0,106990.0,249.31669886341842,2.2822680745772943,0.05240188052380775
63110.85175018588,7.858359915655456,PPG_1,PPG_3,106967.0,106967.0,226.26193163864082,3.3562874480706824,0.07716792579028214
63110.86174809926,7.86835782903654,PPG_1,PPG_3,106997.0,106997.0,256.20716441384866,4.2739321194319535,0.0983280929440194
63110.871746012635,7.878355742410349,PPG_1,PPG_3,106995.0,106995.0,254.15239718907105,5.085047854319466,0.11703178628731033
63110.88174392602,7.888353655791434,PPG_1,PPG_3,106978.0,106978.0,237.09762996429345,5.840389526608545,0.1344493734456494
63110.8917418394,7.898351569172519,PPG_1,PPG_3,106998.0,106998.0,257.04286273951584,6.586229453585688,0.15164785780164278
63110.90173975277,7.908349482546328,PPG_1,PPG_3,107002.0,107002.0,260.98809551473823,7.359738641874699,0.16948437364482505
63110.91173766615,7.918347395927412,PPG_1,PPG_3,106972.0,106972.0,230.93332828996063,8.185084206120186,0.18851619570414418
63110.92173557953,7.928345309308497,PPG_1,PPG_3,106998.0,106998.0,256.87856106516847,9.070246870504066,0.20892735322639647
63110.93173349291,7.938343222682306,PPG_1,PPG_3,106988.0,106988.0,246.82379384039086,10.00535160470186,0.23049013574931307
63110.94173140629,7.948341136063391,PPG_1,PPG_3,106984.0,106984.0,242.76902661561326,10.963946055201724,0.2525945727261354
63110.95172931967,7.958339049444476,PPG_1,PPG_3,107022.0,107022.0,280.71425939083565,11.907796077991406,0.2743590147521116
63110.96172723305,7.96833696282556,PPG_1,PPG_3,107001.0,107001.0,259.65949216605804,12.79408185507568,0.2947960703732844
63110.971725146424,7.978334876199369,PPG_1,PPG_3,106978.0,106978.0,236.60472494128044,13.582463983790564,0.31297554456984783
63110.981723059806,7.988332789580454,PPG_1,PPG_3,107017.0,107017.0,275.5499577164883,14.240032158151315,0.3281385514707765
63110.99172097319,7.998330702961539,PPG_1,PPG_3,106984.0,106984.0,242.49519049171067,14.744565318027858,0.339772690839508
63111.00171888656,8.008328616335348,PPG_1,PPG_3,107011.0,107011.0,269.44042326693307,15.087477630386568,0.34767998009322415
63111.01171679994,8.018326529716433,PPG_1,PPG_3,107008.0,107008.0,266.38565604215546,15.276535034290882,0.35203949570217163
63111.02171471332,8.028324443097517,PPG_1,PPG_3,106971.0,106971.0,229.33088881737785,15.33747474939869,0.35344471778673886
63111.0317126267,8.038322356471326,PPG_1,PPG_3,107017.0,107017.0,275.27612159260025,15.314295837783444,0.35291023024539814
63111.04171054008,8.048320269852411,PPG_1,PPG_3,107001.0,107001.0,259.2213543678081,15.269163526270434,0.3518695145027424
63111.05170845346,8.058318183233496,PPG_1,PPG_3,107013.0,107013.0,271.1665871430305,15.282316617047933,0.35217281447072163
63111.06170636683,8.068316096607305,PPG_1,PPG_3,107030.0,107030.0,288.1118199182529,15.450037307712627,0.35604032218952136
63111.07170428021,8.07831400998839,PPG_1,PPG_3,106984.0,106984.0,242.05705269347527,15.877514542223626,0.3658976122920745
63111.081702193595,8.088311923369474,PPG_1,PPG_3,107009.0,107009.0,267.00228546869766,16.664892228111295,0.38405392482401596
63111.09170010697,8.098309836743283,PPG_1,PPG_3,106970.0,106970.0,227.94751824392006,17.888188604187924,0.41226218081262583
63111.10169802035,8.108307750124368,PPG_1,PPG_3,106996.0,106996.0,253.8927510191279,19.579978951193834,0.45127354070928294
63111.11169593373,8.118305663505453,PPG_1,PPG_3,106991.0,106991.0,248.8379837943503,21.715521296290092,0.5005174740054754
63111.121693847104,8.128303576879262,PPG_1,PPG_3,107011.0,107011.0,268.7832165695727,24.20807412246723,0.5579937892803057
63111.131691760485,8.138301490260346,PPG_1,PPG_3,107009.0,107009.0,266.7284493447951,26.913871118694747,0.6203873480412582
63111.14168967387,8.148299403641431,PPG_1,PPG_3,107035.0,107035.0,292.6736821200175,29.644338447937624,0.6833497853525203
63111.15168758724,8.15829731701524,PPG_1,PPG_3,107013.0,107013.0,270.61891489523987,32.18169850236249,0.7418593202046092
63111.16168550062,8.168295230396325,PPG_1,PPG_3,106980.0,106980.0,237.5641476704477,34.2945974838596,0.7905811152771143
63111.171683414,8.17829314377741,PPG_1,PPG_3,107022.0,107022.0,279.5093804456701,35.7534387307192,0.824220851438305
63111.181681327376,8.188291057151218,PPG_1,PPG_3,107043.0,107043.0,300.4546132208925,36.34821280262986,0.8379358755354521
63111.19167924076,8.198288970532303,PPG_1,PPG_3,107015.0,107015.0,272.3998459961149,35.90994962093235,0.8278298699414883
63111.20167715414,8.208286883913388,PPG_1,PPG_3,107039.0,107039.0,296.3450787713373,34.33204377039534,0.7914445973057382
63111.21167506751,8.218284797287197,PPG_1,PPG_3,107029.0,107029.0,286.2903115465597,31.586108981386282,0.728125492490909
63111.22167298089,8.228282710668282,PPG_1,PPG_3,107010.0,107010.0,267.2355443217675,27.729141577404988,0.6391868460607056
63111.231670894274,8.238280624049366,PPG_1,PPG_3,107008.0,107008.0,265.1807770969899,22.901049375991718,0.5278548226708603
63111.24166880765,8.248278537423175,PPG_1,PPG_3,107005.0,107005.0,262.1260098722123,17.313547991933,0.3990114185207223
63111.25166672103,8.25827645080426,PPG_1,PPG_3,107006.0,107006.0,263.0712426474347,11.23272200548303,0.25879233555564124
63111.26166463441,8.268274364185345,PPG_1,PPG_3,106968.0,106968.0,225.0164754226571,4.957156319896377,0.11408270770559088
63111.271662547784,8.278272277559154,PPG_1,PPG_3,107013.0,107013.0,269.9617081978795,-1.2071085797397467,-0.02806041122378781
63111.281660461165,8.288270190940239,PPG_1,PPG_3,106934.0,106934.0,190.90694097308733,-6.973204840497259,-0.16102207330282703
63111.29165837455,8.298268104321323,PPG_1,PPG_3,106963.0,106963.0,219.85217374830972,-12.099241478587453,-0.27922446196516665
63111.30165628792,8.308266017695132,PPG_1,PPG_3,106962.0,106962.0,218.79740652353212,-16.409654244659233,-0.378619203174069
63111.3116542013,8.318263931076217,PPG_1,PPG_3,106936.0,106936.0,192.7426392987545,-19.80806844183411,-0.45698397192838264
63111.32165211468,8.328261844457302,PPG_1,PPG_3,106964.0,106964.0,220.6878720739769,-22.2795148581319,-0.5139735899281122
63111.331650028056,8.33825975783111,PPG_1,PPG_3,106973.0,106973.0,229.6331048491993,-23.882366722718363,-0.5509340981028239
63111.34164794144,8.348257671212195,PPG_1,PPG_3,106961.0,106961.0,217.57833762440714,-24.73248733704912,-0.5705372134060398
63111.35164585482,8.35825558459328,PPG_1,PPG_3,106970.0,106970.0,226.52357039962953,-24.984002704053534,-0.5763369607087206
63111.36164376819,8.368253497967089,PPG_1,PPG_3,106945.0,106945.0,201.46880317485193,-24.811029769165614,-0.572348340353228
63111.37164168157,8.378251411348174,PPG_1,PPG_3,106967.0,106967.0,223.41403595007432,-24.392147254919436,-0.5626892377660816
63111.381639594954,8.388249324729259,PPG_1,PPG_3,106952.0,106952.0,208.35926872529672,-23.897077199892053,-0.5512733101808985
63111.39163750833,8.398247238103068,PPG_1,PPG_3,106972.0,106972.0,228.3045015005191,-23.474756347926043,-0.541534922219845
63111.40163542171,8.408245151484152,PPG_1,PPG_3,106953.0,106953.0,209.24973427572695,-23.243029117005957,-0.5361914738314096
63111.41163333509,8.418243064865237,PPG_1,PPG_3,106984.0,106984.0,240.19496705094934,-23.281100169149866,-0.5370693624654588
63111.421631248464,8.428240978239046,PPG_1,PPG_3,106924.0,106924.0,180.14019982617174,-23.62593096372752,-0.545020890416027
63111.431629161845,8.43823889162013,PPG_1,PPG_3,106967.0,106967.0,223.08543260139413,-24.272647252418274,-0.5599336613357782
63111.441627075226,8.448236805001216,PPG_1,PPG_3,106978.0,106978.0,234.03066537661653,-25.177383211377816,-0.5807961636954128
63111.4516249886,8.458234718375024,PPG_1,PPG_3,106955.0,106955.0,210.97589815183892,-26.26145901633,-0.6057941023921869
63111.46162290198,8.46823263175611,PPG_1,PPG_3,106938.0,106938.0,193.92113092704676,-27.418212161362803,-0.6324679236090585
63111.47162081536,8.478230545137194,PPG_1,PPG_3,106967.0,106967.0,222.86636370226915,-28.52365580687878,-0.6579585879676876
63111.481618728736,8.488228458511003,PPG_1,PPG_3,106941.0,106941.0,196.81159647749155,-29.44935813507495,-0.6793045583749228
63111.49161664212,8.498226371892088,PPG_1,PPG_3,106955.0,106955.0,210.75682925271394,-30.07520351229053,-0.693736062428262
63111.5016145555,8.508224285273172,PPG_1,PPG_3,106942.0,106942.0,197.70206202793634,-30.30102490852888,-0.6989433268961147
63111.51161246887,8.518222198646981,PPG_1,PPG_3,106952.0,106952.0,207.64729480315873,-30.05650144669173,-0.6933048074484847
63111.52161038225,8.528220112028066,PPG_1,PPG_3,106932.0,106932.0,187.59252757836657,-29.308309392452657,-0.6760520848807056
63111.531608295634,8.53821802540915,PPG_1,PPG_3,106964.0,106964.0,219.53776035358896,-28.06338134315641,-0.6473450194559083
63111.54160620901,8.54821593878296,PPG_1,PPG_3,106941.0,106941.0,196.48299312881136,-26.367467344972532,-0.6082385713939376
63111.55160412239,8.558213852164045,PPG_1,PPG_3,106949.0,106949.0,204.42822590403375,-24.29903109606131,-0.560542052098639
63111.56160203577,8.56821176554513,PPG_1,PPG_3,106981.0,106981.0,236.37345867925615,-21.959207623312516,-0.5065875560515408
63111.57159994915,8.578209678926214,PPG_1,PPG_3,106965.0,106965.0,220.31869145447854,-19.459212394723814,-0.4489396248081674
63111.581597862525,8.588207592300023,PPG_1,PPG_3,106968.0,106968.0,223.26392422968638,-16.907921128517422,-0.39010884712739846
63111.591595775906,8.598205505681108,PPG_1,PPG_3,106977.0,106977.0,232.20915700490877,-14.402734496479523,-0.3323412061879131
63111.60159368929,8.608203419062193,PPG_1,PPG_3,106949.0,106949.0,204.15438978013117,-12.025030750204017,-0.2775132207122047
63111.61159160266,8.618201332436001,PPG_1,PPG_3,106960.0,106960.0,215.09962255535356,-9.839080623927893,-0.2271069234761305
63111.62158951604,8.628199245817086,PPG_1,PPG_3,107010.0,107010.0,265.04485533057596,-7.891963194876443,-0.18220792111439488
63111.63158742942,8.638197159198171,PPG_1,PPG_3,106949.0,106949.0,203.99008810579835,-6.213074532520877,-0.1434940639573996
63111.6415853428,8.64819507257198,PPG_1,PPG_3,106984.0,106984.0,238.9353208810062,-4.814410303065562,-0.1112419626693011
63111.65158325618,8.658192985953065,PPG_1,PPG_3,106971.0,106971.0,225.88055365622859,-3.692998600414843,-0.08538308742400014
63111.66158116956,8.66819089933415,PPG_1,PPG_3,106972.0,106972.0,226.82578643145098,-2.834630333091675,-0.06558978770475477
63111.67157908293,8.678188812707958,PPG_1,PPG_3,106980.0,106980.0,234.77101920667337,-2.217279148767845,-0.05135415308436152
63111.681576996314,8.688186726089043,PPG_1,PPG_3,106985.0,106985.0,239.71625198189577,-1.8136225178929568,-0.042046147438389275
63111.691574909695,8.698184639470128,PPG_1,PPG_3,106968.0,106968.0,222.66148475711816,-1.5930197027492548,-0.036959219361859336
63111.70157282307,8.708182552843937,PPG_1,PPG_3,106958.0,106958.0,212.606717532326,-1.5233647377991606,-0.03535303044426311
63111.71157073645,8.718180466225022,PPG_1,PPG_3,106996.0,106996.0,250.5519503075484,-1.5720338822442852,-0.03647530278325082
63111.72156864983,8.728178379606106,PPG_1,PPG_3,106977.0,106977.0,231.4971830827708,-1.7045247917391941,-0.03953043935054988
63111.731566563205,8.738176292979915,PPG_1,PPG_3,106987.0,106987.0,241.44241585799318,-1.8813099337118382,-0.04360696621458001
63111.741564476586,8.748174206361,PPG_1,PPG_3,106976.0,106976.0,230.38764863321558,-2.0554882545608493,-0.04762338182592435
63111.75156238997,8.758172119742085,PPG_1,PPG_3,106968.0,106968.0,222.33288140843797,-2.173089872053261,-0.05033518298529664
63111.76156030334,8.768170033115894,PPG_1,PPG_3,106987.0,106987.0,241.2781141836458,-2.175686684282506,-0.05039506344071974
63111.77155821672,8.778167946496978,PPG_1,PPG_3,106974.0,106974.0,228.2233469588682,-2.0039678393002287,-0.046435361415881025
63111.7815561301,8.788165859878063,PPG_1,PPG_3,106983.0,106983.0,237.1685797340906,-1.6016624629448744,-0.03715851464043125
63111.79155404348,8.798163773251872,PPG_1,PPG_3,106972.0,106972.0,226.113812509313,-0.9201092120057481,-0.021442430665736454
63111.80155195686,8.808161686632957,PPG_1,PPG_3,106991.0,106991.0,245.0590452845354,0.07634249722802536,0.0015349650366059055
63111.81154987024,8.818159600014042,PPG_1,PPG_3,106952.0,106952.0,206.00427805975778,1.4045307520539132,0.03216194556715782
63111.82154778361,8.82815751338785,PPG_1,PPG_3,106975.0,106975.0,228.94951083496562,3.057480645472329,0.07027767503529717
63111.831545696994,8.838155426768935,PPG_1,PPG_3,106976.0,106976.0,229.89474361018802,5.002537135210988,0.11512915375121065
63111.841543610375,8.84815334015002,PPG_1,PPG_3,106987.0,106987.0,240.8399763854104,7.184973147458555,0.1654544182710688
63111.85154152375,8.858151253523829,PPG_1,PPG_3,107006.0,107006.0,259.7852091606328,9.537059421592279,0.2196916849102888
63111.86153943713,8.868149166904914,PPG_1,PPG_3,106999.0,106999.0,252.7304419358552,11.989576520732511,0.27624480768734583
63111.87153735051,8.878147080285999,PPG_1,PPG_3,106982.0,106982.0,235.6756747110776,14.481594687967956,0.333708794145882
63111.881535263885,8.888144993659807,PPG_1,PPG_3,107024.0,107024.0,277.62090748628543,16.965792013392527,0.39099243811983153
63111.891533177266,8.898142907040892,PPG_1,PPG_3,106982.0,106982.0,235.56614026150783,19.408897532173214,0.4473285372277015
63111.90153109065,8.908140820421977,PPG_1,PPG_3,107002.0,107002.0,255.51137303673022,21.78787960855962,0.502185999994205
63111.91152900402,8.918138733795786,PPG_1,PPG_3,106983.0,106983.0,236.4566058119526,24.083106720068223,0.5551121388920256
63111.9215269174,8.92813664717687,PPG_1,PPG_3,106989.0,106989.0,242.401838587175,26.27118291879374,0.6055674616930207
63111.93152483078,8.938134560557955,PPG_1,PPG_3,106999.0,106999.0,252.3470713623974,28.321030265892897,0.6528353354768008
63111.94152274416,8.948132473931764,PPG_1,PPG_3,107039.0,107039.0,292.29230413760524,30.19544542652848,0.6960578804905594
63111.95152065754,8.958130387312849,PPG_1,PPG_3,106987.0,106987.0,240.23753691282764,31.857071104380864,0.7343736667503328
63111.96151857092,8.968128300693934,PPG_1,PPG_3,107005.0,107005.0,258.18276968805003,33.27531165433091,0.7670771826511367
63111.97151648429,8.978126214067743,PPG_1,PPG_3,107037.0,107037.0,290.1280024632724,34.43202722525853,0.7937501374385816
63111.981514397674,8.988124127448827,PPG_1,PPG_3,107011.0,107011.0,264.0732352384948,35.32599476398423,0.8143643284646019
63111.991512311055,8.998122040829912,PPG_1,PPG_3,107002.0,107002.0,255.0184680137172,35.97536860288416,0.8293383804100056
63112.00151022443,9.00811995420372,PPG_1,PPG_3,107045.0,107045.0,297.96370078892505,36.41657443338383,0.8395122411798035
63112.01150813781,9.018117867584806,PPG_1,PPG_3,106978.0,106978.0,230.90893356414745,36.69949431209868,0.846036151917323
63112.02150605119,9.02811578096589,PPG_1,PPG_3,107008.0,107008.0,260.85416633936984,36.880193258661016,0.8502029280487543
63112.031503964565,9.0381136943397,PPG_1,PPG_3,107041.0,107041.0,293.79939911459223,37.01332386829137,0.8532728155999764
63112.041501877946,9.048111607720784,PPG_1,PPG_3,107008.0,107008.0,260.7446318898146,37.146017089803436,0.8563326173238811
63112.05149979133,9.05810952110187,PPG_1,PPG_3,107029.0,107029.0,281.689864665037,37.312253174983184,0.8601658912033754
63112.0614977047,9.068107434475678,PPG_1,PPG_3,107012.0,107012.0,264.63509744024486,37.524974661472044,0.8650710820160877
63112.07149561808,9.078105347856765,PPG_1,PPG_3,106973.0,106973.0,225.58033021546726,37.76536573294086,0.8706143117795214
63112.08149353146,9.088103261237848,PPG_1,PPG_3,106980.0,106980.0,232.52556299068965,37.97267120482371,0.8753946135388269
63112.09149144484,9.098101174611656,PPG_1,PPG_3,107034.0,107034.0,286.47079576591204,38.040856614199946,0.8769669156562759
63112.10148935822,9.10809908799274,PPG_1,PPG_3,107016.0,107016.0,268.41602854113444,37.82683251362436,0.8720316875833123
63112.1114872716,9.118097001373826,PPG_1,PPG_3,107023.0,107023.0,275.36126131635683,37.16838165917207,0.856848326771046
63112.12148518497,9.128094914747637,PPG_1,PPG_3,106989.0,106989.0,241.30649409156467,35.90525822591876,0.8277216900481484
63112.131483098354,9.13809282812872,PPG_1,PPG_3,107018.0,107018.0,270.25172686678707,33.89901141740712,0.7814592105234949
63112.141481011735,9.148090741509805,PPG_1,PPG_3,107022.0,107022.0,274.19695964200946,31.051195052261466,0.7157907963864216
63112.15147892512,9.15808865489089,PPG_1,PPG_3,107017.0,107017.0,269.14219241723185,27.31974971961408,0.6297465905755582
63112.16147683849,9.168086568264698,PPG_1,PPG_3,106993.0,106993.0,245.08742519245425,22.73074369862793,0.5239277071840974
63112.17147475187,9.178084481645785,PPG_1,PPG_3,107022.0,107022.0,274.03265796767664,17.38220782917051,0.40059466057294163
63112.18147266525,9.188082395026868,PPG_1,PPG_3,106997.0,106997.0,248.97789074288448,11.438724668907833,0.26354259557264487
63112.191470578626,9.198080308400677,PPG_1,PPG_3,106962.0,106962.0,213.92312351810688,5.116633213234015,0.11776011991698332
63112.20146849201,9.20807822178176,PPG_1,PPG_3,106965.0,106965.0,216.86835629332927,-1.3390654114245937,-0.03110323237523288
63112.21146640539,9.218076135162846,PPG_1,PPG_3,106944.0,106944.0,195.81358906855166,-7.681946178367116,-0.17736509326047822
63112.22146431876,9.228074048536657,PPG_1,PPG_3,106948.0,106948.0,199.75882184377406,-13.689208459105934,-0.3158878548084827
63112.23146223214,9.23807196191774,PPG_1,PPG_3,106955.0,106955.0,206.70405461899645,-19.179496384470426,-0.4424895927671619
63112.24146014552,9.248069875298825,PPG_1,PPG_3,106971.0,106971.0,222.6492873942043,-24.02193653705695,-0.5541524686695483
63112.2514580589,9.258067788672632,PPG_1,PPG_3,106910.0,106910.0,161.5945201694267,-28.138296635437957,-0.64907250740034
63112.26145597228,9.268065702053718,PPG_1,PPG_3,106951.0,106951.0,202.53975294464908,-31.501120185230217,-0.7266165837110211
63112.27145388566,9.278063615434805,PPG_1,PPG_3,106936.0,106936.0,187.48498571987147,-34.12848229528893,-0.7872014954500778
63112.281451799034,9.288061528808612,PPG_1,PPG_3,106930.0,106930.0,181.43021849509387,-36.074463915980324,-0.8320743069609279
63112.291449712415,9.298059442189697,PPG_1,PPG_3,106969.0,106969.0,220.37545127031626,-37.4159266289629,-0.8630073860961327
63112.30144762579,9.308057355570782,PPG_1,PPG_3,106944.0,106944.0,195.3206840455241,-38.238444703302115,-0.8819740084535307
63112.31144553917,9.31805526894459,PPG_1,PPG_3,106939.0,106939.0,190.2659168207465,-38.625468071560604,-0.8908984640956078
63112.32144345255,9.328053182325675,PPG_1,PPG_3,106931.0,106931.0,182.2111495959689,-38.65392670555718,-0.8915546978984383
63112.33144136593,9.33805109570676,PPG_1,PPG_3,106914.0,106914.0,165.15638237119128,-38.39606475057278,-0.8856086032494441
63112.341439279306,9.348049009080569,PPG_1,PPG_3,106932.0,106932.0,183.10161514641368,-37.923839395367565,-0.8747194565435059
63112.35143719269,9.358046922461654,PPG_1,PPG_3,106928.0,106928.0,179.04684792163607,-37.31150301954137,-0.8605994594780024
63112.36143510607,9.368044835842738,PPG_1,PPG_3,106939.0,106939.0,189.9920806968439,-36.63392893045669,-0.8449751318580272
63112.37143301944,9.378042749216547,PPG_1,PPG_3,106941.0,106941.0,191.9373134720663,-35.961017635391414,-0.8294583246148745
63112.38143093282,9.388040662597632,PPG_1,PPG_3,106941.0,106941.0,191.8825462472887,-35.350312862822136,-0.8153759510421265
63112.39142884621,9.398038575978717,PPG_1,PPG_3,106960.0,106960.0,210.8277790225111,-34.840388571371584,-0.8036174964032101
63112.40142675958,9.408036489352526,PPG_1,PPG_3,106923.0,106923.0,173.7730117977335,-34.44733575056882,-0.7945540063094938
63112.41142467296,9.41803440273361,PPG_1,PPG_3,106915.0,106915.0,165.71824457295588,-34.16547217962012,-0.7880544532014524
63112.42142258634,9.428032316114695,PPG_1,PPG_3,106951.0,106951.0,201.66347734816372,-33.97063897770824,-0.7835617522157459
63112.43142049971,9.438030229488504,PPG_1,PPG_3,106926.0,106926.0,176.60871012338612,-33.82256513228077,-0.7801472853549577
63112.441418413095,9.448028142869587,PPG_1,PPG_3,106975.0,106975.0,225.5539428986085,-33.66473661113412,-0.7765078833148018
63112.45141632648,9.458026056250674,PPG_1,PPG_3,106939.0,106939.0,189.4991756738309,-33.42408268172012,-0.7709585922530996
63112.46141423985,9.468023969624484,PPG_1,PPG_3,106954.0,106954.0,204.4444084490533,-33.01457629139048,-0.7615156957373443
63112.47141215323,9.478021883005567,PPG_1,PPG_3,106931.0,106931.0,181.3896412242757,-32.34738613932586,-0.7461308135693132
63112.48141006661,9.488019796386652,PPG_1,PPG_3,106920.0,106920.0,170.33487399948353,-31.346784601884085,-0.7230577260798542
63112.491407979986,9.49801770976046,PPG_1,PPG_3,106898.0,106898.0,148.28010677470593,-29.967425115778635,-0.6912507770482791
63112.50140589337,9.508015623141546,PPG_1,PPG_3,106932.0,106932.0,182.22533954992832,-28.206206149953573,-0.6506384475984648
63112.51140380675,9.51801353652263,PPG_1,PPG_3,106979.0,106979.0,229.17057232515072,-26.10267696925036,-0.6021327127910969
63112.52140172012,9.52801144989644,PPG_1,PPG_3,106972.0,106972.0,222.1158051003731,-23.727749313203773,-0.5473687417810211
63112.5313996335,9.538009363277524,PPG_1,PPG_3,106928.0,106928.0,178.0610378755955,-21.167760883948205,-0.4883374143345015
63112.54139754688,9.548007276658607,PPG_1,PPG_3,106953.0,106953.0,203.00627065080334,-18.511690176481682,-0.42709050483219585
63112.55139546026,9.558005190032418,PPG_1,PPG_3,106956.0,106956.0,205.95150342602574,-15.842976208246117,-0.36555205164245796
63112.56139337364,9.568003103413504,PPG_1,PPG_3,106981.0,106981.0,230.89673620124813,-13.232948051315661,-0.3053668472815142
63112.57139128702,9.578001016794587,PPG_1,PPG_3,106940.0,106940.0,189.84196897647053,-10.734803179611845,-0.24776158381816524
63112.58138920039,9.587998930168396,PPG_1,PPG_3,106986.0,106986.0,235.78720175169292,-8.379867812300905,-0.1934586193225222
63112.591387113775,9.59799684354948,PPG_1,PPG_3,106970.0,106970.0,219.7324345269153,-6.177427972836124,-0.14267208221988667
63112.601385027156,9.607994756930566,PPG_1,PPG_3,106951.0,106951.0,200.67766730212315,-4.118266399792788,-0.09518942968346124
63112.61138294053,9.617992670304377,PPG_1,PPG_3,106975.0,106975.0,224.62290007734555,-2.181542619460415,-0.05053009671784016
63112.62138085391,9.62799058368546,PPG_1,PPG_3,106959.0,106959.0,208.56813285256794,-0.343423048740131,-0.008144499570200553
63112.63137876729,9.637988497066544,PPG_1,PPG_3,106971.0,106971.0,220.51336562779034,1.4149892413546257,0.03240311013628277
63112.641376680665,9.647986410440351,PPG_1,PPG_3,106980.0,106980.0,229.45859840301273,3.1019801378873946,0.07130379846536343
63112.65137459405,9.657984323821438,PPG_1,PPG_3,106967.0,106967.0,216.40383117823512,4.71197839020475,0.10842909674200736
63112.66137250743,9.667982237202525,PPG_1,PPG_3,106936.0,106936.0,185.34906395344296,6.224571492108556,0.14330830856633409
