timestamp,PPG_1,PPG_2,PPG_3,time_from_segment_start_sec
63856.457900024594,155020.0,89520.0,3857.0,0.0
63856.46799389265,155063.0,89533.0,3870.0,0.010093868055264466
63856.47808776071,155096.0,89558.0,3878.0,0.02018773611780489
63856.48818162877,155079.0,89508.0,3880.0,0.030281604173069354
63856.49827549682,155088.0,89565.0,3903.0,0.04037547222833382
63856.50836936488,155088.0,89557.0,3881.0,0.050469340283598285
63856.51846323294,155087.0,89531.0,3916.0,0.06056320834613871
63856.528557100995,155065.0,89524.0,3878.0,0.07065707640140317
63856.53865096905,155050.0,89554.0,3898.0,0.08075094445666764
63856.548744837106,155001.0,89541.0,3867.0,0.0908448125119321
63856.55883870517,154973.0,89517.0,3877.0,0.10093868057447253
63856.568932573224,154962.0,89537.0,3865.0,0.111032548629737
63856.57902644128,154836.0,89468.0,3881.0,0.12112641668500146
63856.589120309334,154776.0,89456.0,3836.0,0.13122028474026592
63856.59921417739,154736.0,89468.0,3838.0,0.1413141527955304
63856.60930804545,154726.0,89466.0,3853.0,0.1514080208580708
63856.61940191351,154699.0,89446.0,3845.0,0.16150188891333528
63856.62949578156,154684.0,89472.0,3836.0,0.17159575696859974
63856.63958964962,154650.0,89436.0,3819.0,0.1816896250238642
63856.64968351768,154652.0,89420.0,3815.0,0.19178349308640463
63856.659777385736,154643.0,89464.0,3811.0,0.2018773611416691
63856.66987125379,154652.0,89435.0,3814.0,0.21197122919693356
63856.679965121846,154658.0,89443.0,3826.0,0.22206509725219803
63856.69005898991,154646.0,89421.0,3801.0,0.23215896531473845
63856.700152857964,154659.0,89466.0,3829.0,0.24225283337000292
63856.71024672602,154631.0,89443.0,3779.0,0.2523467014252674
63856.720340594075,154684.0,89451.0,3806.0,0.26244056948053185
63856.73043446214,154699.0,89455.0,3836.0,0.27253443754307227
63856.74052833019,154662.0,89432.0,3813.0,0.28262830559833674
63856.75062219825,154684.0,89455.0,3818.0,0.2927221736536012
63856.7607160663,154694.0,89460.0,3811.0,0.30281604170886567
63856.77080993436,154654.0,89437.0,3808.0,0.31290990976413013
63856.78090380242,154668.0,89464.0,3794.0,0.32300377782667056
63856.790997670476,154725.0,89477.0,3842.0,0.333097645881935
63856.80109153853,154700.0,89455.0,3809.0,0.3431915139371995
63856.81118540659,154683.0,89431.0,3814.0,0.35328538199246395
63856.82127927465,154719.0,89448.0,3799.0,0.3633792500550044
63856.831373142704,154700.0,89452.0,3818.0,0.37347311811026884
63856.84146701076,154700.0,89467.0,3818.0,0.3835669861655333
63856.851560878815,154687.0,89479.0,3803.0,0.3936608542207978
63856.86165474688,154713.0,89469.0,3825.0,0.4037547222833382
63856.87174861493,154667.0,89450.0,3799.0,0.41384859033860266
63856.88184248299,154705.0,89461.0,3814.0,0.4239424583938671
63856.89193635104,154680.0,89467.0,3828.0,0.4340363264491316
63856.902030219106,154665.0,89440.0,3804.0,0.444130194511672
63856.91212408716,154683.0,89486.0,3815.0,0.4542240625669365
63856.922217955216,154702.0,89453.0,3813.0,0.46431793062220095
63856.93231182327,154686.0,89471.0,3808.0,0.4744117986774654
63856.94240569133,154714.0,89483.0,3794.0,0.4845056667327299
63856.95249955939,154729.0,89486.0,3833.0,0.4945995347952703
63856.962593427445,154722.0,89469.0,3819.0,0.5046934028505348
63856.9726872955,154689.0,89453.0,3797.0,0.5147872709057992
63856.982781163555,154724.0,89489.0,3838.0,0.5248811389610637
63856.99287503162,154735.0,89471.0,3799.0,0.5349750070236041
63857.00296889967,154762.0,89480.0,3817.0,0.5450688750788686
63857.01306276773,154765.0,89480.0,3811.0,0.555162743134133
63857.02315663578,154793.0,89499.0,3841.0,0.5652566111893975
63857.033250503846,154775.0,89479.0,3830.0,0.5753504792519379
63857.0433443719,154785.0,89481.0,3824.0,0.5854443473072024
63857.05343823996,154798.0,89478.0,3835.0,0.5955382153624669
63857.06353210801,154765.0,89468.0,3808.0,0.6056320834177313
63857.073625976074,154827.0,89483.0,3804.0,0.6157259514802718
63857.08371984413,154823.0,89488.0,3852.0,0.6258198195355362
63857.093813712185,154808.0,89496.0,3839.0,0.6359136875908007
63857.10390758024,154823.0,89489.0,3827.0,0.6460075556460652
63857.114001448295,154842.0,89519.0,3848.0,0.6561014237013296
63857.12409531636,154815.0,89485.0,3826.0,0.66619529176387
63857.13418918441,154840.0,89505.0,3838.0,0.6762891598191345
63857.14428305247,154855.0,89510.0,3821.0,0.686383027874399
63857.154376920524,154837.0,89474.0,3824.0,0.6964768959296634
63857.164470788586,154842.0,89498.0,3832.0,0.7065707639922039
63857.17456465664,154859.0,89500.0,3836.0,0.7166646320474683
63857.1846585247,154870.0,89504.0,3833.0,0.7267585001027328
63857.19475239275,154834.0,89475.0,3826.0,0.7368523681579973
63857.204846260815,154887.0,89515.0,3840.0,0.7469462362205377
63857.21494012887,154865.0,89509.0,3839.0,0.7570401042758022
63857.225033996925,154850.0,89482.0,3858.0,0.7671339723310666
63857.23512786498,154898.0,89531.0,3858.0,0.7772278403863311
63857.24522173304,154845.0,89488.0,3851.0,0.7873217084488715
63857.2553156011,154874.0,89506.0,3854.0,0.797415576504136
63857.26540946915,154871.0,89483.0,3848.0,0.8075094445594004
63857.27550333721,154921.0,89514.0,3866.0,0.8176033126146649
63857.285597205264,154890.0,89504.0,3836.0,0.8276971806699294
63857.29569107333,154910.0,89518.0,3856.0,0.8377910487324698
63857.30578494138,154933.0,89532.0,3868.0,0.8478849167877343
63857.31587880944,154907.0,89500.0,3858.0,0.8579787848429987
63857.32597267749,154939.0,89501.0,3876.0,0.8680726528982632
63857.336066545555,154939.0,89517.0,3855.0,0.8781665209608036
63857.34616041361,154928.0,89533.0,3865.0,0.8882603890160681
63857.356254281665,154934.0,89530.0,3859.0,0.8983542570713325
63857.36634814972,154972.0,89542.0,3870.0,0.908448125126597
63857.37644201778,154929.0,89501.0,3882.0,0.9185419931891374
63857.38653588584,154945.0,89494.0,3853.0,0.9286358612444019
63857.396629753894,154990.0,89526.0,3872.0,0.9387297292996664
63857.40672362195,154951.0,89510.0,3855.0,0.9488235973549308
63857.41681749001,154992.0,89538.0,3869.0,0.9589174654174712
63857.42691135807,154969.0,89537.0,3855.0,0.9690113334727357
63857.43700522612,154967.0,89541.0,3860.0,0.9791052015280002
63857.44709909418,155034.0,89548.0,3865.0,0.9891990695832646
63857.45719296223,155014.0,89537.0,3879.0,0.9992929376385291
63857.467286830295,155036.0,89560.0,3892.0,1.0093868057010695
63857.47738069835,154995.0,89506.0,3860.0,1.019480673756334
63857.487474566406,155052.0,89517.0,3894.0,1.0295745418115985
63857.49756843446,155034.0,89530.0,3871.0,1.039668409866863
63857.50766230252,155009.0,89493.0,3877.0,1.0497622779294034
63857.51775617058,154973.0,89530.0,3838.0,1.0598561459846678
63857.527850038634,154934.0,89540.0,3890.0,1.0699500140399323
63857.53794390669,154864.0,89501.0,3849.0,1.0800438820951968
63857.54803777475,154801.0,89470.0,3838.0,1.0901377501577372
63857.55813164281,154763.0,89470.0,3840.0,1.1002316182130016
63857.56822551086,154691.0,89457.0,3802.0,1.110325486268266
63857.57831937892,154681.0,89448.0,3827.0,1.1204193543235306
63857.58841324697,154662.0,89454.0,3799.0,1.130513222378795
63857.598507115035,154626.0,89454.0,3830.0,1.1406070904413355
63857.60860098309,154629.0,89435.0,3816.0,1.1507009584966
63857.618694851146,154642.0,89443.0,3810.0,1.1607948265518644
63857.6287887192,154674.0,89467.0,3819.0,1.1708886946071289
63857.638882587264,154648.0,89433.0,3785.0,1.1809825626696693
63857.64897645532,154690.0,89479.0,3805.0,1.1910764307249337
63857.659070323374,154672.0,89452.0,3798.0,1.2011702987801982
63857.66916419143,154649.0,89427.0,3834.0,1.2112641668354627
63857.67925805949,154673.0,89459.0,3806.0,1.221358034898003
63857.68935192755,154706.0,89472.0,3819.0,1.2314519029532676
63857.6994457956,154664.0,89463.0,3795.0,1.241545771008532
63857.70953966366,154709.0,89456.0,3818.0,1.2516396390637965
63857.71963353172,154739.0,89493.0,3831.0,1.261733507126337
63857.729727399776,154717.0,89445.0,3801.0,1.2718273751816014
63857.73982126783,154734.0,89480.0,3833.0,1.2819212432368658
63857.749915135886,154731.0,89502.0,3818.0,1.2920151112921303
63857.76000900394,154726.0,89470.0,3820.0,1.3021089793473948
63857.770102872004,154748.0,89465.0,3840.0,1.3122028474099352
63857.78019674006,154776.0,89503.0,3852.0,1.3222967154651997
63857.790290608114,154738.0,89486.0,3813.0,1.3323905835204641
63857.80038447617,154717.0,89448.0,3829.0,1.3424844515757286
63857.81047834423,154752.0,89511.0,3823.0,1.352578319638269
63857.82057221229,154705.0,89450.0,3814.0,1.3626721876935335
63857.83066608034,154714.0,89472.0,3811.0,1.372766055748798
63857.8407599484,154708.0,89459.0,3812.0,1.3828599238040624
63857.85085381646,154722.0,89479.0,3834.0,1.3929537918666028
63857.860947684516,154676.0,89461.0,3800.0,1.4030476599218673
63857.87104155257,154710.0,89473.0,3818.0,1.4131415279771318
63857.88113542063,154727.0,89468.0,3816.0,1.4232353960323962
63857.89122928869,154696.0,89456.0,3809.0,1.4333292640949367
63857.901323156744,154720.0,89447.0,3813.0,1.4434231321502011
63857.9114170248,154719.0,89483.0,3800.0,1.4535170002054656
63857.921510892855,154706.0,89470.0,3803.0,1.46361086826073
63857.93160476091,154732.0,89477.0,3807.0,1.4737047363159945
63857.94169862897,154744.0,89480.0,3812.0,1.483798604378535
63857.95179249703,154772.0,89503.0,3827.0,1.4938924724337994
63857.96188636508,154779.0,89486.0,3804.0,1.5039863404890639
63857.97198023314,154818.0,89486.0,3835.0,1.5140802085443283
63857.9820741012,154767.0,89469.0,3829.0,1.5241740766068688
63857.992167969256,154800.0,89491.0,3825.0,1.5342679446621332
63858.00226183731,154805.0,89490.0,3824.0,1.5443618127173977
63858.01235570537,154846.0,89509.0,3852.0,1.5544556807726622
63858.02244957343,154830.0,89499.0,3820.0,1.5645495488352026
63858.032543441484,154835.0,89496.0,3833.0,1.574643416890467
63858.04263730954,154838.0,89472.0,3826.0,1.5847372849457315
63858.052731177595,154804.0,89482.0,3828.0,1.594831153000996
63858.06282504566,154867.0,89525.0,3861.0,1.6049250210635364
63858.07291891371,154856.0,89513.0,3836.0,1.6150188891188009
63858.08301278177,154895.0,89505.0,3864.0,1.6251127571740653
63858.09310664982,154864.0,89488.0,3825.0,1.6352066252293298
63858.10320051788,154903.0,89528.0,3848.0,1.6453004932845943
63858.11329438594,154877.0,89498.0,3832.0,1.6553943613471347
63858.123388254,154853.0,89501.0,3837.0,1.6654882294023992
63858.13348212205,154872.0,89533.0,3848.0,1.6755820974576636
63858.14357599011,154855.0,89497.0,3829.0,1.685675965512928
63858.15366985817,154893.0,89509.0,3851.0,1.6957698335754685
63858.163763726225,154921.0,89533.0,3839.0,1.705863701630733
63858.17385759428,154873.0,89482.0,3875.0,1.7159575696859974
63858.183951462335,154883.0,89487.0,3838.0,1.726051437741262
63858.1940453304,154905.0,89511.0,3859.0,1.7361453058038023
63858.20413919845,154896.0,89535.0,3838.0,1.7462391738590668
63858.21423306651,154892.0,89516.0,3849.0,1.7563330419143313
63858.22432693456,154964.0,89553.0,3879.0,1.7664269099695957
63858.23442080262,154944.0,89527.0,3869.0,1.7765207780248602
63858.24451467068,154944.0,89546.0,3859.0,1.7866146460874006
63858.25460853874,154977.0,89548.0,3875.0,1.796708514142665
63858.26470240679,154975.0,89556.0,3877.0,1.8068023821979295
63858.27479627485,154952.0,89528.0,3853.0,1.816896250253194
63858.28489014291,154972.0,89540.0,3862.0,1.8269901183157344
63858.294984010965,155005.0,89529.0,3851.0,1.837083986370999
63858.30507787902,155002.0,89564.0,3891.0,1.8471778544262634
63858.315171747076,154975.0,89513.0,3887.0,1.8572717224815278
63858.32526561514,154992.0,89560.0,3867.0,1.8673655905440683
63858.33535948319,155017.0,89551.0,3872.0,1.8774594585993327
63858.34545335125,155017.0,89515.0,3862.0,1.8875533266545972
63858.355547219304,155057.0,89569.0,3861.0,1.8976471947098617
63858.36564108737,155036.0,89540.0,3874.0,1.907741062772402
63858.37573495542,155030.0,89547.0,3862.0,1.9178349308276665
63858.38582882348,155050.0,89559.0,3873.0,1.927928798882931
63858.39592269153,155080.0,89584.0,3907.0,1.9380226669381955
63858.40601655959,155056.0,89539.0,3877.0,1.94811653499346
63858.41611042765,155028.0,89534.0,3846.0,1.9582104030560004
63858.426204295705,155009.0,89577.0,3887.0,1.9683042711112648
63858.43629816376,154984.0,89543.0,3907.0,1.9783981391665293
63858.446392031816,154891.0,89503.0,3858.0,1.9884920072217938
63858.45648589988,154865.0,89498.0,3875.0,1.9985858752843342
63858.46657976793,154746.0,89456.0,3847.0,2.0086797433395986
63858.47667363599,154715.0,89459.0,3811.0,2.018773611394863
63858.486767504044,154687.0,89461.0,3838.0,2.0288674794501276
63858.49686137211,154641.0,89475.0,3817.0,2.038961347512668
63858.50695524016,154634.0,89425.0,3807.0,2.0490552155679325
63858.51704910822,154631.0,89452.0,3807.0,2.059149083623197
63858.52714297627,154643.0,89452.0,3801.0,2.0692429516784614
63858.537236844335,154626.0,89442.0,3788.0,2.079336819741002
63858.54733071239,154624.0,89437.0,3779.0,2.0894306877962663
63858.557424580446,154623.0,89443.0,3808.0,2.0995245558515307
63858.5675184485,154668.0,89466.0,3815.0,2.109618423906795
63858.577612316556,154680.0,89486.0,3841.0,2.1197122919620597
63858.58770618462,154705.0,89463.0,3833.0,2.1298061600246
63858.597800052674,154655.0,89442.0,3802.0,2.1399000280798646
63858.60789392073,154693.0,89460.0,3813.0,2.149993896135129
63858.617987788784,154692.0,89465.0,3812.0,2.1600877641903935
63858.62808165685,154705.0,89501.0,3819.0,2.170181632252934
63858.6381755249,154666.0,89471.0,3774.0,2.1802755003081984
63858.64826939296,154691.0,89472.0,3808.0,2.190369368363463
63858.65836326101,154690.0,89467.0,3783.0,2.2004632364187273
63858.668457129075,154655.0,89460.0,3799.0,2.2105571044812677
63858.67855099713,154743.0,89513.0,3819.0,2.220650972536532
63858.688644865186,154747.0,89476.0,3814.0,2.2307448405917967
63858.69873873324,154692.0,89502.0,3832.0,2.240838708647061
63858.7088326013,154737.0,89511.0,3814.0,2.2509325767096016
63858.71892646936,154736.0,89495.0,3836.0,2.261026444764866
63858.729020337414,154714.0,89471.0,3814.0,2.2711203128201305
63858.73911420547,154730.0,89472.0,3814.0,2.281214180875395
63858.749208073525,154697.0,89467.0,3795.0,2.2913080489306594
63858.75930194159,154703.0,89474.0,3802.0,2.3014019169932
63858.76939580964,154716.0,89476.0,3807.0,2.3114957850484643
63858.7794896777,154692.0,89447.0,3817.0,2.321589653103729
63858.78958354575,154690.0,89465.0,3800.0,2.3316835211589932
63858.799677413816,154699.0,89460.0,3791.0,2.3417773892215337
63858.80977128187,154718.0,89482.0,3809.0,2.351871257276798
63858.819865149926,154721.0,89458.0,3815.0,2.3619651253320626
63858.82995901798,154708.0,89454.0,3792.0,2.372058993387327
63858.840052886044,154721.0,89518.0,3824.0,2.3821528614498675
63858.8501467541,154735.0,89498.0,3835.0,2.392246729505132
63858.860240622154,154721.0,89459.0,3816.0,2.4023405975603964
63858.87033449021,154764.0,89448.0,3842.0,2.412434465615661
63858.88042835827,154775.0,89471.0,3803.0,2.4225283336782013
63858.89052222633,154770.0,89475.0,3823.0,2.4326222017334658
63858.90061609438,154793.0,89486.0,3838.0,2.4427160697887302
63858.91070996244,154803.0,89474.0,3817.0,2.4528099378439947
63858.92080383049,154839.0,89520.0,3845.0,2.462903805899259
63858.930897698556,154796.0,89494.0,3809.0,2.4729976739617996
63858.94099156661,154808.0,89505.0,3828.0,2.483091542017064
63858.951085434666,154823.0,89476.0,3841.0,2.4931854100723285
63858.96117930272,154849.0,89525.0,3844.0,2.503279278127593
63858.971273170784,154817.0,89537.0,3849.0,2.5133731461901334
63858.98136703884,154808.0,89497.0,3816.0,2.523467014245398
63858.991460906895,154815.0,89483.0,3827.0,2.5335608823006623
63859.00155477495,154818.0,89495.0,3859.0,2.543654750355927
63859.01164864301,154887.0,89518.0,3848.0,2.5537486184184672
63859.02174251107,154872.0,89514.0,3835.0,2.5638424864737317
63859.03183637912,154831.0,89488.0,3852.0,2.573936354528996
63859.04193024718,154895.0,89537.0,3861.0,2.5840302225842606
63859.05202411524,154901.0,89505.0,3876.0,2.594124090646801
63859.062117983296,154889.0,89528.0,3845.0,2.6042179587020655
63859.07221185135,154920.0,89545.0,3867.0,2.61431182675733
63859.08230571941,154885.0,89513.0,3822.0,2.6244056948125944
63859.09239958746,154878.0,89496.0,3834.0,2.634499562867859
63859.102493455524,154905.0,89517.0,3857.0,2.6445934309303993
63859.11258732358,154850.0,89537.0,3834.0,2.654687298985664
63859.122681191635,154897.0,89512.0,3839.0,2.6647811670409283
63859.13277505969,154926.0,89521.0,3824.0,2.6748750350961927
63859.14286892775,154923.0,89522.0,3848.0,2.684968903158733
63859.15296279581,154932.0,89528.0,3882.0,2.6950627712139976
63859.16305666386,154916.0,89519.0,3838.0,2.705156639269262
63859.17315053192,154969.0,89520.0,3860.0,2.7152505073245266
63859.18324439998,154954.0,89532.0,3857.0,2.725344375387067
63859.193338268036,154941.0,89554.0,3882.0,2.7354382434423314
63859.20343213609,154988.0,89556.0,3837.0,2.745532111497596
63859.21352600415,154963.0,89526.0,3889.0,2.7556259795528604
63859.2236198722,154981.0,89539.0,3877.0,2.765719847608125
63859.233713740265,154978.0,89542.0,3842.0,2.7758137156706653
63859.24380760832,154971.0,89491.0,3865.0,2.7859075837259297
63859.253901476375,154961.0,89523.0,3851.0,2.796001451781194
63859.26399534443,155010.0,89539.0,3867.0,2.8060953198364587
63859.27408921249,154987.0,89536.0,3845.0,2.816189187898999
63859.28418308055,155020.0,89577.0,3877.0,2.8262830559542635
63859.2942769486,155039.0,89573.0,3889.0,2.836376924009528
63859.30437081666,155064.0,89551.0,3877.0,2.8464707920647925
63859.31446468472,155081.0,89544.0,3901.0,2.856564660127333
63859.32455855278,155067.0,89543.0,3866.0,2.8666585281825974
63859.33465242083,155096.0,89586.0,3891.0,2.876752396237862
63859.34474628889,155087.0,89558.0,3860.0,2.8868462642931263
63859.35484015695,155085.0,89559.0,3904.0,2.8969401323556667
63859.364934025005,155096.0,89599.0,3902.0,2.907034000410931
63859.37502789306,155076.0,89540.0,3887.0,2.9171278684661957
63859.385121761115,155069.0,89567.0,3863.0,2.92722173652146
63859.39521562917,155015.0,89535.0,3901.0,2.9373156045767246
63859.40530949723,154986.0,89520.0,3886.0,2.947409472639265
63859.41540336529,154886.0,89506.0,3844.0,2.9575033406945295
63859.425497233344,154847.0,89501.0,3877.0,2.967597208749794
63859.4355911014,154778.0,89512.0,3837.0,2.9776910768050584
63859.44568496946,154753.0,89489.0,3841.0,2.987784944867599
63859.45577883752,154709.0,89461.0,3834.0,2.9978788129228633
63859.46587270557,154663.0,89473.0,3832.0,3.0079726809781278
63859.47596657363,154650.0,89478.0,3811.0,3.018066549033392
63859.48606044169,154664.0,89444.0,3806.0,3.0281604170959326
63859.496154309745,154606.0,89449.0,3790.0,3.038254285151197
63859.5062481778,154625.0,89445.0,3802.0,3.0483481532064616
63859.516342045856,154662.0,89478.0,3816.0,3.058442021261726
63859.52643591392,154663.0,89478.0,3828.0,3.0685358893242665
63859.53652978197,154617.0,89450.0,3815.0,3.078629757379531
63859.54662365003,154629.0,89493.0,3801.0,3.0887236254347954
63859.556717518084,154678.0,89473.0,3800.0,3.09881749349006
63859.56681138614,154652.0,89473.0,3826.0,3.1089113615453243
63859.5769052542,154674.0,89463.0,3794.0,3.1190052296078647
63859.58699912226,154677.0,89484.0,3828.0,3.129099097663129
63859.59709299031,154669.0,89461.0,3805.0,3.1391929657183937
63859.60718685837,154614.0,89473.0,3785.0,3.149286833773658
63859.61728072643,154654.0,89483.0,3813.0,3.1593807018361986
63859.627374594485,154652.0,89469.0,3793.0,3.169474569891463
63859.63746846254,154672.0,89476.0,3798.0,3.1795684379467275
63859.647562330596,154703.0,89503.0,3803.0,3.189662306001992
63859.65765619866,154697.0,89486.0,3832.0,3.1997561740645324
63859.667750066714,154697.0,89491.0,3831.0,3.209850042119797
63859.67784393477,154708.0,89478.0,3807.0,3.2199439101750613
63859.687937802824,154729.0,89504.0,3819.0,3.230037778230326
63859.69803167089,154677.0,89472.0,3798.0,3.240131646292866
63859.70812553894,154718.0,89496.0,3796.0,3.2502255143481307
63859.718219407,154705.0,89480.0,3809.0,3.260319382403395
63859.72831327505,154689.0,89457.0,3816.0,3.2704132504586596
63859.73840714311,154692.0,89487.0,3806.0,3.280507118513924
63859.74850101117,154700.0,89483.0,3829.0,3.2906009865764645
63859.758594879226,154682.0,89466.0,3800.0,3.300694854631729
63859.76868874728,154673.0,89467.0,3789.0,3.3107887226869934
63859.778782615336,154767.0,89479.0,3821.0,3.320882590742258
63859.7888764834,154698.0,89491.0,3822.0,3.3309764588047983
63859.798970351454,154692.0,89481.0,3797.0,3.341070326860063
63859.80906421951,154730.0,89472.0,3836.0,3.3511641949153272
63859.819158087565,154731.0,89448.0,3819.0,3.3612580629705917
63859.82925195563,154715.0,89465.0,3799.0,3.371351931033132
63859.83934582368,154739.0,89496.0,3814.0,3.3814457990883966
63859.84943969174,154781.0,89506.0,3824.0,3.391539667143661
63859.85953355979,154737.0,89473.0,3780.0,3.4016335351989255
63859.86962742785,154776.0,89489.0,3817.0,3.41172740325419
63859.87972129591,154776.0,89487.0,3814.0,3.4218212713167304
63859.889815163966,154786.0,89489.0,3830.0,3.431915139371995
63859.89990903202,154789.0,89486.0,3818.0,3.4420090074272593
63859.91000290008,154814.0,89519.0,3833.0,3.452102875482524
63859.92009676814,154782.0,89477.0,3814.0,3.4621967435450642
63859.930190636194,154807.0,89469.0,3842.0,3.4722906116003287
63859.94028450425,154838.0,89521.0,3836.0,3.482384479655593
63859.950378372305,154824.0,89481.0,3817.0,3.4924783477108576
63859.96047224037,154833.0,89506.0,3821.0,3.502572215773398
63859.97056610842,154824.0,89480.0,3822.0,3.5126660838286625
63859.98065997648,154828.0,89500.0,3848.0,3.522759951883927
63859.99075384453,154861.0,89489.0,3812.0,3.5328538199391915
63860.000847712596,154871.0,89518.0,3860.0,3.542947688001732
63860.01094158065,154871.0,89536.0,3831.0,3.5530415560569963
63860.021035448706,154842.0,89490.0,3830.0,3.563135424112261
63860.03112931676,154860.0,89497.0,3830.0,3.5732292921675253
63860.04122318482,154870.0,89494.0,3851.0,3.5833231602227897
63860.05131705288,154847.0,89519.0,3807.0,3.59341702828533
63860.061410920935,154853.0,89518.0,3828.0,3.6035108963405946
63860.07150478899,154910.0,89539.0,3878.0,3.613604764395859
63860.081598657045,154869.0,89494.0,3848.0,3.6236986324511236
63860.09169252511,154892.0,89515.0,3846.0,3.633792500513664
63860.10178639316,154894.0,89516.0,3864.0,3.6438863685689284
63860.11188026122,154901.0,89510.0,3859.0,3.653980236624193
63860.12197412927,154894.0,89531.0,3841.0,3.6640741046794574
63860.132067997336,154928.0,89527.0,3859.0,3.674167972741998
63860.14216186539,154968.0,89524.0,3861.0,3.6842618407972623
63860.15225573345,154935.0,89524.0,3846.0,3.6943557088525267
63860.1623496015,154939.0,89538.0,3879.0,3.704449576907791
63860.172443469564,154950.0,89536.0,3854.0,3.7145434449703316
63860.18253733762,154895.0,89512.0,3824.0,3.724637313025596
63860.192631205675,154928.0,89543.0,3856.0,3.7347311810808606
63860.20272507373,154960.0,89549.0,3871.0,3.744825049136125
63860.212818941785,154967.0,89537.0,3858.0,3.7549189171913895
63860.22291280985,154991.0,89533.0,3858.0,3.76501278525393
63860.2330066779,155019.0,89566.0,3871.0,3.7751066533091944
63860.24310054596,154973.0,89527.0,3858.0,3.785200521364459
63860.253194414014,155009.0,89548.0,3863.0,3.7952943894197233
63860.263288282076,155019.0,89574.0,3882.0,3.8053882574822637
63860.27338215013,155016.0,89535.0,3868.0,3.815482125537528
63860.28347601819,155047.0,89568.0,3856.0,3.8255759935927927
63860.29356988624,155042.0,89555.0,3877.0,3.835669861648057
63860.303663754305,155017.0,89556.0,3856.0,3.8457637297105975
63860.31375762236,155014.0,89547.0,3838.0,3.855857597765862
63860.323851490415,155070.0,89579.0,3895.0,3.8659514658211265
63860.33394535847,155067.0,89561.0,3877.0,3.876045333876391
63860.34403922653,155067.0,89549.0,3882.0,3.8861392019389314
63860.35413309459,155093.0,89563.0,3875.0,3.896233069994196
63860.36422696264,155100.0,89577.0,3906.0,3.9063269380494603
63860.3743208307,155090.0,89568.0,3886.0,3.9164208061047248
63860.384414698754,155075.0,89557.0,3883.0,3.9265146741599892
63860.39450856682,155075.0,89585.0,3892.0,3.9366085422225296
63860.40460243487,154985.0,89520.0,3861.0,3.946702410277794
63860.41469630293,154907.0,89524.0,3859.0,3.9567962783330586
63860.42479017098,154871.0,89512.0,3839.0,3.966890146388323
63860.434884039045,154790.0,89505.0,3867.0,3.9769840144508635
63860.4449779071,154706.0,89469.0,3834.0,3.987077882506128
63860.455071775155,154704.0,89494.0,3826.0,3.9971717505613924
63860.46516564321,154677.0,89445.0,3820.0,4.007265618616657
63860.47525951127,154627.0,89447.0,3805.0,4.017359486679197
63860.48535337933,154679.0,89465.0,3810.0,4.027453354734462
63860.495447247384,154650.0,89460.0,3803.0,4.037547222789726
63860.50554111544,154645.0,89484.0,3812.0,4.047641090844991
63860.5156349835,154645.0,89474.0,3803.0,4.057734958907531
63860.52572885156,154682.0,89469.0,3816.0,4.067828826962796
63860.53582271961,154645.0,89468.0,3790.0,4.07792269501806
63860.54591658767,154676.0,89462.0,3804.0,4.0880165630733245
63860.55601045572,154707.0,89503.0,3817.0,4.098110431128589
63860.566104323785,154682.0,89450.0,3804.0,4.108204299191129
63860.57619819184,154679.0,89474.0,3813.0,4.118298167246394
63860.586292059896,154653.0,89477.0,3825.0,4.128392035301658
63860.59638592795,154669.0,89429.0,3785.0,4.138485903356923
63860.60647979601,154696.0,89491.0,3816.0,4.148579771419463
63860.61657366407,154694.0,89504.0,3815.0,4.158673639474728
63860.626667532124,154679.0,89478.0,3804.0,4.168767507529992
63860.63676140018,154678.0,89455.0,3818.0,4.178861375585257
63860.64685526824,154709.0,89495.0,3831.0,4.188955243647797
63860.6569491363,154694.0,89449.0,3818.0,4.1990491117030615
63860.66704300435,154708.0,89476.0,3811.0,4.209142979758326
63860.67713687241,154679.0,89475.0,3786.0,4.21923684781359
63860.68723074047,154707.0,89448.0,3822.0,4.229330715876131
63860.697324608525,154684.0,89484.0,3793.0,4.239424583931395
63860.70741847658,154718.0,89489.0,3798.0,4.24951845198666
63860.717512344636,154727.0,89466.0,3849.0,4.259612320041924
63860.72760621269,154694.0,89457.0,3820.0,4.269706188097189
63860.737700080754,154694.0,89471.0,3802.0,4.279800056159729
63860.74779394881,154707.0,89485.0,3807.0,4.289893924214994
63860.757887816864,154725.0,89503.0,3826.0,4.299987792270258
63860.76798168492,154683.0,89464.0,3784.0,4.3100816603255225
63860.77807555298,154731.0,89494.0,3826.0,4.320175528388063
63860.78816942104,154729.0,89486.0,3813.0,4.330269396443327
63860.79826328909,154702.0,89499.0,3803.0,4.340363264498592
63860.80835715715,154747.0,89487.0,3839.0,4.350457132553856
63860.81845102521,154708.0,89466.0,3784.0,4.360551000616397
63860.828544893266,154753.0,89485.0,3807.0,4.370644868671661
63860.83863876132,154739.0,89531.0,3813.0,4.380738736726926
63860.848732629376,154785.0,89512.0,3837.0,4.39083260478219
63860.85882649744,154745.0,89457.0,3808.0,4.400926472844731
63860.868920365494,154773.0,89496.0,3821.0,4.411020340899995
63860.87901423355,154792.0,89518.0,3807.0,4.4211142089552595
63860.889108101605,154772.0,89503.0,3809.0,4.431208077010524
63860.89920196966,154796.0,89529.0,3824.0,4.4413019450657885
63860.90929583772,154813.0,89510.0,3828.0,4.451395813128329
63860.91938970578,154827.0,89501.0,3818.0,4.461489681183593
63860.92948357383,154824.0,89504.0,3814.0,4.471583549238858
63860.93957744189,154870.0,89531.0,3855.0,4.481677417294122
63860.94967130995,154854.0,89520.0,3839.0,4.491771285356663
63860.959765178006,154831.0,89525.0,3837.0,4.501865153411927
63860.96985904606,154832.0,89532.0,3823.0,4.511959021467192
63860.97995291412,154883.0,89529.0,3856.0,4.522052889522456
63860.99004678218,154852.0,89488.0,3807.0,4.5321467575849965
63861.000140650234,154885.0,89518.0,3816.0,4.542240625640261
63861.01023451829,154843.0,89497.0,3853.0,4.5523344936955255
63861.020328386345,154868.0,89495.0,3823.0,4.56242836175079
63861.0304222544,154876.0,89527.0,3845.0,4.572522229806054
63861.04051612246,154906.0,89540.0,3843.0,4.582616097868595
63861.05060999052,154905.0,89518.0,3828.0,4.592709965923859
63861.06070385857,154922.0,89544.0,3840.0,4.602803833979124
63861.07079772663,154902.0,89527.0,3866.0,4.612897702034388
63861.08089159469,154909.0,89529.0,3856.0,4.622991570096929
63861.090985462746,154891.0,89506.0,3834.0,4.633085438152193
63861.1010793308,154936.0,89512.0,3857.0,4.643179306207458
63861.11117319886,154897.0,89534.0,3822.0,4.653273174262722
63861.12126706692,154937.0,89519.0,3829.0,4.6633670423252624
63861.131360934975,154953.0,89541.0,3844.0,4.673460910380527
63861.14145480303,154948.0,89540.0,3873.0,4.683554778435791
63861.151548671085,154945.0,89521.0,3842.0,4.693648646491056
63861.16164253915,154962.0,89541.0,3857.0,4.703742514553596
63861.1717364072,154987.0,89528.0,3844.0,4.713836382608861
63861.18183027526,154947.0,89551.0,3842.0,4.723930250664125
63861.19192414331,154969.0,89532.0,3846.0,4.73402411871939
63861.20201801137,154992.0,89551.0,3861.0,4.744117986774654
63861.21211187943,154974.0,89546.0,3903.0,4.7542118548371946
63861.22220574749,155013.0,89576.0,3873.0,4.764305722892459
63861.23229961554,155036.0,89557.0,3873.0,4.7743995909477235
63861.2423934836,155022.0,89553.0,3871.0,4.784493459002988
63861.25248735166,155038.0,89552.0,3850.0,4.794587327065528
63861.262581219715,155051.0,89567.0,3867.0,4.804681195120793
63861.27267508777,155040.0,89535.0,3852.0,4.814775063176057
63861.282768955825,155043.0,89556.0,3866.0,4.824868931231322
63861.29286282389,155064.0,89562.0,3875.0,4.834962799293862
63861.30295669194,155044.0,89545.0,3866.0,4.845056667349127
63861.31305056,155074.0,89541.0,3906.0,4.855150535404391
63861.32314442805,155080.0,89568.0,3867.0,4.865244403459656
63861.333238296116,155110.0,89596.0,3893.0,4.875338271522196
63861.34333216417,155111.0,89550.0,3869.0,4.8854321395774605
63861.35342603223,155098.0,89598.0,3889.0,4.895526007632725
63861.36351990028,155112.0,89578.0,3886.0,4.905619875687989
63861.37361376834,155124.0,89566.0,3885.0,4.915713743743254
63861.3837076364,155117.0,89565.0,3872.0,4.925807611805794
63861.393801504455,155128.0,89583.0,3901.0,4.935901479861059
63861.40389537251,155111.0,89567.0,3880.0,4.945995347916323
63861.413989240566,155054.0,89565.0,3866.0,4.956089215971588
63861.42408310863,155000.0,89561.0,3867.0,4.966183084034128
63861.43417697668,154917.0,89514.0,3864.0,4.976276952089393
63861.44427084474,154876.0,89516.0,3860.0,4.986370820144657
63861.454364712794,154805.0,89477.0,3839.0,4.9964646881999215
63861.46445858086,154746.0,89471.0,3846.0,5.006558556262462
63861.47455244891,154715.0,89479.0,3812.0,5.016652424317726
63861.48464631697,154707.0,89485.0,3828.0,5.026746292372991
63861.49474018502,154694.0,89481.0,3846.0,5.036840160428255
63861.50483405308,154702.0,89484.0,3799.0,5.04693402848352
63861.51492792114,154698.0,89475.0,3827.0,5.05702789654606
63861.525021789195,154657.0,89488.0,3799.0,5.067121764601325
63861.53511565725,154652.0,89479.0,3792.0,5.077215632656589
63861.545209525306,154665.0,89470.0,3800.0,5.087309500711854
63861.55530339337,154727.0,89470.0,3833.0,5.097403368774394
63861.565397261424,154710.0,89481.0,3811.0,5.1074972368296585
63861.57549112948,154700.0,89451.0,3814.0,5.117591104884923
63861.585584997534,154719.0,89474.0,3820.0,5.127684972940187
63861.5956788656,154694.0,89454.0,3799.0,5.137778841002728
63861.60577273365,154705.0,89485.0,3814.0,5.147872709057992
63861.61586660171,154708.0,89501.0,3803.0,5.157966577113257
63861.62596046976,154682.0,89449.0,3795.0,5.168060445168521
63861.636054337825,154723.0,89490.0,3801.0,5.178154313231062
63861.64614820588,154702.0,89490.0,3801.0,5.188248181286326
63861.656242073936,154746.0,89492.0,3822.0,5.198342049341591
63861.66633594199,154718.0,89500.0,3823.0,5.208435917396855
63861.676429810046,154735.0,89474.0,3790.0,5.2185297854521195
63861.68652367811,154756.0,89487.0,3796.0,5.22862365351466
63861.696617546164,154769.0,89480.0,3821.0,5.238717521569924
63861.70671141422,154784.0,89535.0,3825.0,5.248811389625189
63861.716805282274,154767.0,89481.0,3819.0,5.258905257680453
63861.72689915034,154785.0,89530.0,3774.0,5.268999125742994
63861.73699301839,154751.0,89507.0,3812.0,5.279092993798258
63861.74708688645,154751.0,89470.0,3812.0,5.289186861853523
63861.7571807545,154728.0,89496.0,3801.0,5.299280729908787
63861.767274622565,154754.0,89502.0,3797.0,5.309374597971328
63861.77736849062,154742.0,89500.0,3817.0,5.319468466026592
63861.787462358676,154721.0,89485.0,3821.0,5.3295623340818565
63861.79755622673,154758.0,89522.0,3828.0,5.339656202137121
63861.807650094794,154700.0,89490.0,3803.0,5.349750070199661
63861.81774396285,154761.0,89512.0,3810.0,5.359843938254926
63861.827837830904,154780.0,89490.0,3823.0,5.36993780631019
63861.83793169896,154794.0,89510.0,3822.0,5.380031674365455
63861.848025567015,154776.0,89501.0,3810.0,5.390125542420719
63861.85811943508,154806.0,89510.0,3812.0,5.40021941048326
63861.86821330313,154843.0,89503.0,3840.0,5.410313278538524
63861.87830717119,154828.0,89525.0,3841.0,5.420407146593789
63861.88840103924,154813.0,89507.0,3812.0,5.430501014649053
63861.898494907306,154839.0,89521.0,3831.0,5.4405948827115935
63861.90858877536,154820.0,89513.0,3836.0,5.450688750766858
63861.918682643416,154845.0,89497.0,3825.0,5.4607826188221225
63861.92877651147,154834.0,89502.0,3823.0,5.470876486877387
63861.938870379534,154859.0,89524.0,3838.0,5.480970354939927
63861.94896424759,154853.0,89513.0,3825.0,5.491064222995192
63861.959058115644,154852.0,89508.0,3810.0,5.501158091050456
63861.9691519837,154903.0,89545.0,3853.0,5.511251959105721
63861.97924585176,154904.0,89528.0,3845.0,5.521345827168261
63861.98933971982,154889.0,89548.0,3863.0,5.531439695223526
63861.99943358787,154905.0,89529.0,3848.0,5.54153356327879
63862.00952745593,154894.0,89558.0,3863.0,5.551627431334055
63862.01962132398,154918.0,89527.0,3846.0,5.561721299389319
63862.029715192046,154923.0,89531.0,3827.0,5.5718151674518595
63862.0398090601,154913.0,89548.0,3840.0,5.581909035507124
63862.04990292816,154924.0,89525.0,3848.0,5.592002903562388
63862.05999679621,154935.0,89530.0,3856.0,5.602096771617653
63862.070090664274,154925.0,89523.0,3839.0,5.612190639680193
63862.08018453233,154945.0,89524.0,3855.0,5.622284507735458
63862.090278400385,154912.0,89552.0,3837.0,5.632378375790722
63862.10037226844,154954.0,89539.0,3856.0,5.642472243845987
63862.1104661365,154972.0,89552.0,3837.0,5.652566111908527
63862.12056000456,154967.0,89545.0,3876.0,5.662659979963792
63862.13065387261,154979.0,89546.0,3859.0,5.672753848019056
63862.14074774067,154977.0,89562.0,3861.0,5.6828477160743205
63862.15084160873,154975.0,89544.0,3866.0,5.692941584136861
63862.160935476786,154972.0,89555.0,3838.0,5.703035452192125
63862.17102934484,154974.0,89523.0,3851.0,5.71312932024739
63862.1811232129,155010.0,89554.0,3859.0,5.723223188302654
63862.19121708095,154995.0,89532.0,3893.0,5.733317056357919
63862.201310949014,155029.0,89571.0,3879.0,5.743410924420459
63862.21140481707,155009.0,89575.0,3871.0,5.753504792475724
63862.221498685125,155006.0,89557.0,3847.0,5.763598660530988
63862.23159255318,155052.0,89552.0,3873.0,5.773692528586253
63862.24168642124,155066.0,89592.0,3868.0,5.783786396648793
63862.2517802893,155037.0,89592.0,3881.0,5.7938802647040575
63862.26187415735,155086.0,89572.0,3897.0,5.803974132759322
63862.27196802541,155085.0,89574.0,3880.0,5.814068000814586
63862.28206189347,155066.0,89548.0,3885.0,5.824161868877127
63862.29215576153,155063.0,89562.0,3848.0,5.834255736932391
63862.30224962958,155112.0,89590.0,3872.0,5.844349604987656
63862.31234349764,155103.0,89569.0,3875.0,5.85444347304292
63862.3224373657,155122.0,89585.0,3872.0,5.864537341105461
63862.332531233755,155122.0,89596.0,3913.0,5.874631209160725
63862.34262510181,155108.0,89571.0,3880.0,5.88472507721599
63862.352718969865,155116.0,89574.0,3875.0,5.894818945271254
63862.36281283792,155118.0,89587.0,3903.0,5.9049128133265185
63862.37290670598,155115.0,89559.0,3893.0,5.915006681389059
63862.38300057404,155144.0,89563.0,3866.0,5.925100549444323
63862.39309444209,155166.0,89585.0,3904.0,5.935194417499588
63862.40318831015,155172.0,89591.0,3898.0,5.945288285554852
63862.41328217821,155183.0,89585.0,3917.0,5.955382153617393
63862.42337604627,155196.0,89615.0,3913.0,5.965476021672657
63862.43346991432,155157.0,89580.0,3903.0,5.975569889727922
63862.44356378238,155171.0,89614.0,3885.0,5.985663757783186
63862.45365765044,155100.0,89605.0,3911.0,5.995757625845727
63862.463751518495,155050.0,89576.0,3921.0,6.005851493900991
63862.47384538655,154946.0,89527.0,3867.0,6.0159453619562555
63862.483939254606,154917.0,89539.0,3846.0,6.02603923001152
63862.49403312267,154839.0,89508.0,3846.0,6.03613309807406
63862.50412699072,154762.0,89489.0,3831.0,6.046226966129325
63862.51422085878,154760.0,89493.0,3831.0,6.056320834184589
63862.524314726834,154718.0,89478.0,3833.0,6.066414702239854
63862.53440859489,154732.0,89477.0,3840.0,6.076508570295118
63862.54450246295,154709.0,89501.0,3835.0,6.086602438357659
63862.55459633101,154729.0,89479.0,3827.0,6.096696306412923
63862.56469019906,154727.0,89471.0,3821.0,6.106790174468188
63862.57478406712,154737.0,89491.0,3811.0,6.116884042523452
63862.58487793518,154741.0,89497.0,3812.0,6.1269779105859925
63862.594971803235,154772.0,89505.0,3842.0,6.137071778641257
63862.60506567129,154782.0,89487.0,3841.0,6.147165646696521
63862.615159539346,154742.0,89474.0,3820.0,6.157259514751786
63862.62525340741,154789.0,89516.0,3847.0,6.167353382814326
63862.63534727546,154770.0,89505.0,3822.0,6.177447250869591
63862.64544114352,154744.0,89515.0,3830.0,6.187541118924855
63862.655535011574,154768.0,89483.0,3804.0,6.19763498698012
63862.66562887963,154747.0,89501.0,3805.0,6.207728855035384
63862.67572274769,154770.0,89507.0,3833.0,6.217822723097925
63862.68581661575,154817.0,89526.0,3834.0,6.227916591153189
63862.6959104838,154790.0,89480.0,3839.0,6.2380104592084535
63862.70600435186,154784.0,89488.0,3828.0,6.248104327263718
63862.71609821992,154808.0,89510.0,3816.0,6.258198195326258
63862.726192087976,154779.0,89528.0,3835.0,6.268292063381523
63862.73628595603,154831.0,89539.0,3856.0,6.278385931436787
63862.746379824086,154775.0,89526.0,3853.0,6.288479799492052
63862.75647369215,154811.0,89511.0,3815.0,6.298573667554592
63862.766567560204,154787.0,89508.0,3830.0,6.308667535609857
63862.77666142826,154832.0,89527.0,3840.0,6.318761403665121
63862.786755296314,154787.0,89523.0,3839.0,6.328855271720386
63862.79684916438,154800.0,89515.0,3841.0,6.338949139782926
63862.80694303243,154809.0,89523.0,3829.0,6.3490430078381905
63862.81703690049,154802.0,89525.0,3818.0,6.359136875893455
63862.82713076854,154821.0,89530.0,3850.0,6.3692307439487195
63862.8372246366,154807.0,89517.0,3827.0,6.379324612003984
63862.84731850466,154816.0,89520.0,3835.0,6.389418480066524
63862.857412372716,154783.0,89508.0,3823.0,6.399512348121789
63862.86750624077,154790.0,89506.0,3821.0,6.409606216177053
63862.877600108826,154801.0,89482.0,3825.0,6.419700084232318
63862.88769397689,154832.0,89522.0,3844.0,6.429793952294858
63862.897787844944,154867.0,89545.0,3866.0,6.439887820350123
63862.907881713,154825.0,89524.0,3818.0,6.449981688405387
63862.917975581055,154888.0,89545.0,3867.0,6.460075556460652
63862.92806944912,154877.0,89528.0,3840.0,6.470169424523192
63862.93816331717,154896.0,89518.0,3825.0,6.4802632925784565
63862.94825718523,154881.0,89553.0,3836.0,6.490357160633721
63862.95835105328,154887.0,89551.0,3843.0,6.500451028688985
63862.968444921346,154918.0,89535.0,3846.0,6.510544896751526
63862.9785387894,154913.0,89552.0,3837.0,6.52063876480679
63862.988632657456,154949.0,89568.0,3878.0,6.530732632862055
63862.99872652551,154867.0,89492.0,3809.0,6.540826500917319
63863.00882039357,154934.0,89544.0,3852.0,6.550920368972584
63863.01891426163,154955.0,89568.0,3833.0,6.561014237035124
63863.029008129684,154956.0,89555.0,3843.0,6.571108105090389
63863.03910199774,154943.0,89565.0,3853.0,6.581201973145653
63863.049195865795,154960.0,89550.0,3854.0,6.5912958412009175
63863.05928973386,154974.0,89536.0,3867.0,6.601389709263458
63863.06938360191,154965.0,89549.0,3858.0,6.611483577318722
63863.07947746997,154964.0,89551.0,3855.0,6.621577445373987
63863.08957133802,154973.0,89553.0,3866.0,6.631671313429251
63863.099665206086,154964.0,89531.0,3844.0,6.641765181491792
63863.10975907414,154999.0,89566.0,3859.0,6.651859049547056
63863.119852942196,154983.0,89533.0,3858.0,6.661952917602321
63863.12994681025,154981.0,89532.0,3847.0,6.672046785657585
63863.140040678314,154986.0,89534.0,3870.0,6.682140653720126
63863.15013454637,154973.0,89536.0,3847.0,6.69223452177539
63863.160228414425,155038.0,89596.0,3884.0,6.7023283898306545
63863.17032228248,155019.0,89565.0,3869.0,6.712422257885919
63863.180416150535,155052.0,89567.0,3897.0,6.722516125941183
63863.1905100186,155058.0,89580.0,3863.0,6.732609994003724
63863.20060388665,155063.0,89571.0,3867.0,6.742703862058988
63863.21069775471,155047.0,89563.0,3873.0,6.752797730114253
63863.22079162276,155052.0,89601.0,3876.0,6.762891598169517
63863.230885490826,155050.0,89572.0,3853.0,6.772985466232058
63863.24097935888,155082.0,89587.0,3905.0,6.783079334287322
63863.25107322694,155076.0,89574.0,3885.0,6.793173202342587
63863.26116709499,155089.0,89537.0,3903.0,6.803267070397851
63863.271260963054,155115.0,89584.0,3894.0,6.8133609384603915
63863.28135483111,155060.0,89573.0,3888.0,6.823454806515656
63863.291448699165,155114.0,89571.0,3879.0,6.83354867457092
63863.30154256722,155105.0,89580.0,3892.0,6.843642542626185
63863.311636435275,155155.0,89604.0,3911.0,6.853736410681449
63863.32173030334,155108.0,89584.0,3867.0,6.86383027874399
63863.33182417139,155134.0,89594.0,3899.0,6.873924146799254
63863.34191803945,155163.0,89615.0,3902.0,6.884018014854519
63863.352011907504,155120.0,89575.0,3885.0,6.894111882909783
63863.362105775566,155140.0,89627.0,3904.0,6.904205750972324
63863.37219964362,155178.0,89600.0,3905.0,6.914299619027588
63863.38229351168,155181.0,89609.0,3898.0,6.9243934870828525
63863.39238737973,155222.0,89650.0,3894.0,6.934487355138117
63863.402481247795,155185.0,89620.0,3929.0,6.944581223200657
63863.41257511585,155170.0,89588.0,3900.0,6.954675091255922
63863.422668983905,155203.0,89601.0,3909.0,6.964768959311186
63863.43276285196,155194.0,89628.0,3906.0,6.974862827366451
63863.44285672002,155231.0,89615.0,3909.0,6.984956695428991
63863.45295058808,155202.0,89612.0,3917.0,6.995050563484256
63863.46304445613,155202.0,89601.0,3906.0,7.00514443153952
63863.47313832419,155115.0,89566.0,3918.0,7.015238299594785
63863.483232192244,155044.0,89539.0,3864.0,7.025332167650049
63863.49332606031,154961.0,89582.0,3898.0,7.0354260357125895
63863.50341992836,154918.0,89543.0,3871.0,7.045519903767854
63863.51351379642,154854.0,89515.0,3845.0,7.055613771823118
63863.52360766447,154817.0,89517.0,3822.0,7.065707639878383
63863.533701532535,154814.0,89516.0,3885.0,7.075801507940923
63863.54379540059,154760.0,89494.0,3848.0,7.085895375996188
63863.553889268645,154739.0,89483.0,3832.0,7.095989244051452
63863.5639831367,154778.0,89502.0,3849.0,7.106083112106717
63863.57407700476,154732.0,89519.0,3808.0,7.116176980169257
63863.58417087282,154767.0,89501.0,3838.0,7.126270848224522
63863.594264740874,154744.0,89491.0,3803.0,7.136364716279786
63863.60435860893,154773.0,89503.0,3821.0,7.1464585843350505
63863.61445247699,154783.0,89517.0,3834.0,7.156552452397591
63863.62454634505,154795.0,89510.0,3836.0,7.166646320452855
63863.6346402131,154820.0,89533.0,3843.0,7.17674018850812
63863.64473408116,154786.0,89518.0,3827.0,7.186834056563384
63863.65482794921,154833.0,89532.0,3811.0,7.196927924618649
63863.664921817275,154831.0,89508.0,3861.0,7.207021792681189
63863.67501568533,154795.0,89499.0,3852.0,7.217115660736454
63863.685109553386,154814.0,89531.0,3843.0,7.227209528791718
63863.69520342144,154799.0,89481.0,3833.0,7.237303396846983
63863.7052972895,154831.0,89524.0,3848.0,7.247397264909523
63863.71539115756,154811.0,89507.0,3819.0,7.2574911329647875
63863.725485025614,154871.0,89548.0,3831.0,7.267585001020052
63863.73557889367,154856.0,89502.0,3828.0,7.2776788690753165
63863.74567276173,154858.0,89537.0,3844.0,7.287772737137857
63863.75576662979,154847.0,89511.0,3845.0,7.297866605193121
63863.76586049784,154860.0,89508.0,3828.0,7.307960473248386
63863.7759543659,154857.0,89500.0,3841.0,7.31805434130365
63863.78604823396,154851.0,89531.0,3840.0,7.328148209366191
63863.796142102015,154831.0,89538.0,3835.0,7.338242077421455
63863.80623597007,154799.0,89529.0,3826.0,7.34833594547672
63863.816329838126,154844.0,89531.0,3863.0,7.358429813531984
63863.82642370618,154838.0,89517.0,3844.0,7.368523681587249
63863.836517574244,154834.0,89526.0,3837.0,7.378617549649789
63863.8466114423,154846.0,89518.0,3835.0,7.3887114177050535
63863.856705310354,154862.0,89536.0,3853.0,7.398805285760318
63863.86679917841,154845.0,89530.0,3824.0,7.408899153815582
63863.87689304647,154842.0,89524.0,3845.0,7.418993021878123
63863.88698691453,154876.0,89541.0,3856.0,7.429086889933387
63863.89708078258,154864.0,89523.0,3851.0,7.439180757988652
63863.90717465064,154886.0,89539.0,3837.0,7.449274626043916
63863.9172685187,154881.0,89531.0,3843.0,7.459368494106457
63863.927362386756,154880.0,89567.0,3826.0,7.469462362161721
63863.93745625481,154882.0,89538.0,3841.0,7.479556230216986
63863.947550122866,154941.0,89552.0,3878.0,7.48965009827225
63863.95764399093,154933.0,89565.0,3856.0,7.4997439663347905
63863.967737858984,154918.0,89538.0,3848.0,7.509837834390055
63863.97783172704,154953.0,89539.0,3881.0,7.519931702445319
63863.987925595095,154942.0,89548.0,3867.0,7.530025570500584
63863.99801946315,154965.0,89564.0,3862.0,7.540119438555848
63864.00811333121,154958.0,89574.0,3849.0,7.550213306618389
63864.01820719927,155001.0,89580.0,3896.0,7.560307174673653
63864.02830106732,154956.0,89536.0,3870.0,7.570401042728918
63864.03839493538,154987.0,89570.0,3868.0,7.580494910784182
63864.04848880344,155001.0,89547.0,3861.0,7.590588778846723
63864.058582671496,154970.0,89543.0,3862.0,7.600682646901987
63864.06867653955,154946.0,89554.0,3821.0,7.6107765149572515
63864.07877040761,155008.0,89560.0,3882.0,7.620870383012516
63864.08886427567,155031.0,89560.0,3866.0,7.630964251075056
63864.098958143724,155010.0,89567.0,3855.0,7.641058119130321
63864.10905201178,155038.0,89577.0,3874.0,7.651151987185585
63864.119145879835,155041.0,89577.0,3875.0,7.66124585524085
63864.1292397479,154998.0,89597.0,3896.0,7.67133972330339
63864.13933361595,155010.0,89576.0,3862.0,7.681433591358655
63864.14942748401,155064.0,89573.0,3880.0,7.691527459413919
63864.15952135206,155060.0,89578.0,3883.0,7.701621327469184
63864.16961522012,155060.0,89591.0,3863.0,7.711715195524448
63864.17970908818,155086.0,89597.0,3882.0,7.7218090635869885
63864.189802956236,155061.0,89559.0,3879.0,7.731902931642253
63864.19989682429,155034.0,89575.0,3875.0,7.741996799697517
63864.20999069235,155089.0,89593.0,3884.0,7.752090667752782
63864.22008456041,155111.0,89571.0,3902.0,7.762184535815322
63864.230178428465,155075.0,89570.0,3876.0,7.772278403870587
63864.24027229652,155101.0,89589.0,3892.0,7.782372271925851
63864.250366164575,155079.0,89599.0,3905.0,7.792466139981116
63864.26046003264,155084.0,89567.0,3889.0,7.802560008043656
63864.27055390069,155095.0,89622.0,3877.0,7.812653876098921
63864.28064776875,155118.0,89589.0,3896.0,7.822747744154185
63864.2907416368,155105.0,89576.0,3871.0,7.8328416122094495
63864.30083550486,155129.0,89606.0,3884.0,7.842935480264714
63864.31092937292,155159.0,89606.0,3916.0,7.853029348327254
63864.32102324098,155158.0,89602.0,3900.0,7.863123216382519
63864.33111710903,155158.0,89595.0,3873.0,7.873217084437783
63864.34121097709,155170.0,89635.0,3922.0,7.883310952493048
63864.35130484515,155159.0,89601.0,3880.0,7.893404820555588
63864.361398713205,155186.0,89614.0,3904.0,7.903498688610853
63864.37149258126,155213.0,89613.0,3899.0,7.913592556666117
63864.381586449315,155176.0,89593.0,3935.0,7.923686424721382
63864.39168031738,155200.0,89586.0,3901.0,7.933780292783922
63864.40177418543,155210.0,89617.0,3914.0,7.9438741608391865
63864.41186805349,155223.0,89610.0,3902.0,7.953968028894451
63864.421961921544,155193.0,89616.0,3881.0,7.9640618969497154
63864.432055789606,155258.0,89624.0,3899.0,7.974155765012256
63864.44214965766,155243.0,89623.0,3933.0,7.98424963306752
63864.45224352572,155253.0,89628.0,3923.0,7.994343501122785
63864.46233739377,155242.0,89646.0,3914.0,8.00443736917805
63864.47243126183,155234.0,89640.0,3941.0,8.014531237233314
63864.48252512989,155171.0,89621.0,3916.0,8.024625105295854
63864.492618997945,155100.0,89590.0,3904.0,8.034718973351119
63864.502712866,155070.0,89596.0,3879.0,8.044812841406383
63864.512806734056,154957.0,89551.0,3872.0,8.054906709461648
63864.52290060212,154916.0,89537.0,3871.0,8.065000577524188
63864.53299447017,154861.0,89557.0,3867.0,8.075094445579452
63864.54308833823,154846.0,89516.0,3871.0,8.085188313634717
63864.553182206284,154780.0,89501.0,3832.0,8.095282181689981
63864.56327607435,154813.0,89538.0,3860.0,8.105376049752522
63864.5733699424,154798.0,89513.0,3839.0,8.115469917807786
63864.58346381046,154793.0,89506.0,3856.0,8.12556378586305
63864.59355767851,154804.0,89548.0,3849.0,8.135657653918315
63864.603651546575,154789.0,89492.0,3870.0,8.145751521980856
63864.61374541463,154815.0,89523.0,3849.0,8.15584539003612
63864.623839282685,154817.0,89496.0,3846.0,8.165939258091385
63864.63393315074,154857.0,89557.0,3840.0,8.176033126146649
63864.644027018796,154809.0,89512.0,3837.0,8.186126994201913
63864.65412088686,154855.0,89533.0,3842.0,8.196220862264454
63864.664214754914,154845.0,89527.0,3850.0,8.206314730319718
63864.67430862297,154856.0,89532.0,3846.0,8.216408598374983
63864.684402491024,154858.0,89555.0,3867.0,8.226502466430247
63864.69449635909,154850.0,89536.0,3854.0,8.236596334492788
63864.70459022714,154885.0,89575.0,3863.0,8.246690202548052
63864.7146840952,154856.0,89551.0,3850.0,8.256784070603317
63864.72477796325,154877.0,89569.0,3856.0,8.266877938658581
63864.734871831315,154846.0,89528.0,3865.0,8.276971806721122
63864.74496569937,154849.0,89531.0,3860.0,8.287065674776386
63864.755059567426,154859.0,89527.0,3848.0,8.29715954283165
63864.76515343548,154863.0,89524.0,3848.0,8.307253410886915
63864.77524730354,154892.0,89549.0,3856.0,8.317347278949455
63864.7853411716,154853.0,89537.0,3847.0,8.32744114700472
63864.795435039654,154891.0,89531.0,3848.0,8.337535015059984
63864.80552890771,154874.0,89533.0,3844.0,8.347628883115249
63864.815622775764,154873.0,89530.0,3849.0,8.357722751170513
63864.82571664383,154859.0,89552.0,3866.0,8.367816619233054
63864.83581051188,154851.0,89544.0,3863.0,8.377910487288318
63864.84590437994,154849.0,89544.0,3857.0,8.388004355343583
63864.85599824799,154871.0,89545.0,3854.0,8.398098223398847
63864.866092116055,154886.0,89498.0,3894.0,8.408192091461387
63864.87618598411,154843.0,89522.0,3849.0,8.418285959516652
63864.886279852166,154900.0,89545.0,3854.0,8.428379827571916
63864.89637372022,154882.0,89539.0,3853.0,8.43847369562718
63864.906467588284,154886.0,89535.0,3834.0,8.448567563689721
63864.91656145634,154920.0,89566.0,3875.0,8.458661431744986
63864.926655324394,154942.0,89570.0,3880.0,8.46875529980025
63864.93674919245,154932.0,89555.0,3853.0,8.478849167855515
63864.946843060505,154932.0,89551.0,3838.0,8.48894303591078
63864.95693692857,154983.0,89578.0,3888.0,8.49903690397332
63864.96703079662,154958.0,89571.0,3863.0,8.509130772028584
63864.97712466468,154963.0,89551.0,3852.0,8.519224640083848
63864.98721853273,154931.0,89560.0,3852.0,8.529318508139113
63864.997312400796,154946.0,89542.0,3849.0,8.539412376201653
63865.00740626885,154981.0,89554.0,3859.0,8.549506244256918
63865.017500136906,154990.0,89566.0,3882.0,8.559600112312182
63865.02759400496,154978.0,89568.0,3878.0,8.569693980367447
63865.037687873024,154980.0,89566.0,3862.0,8.579787848429987
63865.04778174108,154992.0,89572.0,3866.0,8.589881716485252
63865.057875609134,155044.0,89579.0,3895.0,8.599975584540516
63865.06796947719,155021.0,89571.0,3875.0,8.61006945259578
63865.07806334525,155019.0,89562.0,3869.0,8.620163320658321
63865.08815721331,155067.0,89586.0,3906.0,8.630257188713585
63865.09825108136,155038.0,89577.0,3872.0,8.64035105676885
63865.10834494942,155044.0,89593.0,3887.0,8.650444924824114
63865.11843881747,155068.0,89557.0,3869.0,8.660538792879379
63865.128532685536,155051.0,89574.0,3895.0,8.67063266094192
63865.13862655359,155040.0,89569.0,3842.0,8.680726528997184
63865.14872042165,155049.0,89577.0,3876.0,8.690820397052448
63865.1588142897,155067.0,89610.0,3895.0,8.700914265107713
63865.168908157764,155060.0,89620.0,3896.0,8.711008133170253
63865.17900202582,155085.0,89596.0,3883.0,8.721102001225518
63865.189095893875,155074.0,89586.0,3892.0,8.731195869280782
63865.19918976193,155102.0,89587.0,3886.0,8.741289737336047
63865.20928362999,155112.0,89608.0,3894.0,8.751383605398587
63865.21937749805,155089.0,89577.0,3871.0,8.761477473453851
63865.2294713661,155103.0,89586.0,3890.0,8.771571341509116
63865.23956523416,155103.0,89572.0,3879.0,8.78166520956438
63865.24965910222,155090.0,89606.0,3893.0,8.79175907762692
63865.259752970276,155096.0,89595.0,3877.0,8.801852945682185
63865.26984683833,155113.0,89601.0,3873.0,8.81194681373745
63865.27994070639,155147.0,89630.0,3913.0,8.822040681792714
63865.29003457444,155159.0,89615.0,3911.0,8.832134549847979
63865.300128442505,155169.0,89615.0,3919.0,8.842228417910519
63865.31022231056,155150.0,89606.0,3910.0,8.852322285965784
63865.320316178615,155186.0,89612.0,3918.0,8.862416154021048
63865.33041004667,155175.0,89575.0,3911.0,8.872510022076312
63865.34050391473,155196.0,89646.0,3910.0,8.882603890138853
63865.35059778279,155196.0,89623.0,3909.0,8.892697758194117
63865.36069165084,155185.0,89609.0,3942.0,8.902791626249382
63865.3707855189,155220.0,89618.0,3917.0,8.912885494304646
63865.38087938696,155241.0,89612.0,3937.0,8.922979362367187
63865.39097325502,155221.0,89621.0,3913.0,8.933073230422451
63865.40106712307,155253.0,89640.0,3894.0,8.943167098477716
63865.41116099113,155252.0,89621.0,3921.0,8.95326096653298
63865.42125485919,155212.0,89619.0,3899.0,8.96335483459552
63865.431348727245,155255.0,89622.0,3921.0,8.973448702650785
63865.4414425953,155226.0,89630.0,3900.0,8.98354257070605
63865.451536463355,155262.0,89612.0,3919.0,8.993636438761314
63865.46163033141,155198.0,89624.0,3899.0,9.003730306816578
63865.47172419947,155159.0,89616.0,3908.0,9.013824174879119
63865.48181806753,155095.0,89584.0,3887.0,9.023918042934383
63865.49191193558,155003.0,89573.0,3884.0,9.034011910989648
63865.50200580364,154994.0,89540.0,3912.0,9.044105779044912
63865.5120996717,154917.0,89548.0,3881.0,9.054199647107453
63865.52219353976,154848.0,89507.0,3880.0,9.064293515162717
63865.53228740781,154874.0,89547.0,3876.0,9.074387383217982
63865.54238127587,154817.0,89521.0,3865.0,9.084481251273246
63865.55247514393,154816.0,89535.0,3878.0,9.094575119335786
63865.562569011985,154791.0,89526.0,3867.0,9.104668987391051
63865.57266288004,154859.0,89534.0,3851.0,9.114762855446315
63865.582756748096,154864.0,89552.0,3851.0,9.12485672350158
63865.59285061616,154818.0,89540.0,3827.0,9.13495059156412
63865.60294448421,154864.0,89535.0,3857.0,9.145044459619385
63865.61303835227,154858.0,89516.0,3838.0,9.15513832767465
63865.623132220324,154904.0,89574.0,3872.0,9.165232195729914
63865.63322608838,154889.0,89563.0,3856.0,9.175326063785178
63865.64331995644,154909.0,89558.0,3856.0,9.185419931847719
63865.6534138245,154902.0,89526.0,3862.0,9.195513799902983
63865.66350769255,154947.0,89552.0,3869.0,9.205607667958247
63865.67360156061,154957.0,89597.0,3854.0,9.215701536013512
63865.68369542867,154915.0,89555.0,3864.0,9.225795404076052
63865.693789296725,154927.0,89533.0,3869.0,9.235889272131317
63865.70388316478,154938.0,89565.0,3865.0,9.245983140186581
63865.713977032836,154969.0,89560.0,3852.0,9.256077008241846
63865.7240709009,154951.0,89549.0,3860.0,9.266170876304386
63865.73416476895,154948.0,89546.0,3887.0,9.27626474435965
63865.74425863701,154984.0,89561.0,3879.0,9.286358612414915
63865.754352505064,154954.0,89568.0,3865.0,9.29645248047018
63865.76444637313,154955.0,89557.0,3863.0,9.30654634853272
63865.77454024118,154960.0,89554.0,3865.0,9.316640216587984
63865.78463410924,154917.0,89531.0,3858.0,9.326734084643249
63865.79472797729,154917.0,89557.0,3857.0,9.336827952698513
63865.80482184535,154888.0,89535.0,3846.0,9.346921820753778
63865.81491571341,154912.0,89543.0,3873.0,9.357015688816318
63865.825009581466,154890.0,89549.0,3844.0,9.367109556871583
63865.83510344952,154893.0,89535.0,3849.0,9.377203424926847
63865.845197317576,154932.0,89571.0,3865.0,9.387297292982112
63865.85529118564,154950.0,89567.0,3850.0,9.397391161044652
63865.865385053694,154929.0,89545.0,3869.0,9.407485029099917
63865.87547892175,154958.0,89578.0,3861.0,9.417578897155181
63865.885572789804,154962.0,89565.0,3865.0,9.427672765210446
63865.89566665787,154961.0,89558.0,3869.0,9.437766633272986
63865.90576052592,155013.0,89607.0,3879.0,9.44786050132825
63865.91585439398,155022.0,89589.0,3895.0,9.457954369383515
63865.92594826203,155004.0,89569.0,3873.0,9.46804823743878
63865.93604213009,154975.0,89531.0,3859.0,9.478142105494044
63865.94613599815,155019.0,89565.0,3881.0,9.488235973556584
63865.956229866206,155009.0,89575.0,3862.0,9.498329841611849
63865.96632373426,155037.0,89584.0,3893.0,9.508423709667113
63865.976417602316,155077.0,89591.0,3904.0,9.518517577722378
63865.98651147038,155038.0,89563.0,3880.0,9.528611445784918
63865.996605338434,155068.0,89577.0,3883.0,9.538705313840182
63866.00669920649,155079.0,89601.0,3892.0,9.548799181895447
63866.016793074545,155052.0,89595.0,3896.0,9.558893049950711
63866.02688694261,155074.0,89584.0,3893.0,9.568986918013252
63866.03698081066,155073.0,89565.0,3885.0,9.579080786068516
63866.04707467872,155108.0,89600.0,3896.0,9.58917465412378
63866.05716854677,155087.0,89578.0,3886.0,9.599268522179045
63866.067262414836,155083.0,89588.0,3900.0,9.609362390241586
63866.07735628289,155074.0,89569.0,3897.0,9.61945625829685
63866.087450150946,155111.0,89595.0,3895.0,9.629550126352115
63866.097544019,155098.0,89598.0,3900.0,9.639643994407379
63866.10763788706,155140.0,89596.0,3924.0,9.649737862462644
63866.11773175512,155130.0,89627.0,3925.0,9.659831730525184
63866.127825623174,155127.0,89603.0,3916.0,9.669925598580448
63866.13791949123,155149.0,89622.0,3907.0,9.680019466635713
63866.148013359285,155168.0,89645.0,3924.0,9.690113334690977
63866.15810722735,155128.0,89634.0,3911.0,9.700207202753518
63866.1682010954,155127.0,89600.0,3913.0,9.710301070808782
63866.17829496346,155170.0,89611.0,3906.0,9.720394938864047
63866.18838883151,155147.0,89616.0,3904.0,9.730488806919311
63866.198482699576,155192.0,89634.0,3931.0,9.740582674981852
63866.20857656763,155120.0,89587.0,3875.0,9.750676543037116
63866.21867043569,155182.0,89615.0,3916.0,9.76077041109238
63866.22876430374,155180.0,89608.0,3893.0,9.770864279147645
63866.238858171804,155171.0,89620.0,3904.0,9.780958147210185
63866.24895203986,155211.0,89637.0,3884.0,9.79105201526545
63866.259045907915,155207.0,89622.0,3908.0,9.801145883320714
63866.26913977597,155219.0,89638.0,3951.0,9.811239751375979
63866.279233644025,155236.0,89616.0,3901.0,9.821333619431243
63866.28932751209,155235.0,89647.0,3935.0,9.831427487493784
63866.29942138014,155243.0,89633.0,3918.0,9.841521355549048
63866.3095152482,155262.0,89623.0,3897.0,9.851615223604313
63866.31960911625,155286.0,89651.0,3909.0,9.861709091659577
63866.329702984316,155261.0,89619.0,3912.0,9.871802959722118
63866.33979685237,155272.0,89625.0,3928.0,9.881896827777382
63866.34989072043,155313.0,89615.0,3945.0,9.891990695832646
63866.35998458848,155295.0,89630.0,3949.0,9.902084563887911
63866.370078456544,155272.0,89651.0,3900.0,9.912178431950451
63866.3801723246,155311.0,89646.0,3927.0,9.922272300005716
63866.390266192655,155341.0,89658.0,3927.0,9.93236616806098
63866.40036006071,155322.0,89652.0,3927.0,9.942460036116245
63866.41045392877,155329.0,89661.0,3928.0,9.952553904178785
63866.42054779683,155290.0,89646.0,3914.0,9.96264777223405
63866.43064166488,155241.0,89628.0,3906.0,9.972741640289314
63866.44073553294,155153.0,89603.0,3933.0,9.982835508344579
63866.450829400994,155097.0,89600.0,3926.0,9.992929376399843
63866.46092326906,155023.0,89583.0,3903.0,10.003023244462383
63866.47101713711,154947.0,89546.0,3880.0,10.013117112517648
63866.48111100517,154935.0,89569.0,3898.0,10.023210980572912
63866.49120487322,154899.0,89536.0,3873.0,10.033304848628177
63866.501298741285,154857.0,89540.0,3865.0,10.043398716690717
63866.51139260934,154857.0,89520.0,3873.0,10.053492584745982
63866.521486477395,154851.0,89558.0,3857.0,10.063586452801246
63866.53158034545,154825.0,89519.0,3841.0,10.07368032085651
63866.54167421351,154863.0,89536.0,3862.0,10.083774188919051
63866.55176808157,154864.0,89547.0,3855.0,10.093868056974316
63866.56186194962,154879.0,89525.0,3863.0,10.10396192502958
63866.57195581768,154888.0,89525.0,3859.0,10.114055793084844
63866.582049685734,154895.0,89552.0,3857.0,10.124149661140109
63866.5921435538,154879.0,89578.0,3883.0,10.13424352920265
63866.60223742185,154891.0,89559.0,3874.0,10.144337397257914
63866.61233128991,154916.0,89554.0,3879.0,10.154431265313178
63866.62242515796,154902.0,89539.0,3862.0,10.164525133368443
63866.632519026025,154890.0,89544.0,3847.0,10.174619001430983
63866.64261289408,154909.0,89532.0,3874.0,10.184712869486248
63866.652706762135,154864.0,89525.0,3862.0,10.194806737541512
63866.66280063019,154895.0,89549.0,3851.0,10.204900605596777
63866.67289449825,154875.0,89561.0,3868.0,10.214994473659317
63866.68298836631,154943.0,89572.0,3878.0,10.225088341714581
63866.693082234364,154907.0,89540.0,3840.0,10.235182209769846
63866.70317610242,154928.0,89563.0,3882.0,10.24527607782511
63866.71326997048,154926.0,89584.0,3862.0,10.25536994588765
63866.72336383854,154908.0,89537.0,3853.0,10.265463813942915
63866.73345770659,154892.0,89563.0,3868.0,10.27555768199818
63866.74355157465,154915.0,89585.0,3851.0,10.285651550053444
63866.7536454427,154892.0,89540.0,3856.0,10.295745418108709
63866.763739310765,154923.0,89571.0,3846.0,10.30583928617125
63866.77383317882,154927.0,89557.0,3855.0,10.315933154226514
63866.783927046876,154870.0,89542.0,3858.0,10.326027022281778
63866.79402091493,154908.0,89556.0,3860.0,10.336120890337043
63866.80411478299,154857.0,89552.0,3854.0,10.346214758399583
63866.81420865105,154941.0,89549.0,3895.0,10.356308626454847
63866.824302519104,154918.0,89545.0,3835.0,10.366402494510112
63866.83439638716,154909.0,89557.0,3859.0,10.376496362565376
63866.84449025522,154937.0,89558.0,3874.0,10.386590230627917
63866.85458412328,154917.0,89552.0,3851.0,10.396684098683181
63866.86467799133,154949.0,89552.0,3841.0,10.406777966738446
63866.87477185939,154930.0,89543.0,3853.0,10.41687183479371
63866.88486572745,154959.0,89568.0,3845.0,10.42696570285625
63866.894959595505,154957.0,89552.0,3861.0,10.437059570911515
63866.90505346356,154979.0,89553.0,3866.0,10.44715343896678
63866.915147331616,155005.0,89587.0,3879.0,10.457247307022044
63866.92524119967,155006.0,89578.0,3867.0,10.467341175077308
63866.935335067734,155038.0,89611.0,3897.0,10.477435043139849
63866.94542893579,155008.0,89568.0,3846.0,10.487528911195113
63866.955522803844,155028.0,89588.0,3884.0,10.497622779250378
63866.9656166719,155061.0,89616.0,3857.0,10.507716647305642
63866.97571053996,155040.0,89569.0,3860.0,10.517810515368183
63866.98580440802,155055.0,89590.0,3882.0,10.527904383423447
63866.99589827607,155061.0,89591.0,3877.0,10.537998251478712
63867.00599214413,155044.0,89579.0,3845.0,10.548092119533976
63867.01608601219,155041.0,89577.0,3878.0,10.558185987596516
63867.026179880246,155088.0,89608.0,3879.0,10.568279855651781
63867.0362737483,155072.0,89595.0,3885.0,10.578373723707045
63867.046367616356,155054.0,89583.0,3895.0,10.58846759176231
63867.05646148442,155094.0,89607.0,3887.0,10.59856145982485
63867.066555352474,155067.0,89584.0,3866.0,10.608655327880115
63867.07664922053,155090.0,89595.0,3893.0,10.61874919593538
63867.086743088585,155109.0,89582.0,3890.0,10.628843063990644
63867.09683695664,155082.0,89584.0,3905.0,10.638936932045908
63867.1069308247,155105.0,89581.0,3879.0,10.649030800108449
63867.11702469276,155117.0,89605.0,3889.0,10.659124668163713
63867.12711856081,155124.0,89613.0,3892.0,10.669218536218978
63867.13721242887,155102.0,89579.0,3893.0,10.679312404274242
63867.14730629693,155107.0,89587.0,3892.0,10.689406272336782
63867.157400164986,155140.0,89604.0,3892.0,10.699500140392047
63867.16749403304,155164.0,89641.0,3903.0,10.709594008447311
63867.1775879011,155122.0,89607.0,3906.0,10.719687876502576
63867.18768176916,155184.0,89612.0,3917.0,10.729781744565116
63867.197775637214,155164.0,89617.0,3906.0,10.73987561262038
63867.20786950527,155130.0,89592.0,3900.0,10.749969480675645
63867.217963373325,155190.0,89604.0,3901.0,10.76006334873091
63867.22805724139,155172.0,89638.0,3923.0,10.77015721679345
63867.23815110944,155191.0,89621.0,3894.0,10.780251084848715
63867.2482449775,155178.0,89621.0,3917.0,10.790344952903979
63867.25833884555,155219.0,89634.0,3922.0,10.800438820959243
63867.26843271361,155199.0,89618.0,3896.0,10.810532689014508
63867.27852658167,155246.0,89607.0,3934.0,10.820626557077048
63867.288620449726,155201.0,89598.0,3919.0,10.830720425132313
63867.29871431778,155246.0,89656.0,3946.0,10.840814293187577
63867.30880818584,155213.0,89632.0,3918.0,10.850908161242842
63867.3189020539,155275.0,89635.0,3944.0,10.861002029305382
63867.328995921955,155254.0,89655.0,3921.0,10.871095897360647
63867.33908979001,155256.0,89608.0,3921.0,10.881189765415911
63867.349183658065,155305.0,89640.0,3928.0,10.891283633471176
63867.35927752613,155274.0,89644.0,3932.0,10.901377501533716
63867.36937139418,155272.0,89644.0,3925.0,10.91147136958898
63867.37946526224,155268.0,89665.0,3913.0,10.921565237644245
63867.38955913029,155314.0,89619.0,3943.0,10.93165910569951
63867.399652998356,155255.0,89637.0,3910.0,10.94175297376205
63867.40974686641,155200.0,89642.0,3920.0,10.951846841817314
63867.41984073447,155147.0,89625.0,3931.0,10.961940709872579
63867.42993460252,155060.0,89576.0,3903.0,10.972034577927843
63867.44002847058,154981.0,89571.0,3881.0,10.982128445983108
63867.45012233864,154965.0,89559.0,3888.0,10.992222314045648
63867.460216206695,154932.0,89540.0,3906.0,11.002316182100913
63867.47031007475,154880.0,89536.0,3840.0,11.012410050156177
63867.480403942805,154846.0,89529.0,3854.0,11.022503918211441
63867.49049781087,154836.0,89533.0,3859.0,11.032597786273982
63867.50059167892,154825.0,89509.0,3859.0,11.042691654329246
63867.51068554698,154833.0,89548.0,3883.0,11.05278552238451
63867.520779415034,154812.0,89522.0,3831.0,11.062879390439775
63867.530873283096,154849.0,89531.0,3857.0,11.072973258502316
63867.54096715115,154847.0,89559.0,3847.0,11.08306712655758
63867.55106101921,154869.0,89545.0,3871.0,11.093160994612845
63867.56115488726,154831.0,89517.0,3830.0,11.10325486266811
63867.571248755325,154864.0,89530.0,3859.0,11.11334873073065
63867.58134262338,154842.0,89565.0,3843.0,11.123442598785914
63867.591436491435,154847.0,89522.0,3840.0,11.133536466841178
63867.60153035949,154883.0,89570.0,3832.0,11.143630334896443
63867.611624227546,154869.0,89547.0,3849.0,11.153724202951707
63867.62171809561,154850.0,89537.0,3893.0,11.163818071014248
63867.63181196366,154870.0,89545.0,3843.0,11.173911939069512
63867.64190583172,154879.0,89572.0,3875.0,11.184005807124777
63867.651999699774,154895.0,89556.0,3857.0,11.194099675180041
63867.66209356784,154905.0,89555.0,3847.0,11.204193543242582
63867.67218743589,154930.0,89552.0,3845.0,11.214287411297846
63867.68228130395,154889.0,89521.0,3824.0,11.22438127935311
63867.692375172,154900.0,89561.0,3855.0,11.234475147408375
63867.702469040065,154899.0,89538.0,3853.0,11.244569015470915
63867.71256290812,154911.0,89549.0,3869.0,11.25466288352618
63867.722656776175,154890.0,89554.0,3842.0,11.264756751581444
63867.73275064423,154911.0,89570.0,3857.0,11.274850619636709
63867.742844512286,154925.0,89549.0,3843.0,11.284944487691973
63867.75293838035,154875.0,89545.0,3863.0,11.295038355754514
63867.763032248404,154876.0,89551.0,3853.0,11.305132223809778
63867.77312611646,154891.0,89556.0,3853.0,11.315226091865043
63867.783219984514,154907.0,89588.0,3855.0,11.325319959920307
63867.79331385258,154909.0,89549.0,3858.0,11.335413827982848
63867.80340772063,154905.0,89586.0,3871.0,11.345507696038112
63867.81350158869,154926.0,89538.0,3877.0,11.355601564093377
63867.82359545674,154899.0,89534.0,3873.0,11.365695432148641
63867.833689324805,154924.0,89569.0,3854.0,11.375789300211181
63867.84378319286,154929.0,89554.0,3849.0,11.385883168266446
63867.853877060916,154916.0,89567.0,3840.0,11.39597703632171
63867.86397092897,154951.0,89539.0,3871.0,11.406070904376975
63867.87406479703,154991.0,89583.0,3848.0,11.416164772439515
63867.88415866509,154965.0,89553.0,3838.0,11.42625864049478
63867.894252533144,154998.0,89576.0,3878.0,11.436352508550044
63867.9043464012,154986.0,89603.0,3869.0,11.446446376605309
63867.914440269255,154973.0,89562.0,3863.0,11.456540244660573
63867.92453413732,154996.0,89541.0,3867.0,11.466634112723114
63867.93462800537,155019.0,89605.0,3875.0,11.476727980778378
63867.94472187343,154998.0,89569.0,3854.0,11.486821848833642
63867.95481574148,155002.0,89571.0,3869.0,11.496915716888907
63867.964909609545,155023.0,89601.0,3875.0,11.507009584951447
63867.9750034776,155011.0,89567.0,3873.0,11.517103453006712
63867.985097345656,155032.0,89590.0,3884.0,11.527197321061976
63867.99519121371,155048.0,89599.0,3907.0,11.53729118911724
63868.005285081774,155066.0,89619.0,3906.0,11.547385057179781
63868.01537894983,155026.0,89589.0,3865.0,11.557478925235046
63868.025472817884,155056.0,89591.0,3889.0,11.56757279329031
63868.03556668594,155065.0,89594.0,3900.0,11.577666661345575
63868.045660554,155046.0,89564.0,3872.0,11.587760529408115
63868.05575442206,155057.0,89564.0,3882.0,11.59785439746338
63868.06584829011,155061.0,89588.0,3889.0,11.607948265518644
63868.07594215817,155048.0,89614.0,3883.0,11.618042133573908
63868.08603602622,155033.0,89585.0,3873.0,11.628136001629173
63868.096129894286,155099.0,89576.0,3886.0,11.638229869691713
63868.10622376234,155080.0,89591.0,3894.0,11.648323737746978
63868.116317630396,155112.0,89605.0,3872.0,11.658417605802242
63868.12641149845,155111.0,89591.0,3893.0,11.668511473857507
63868.136505366514,155127.0,89616.0,3918.0,11.678605341920047
63868.14659923457,155105.0,89611.0,3885.0,11.688699209975312
63868.156693102625,155102.0,89599.0,3898.0,11.698793078030576
63868.16678697068,155119.0,89616.0,3892.0,11.70888694608584
63868.17688083874,155119.0,89598.0,3894.0,11.71898081414838
63868.1869747068,155133.0,89617.0,3904.0,11.729074682203645
63868.19706857485,155134.0,89608.0,3931.0,11.73916855025891
63868.20716244291,155119.0,89595.0,3871.0,11.749262418314174
63868.21725631096,155169.0,89633.0,3912.0,11.759356286369439
63868.227350179026,155162.0,89606.0,3897.0,11.76945015443198
63868.23744404708,155192.0,89609.0,3917.0,11.779544022487244
63868.24753791514,155166.0,89588.0,3897.0,11.789637890542508
63868.25763178319,155206.0,89631.0,3911.0,11.799731758597773
63868.267725651254,155184.0,89624.0,3906.0,11.809825626660313
63868.27781951931,155178.0,89608.0,3926.0,11.819919494715577
63868.287913387365,155242.0,89642.0,3926.0,11.830013362770842
63868.29800725542,155194.0,89621.0,3898.0,11.840107230826106
63868.30810112348,155219.0,89629.0,3901.0,11.850201098888647
63868.31819499154,155254.0,89657.0,3929.0,11.860294966943911
63868.32828885959,155240.0,89640.0,3924.0,11.870388834999176
63868.33838272765,155216.0,89628.0,3908.0,11.88048270305444
63868.34847659571,155255.0,89625.0,3918.0,11.89057657111698
63868.358570463766,155237.0,89638.0,3916.0,11.900670439172245
63868.36866433182,155272.0,89624.0,3943.0,11.91076430722751
63868.37875819988,155258.0,89631.0,3895.0,11.920858175282774
63868.38885206793,155274.0,89635.0,3956.0,11.930952043338038
63868.398945935995,155264.0,89654.0,3920.0,11.941045911400579
63868.40903980405,155226.0,89628.0,3916.0,11.951139779455843
63868.419133672105,155200.0,89610.0,3937.0,11.961233647511108
63868.42922754016,155127.0,89601.0,3894.0,11.971327515566372
63868.43932140822,155053.0,89571.0,3899.0,11.981421383628913
63868.44941527628,154987.0,89573.0,3869.0,11.991515251684177
63868.45950914433,154939.0,89580.0,3889.0,12.001609119739442
63868.46960301239,154874.0,89525.0,3849.0,12.011702987794706
63868.47969688045,154875.0,89567.0,3865.0,12.021796855857247
63868.48979074851,154822.0,89514.0,3837.0,12.031890723912511
63868.49988461656,154791.0,89508.0,3844.0,12.041984591967775
63868.50997848462,154823.0,89543.0,3829.0,12.05207846002304
63868.52007235268,154829.0,89524.0,3863.0,12.06217232808558
63868.530166220735,154804.0,89527.0,3852.0,12.072266196140845
63868.54026008879,154817.0,89507.0,3824.0,12.08236006419611
63868.550353956845,154836.0,89551.0,3881.0,12.092453932251374
63868.5604478249,154858.0,89538.0,3855.0,12.102547800306638
63868.57054169296,154845.0,89543.0,3818.0,12.112641668369179
63868.58063556102,154880.0,89572.0,3853.0,12.122735536424443
63868.590729429074,154853.0,89559.0,3874.0,12.132829404479708
63868.60082329713,154881.0,89538.0,3857.0,12.142923272534972
63868.61091716519,154900.0,89573.0,3870.0,12.153017140597512
63868.62101103325,154851.0,89522.0,3842.0,12.163111008652777
63868.6311049013,154820.0,89532.0,3828.0,12.173204876708041
63868.64119876936,154853.0,89533.0,3846.0,12.183298744763306
63868.65129263742,154876.0,89566.0,3852.0,12.193392612825846
63868.661386505475,154884.0,89538.0,3856.0,12.20348648088111
63868.67148037353,154874.0,89561.0,3854.0,12.213580348936375
63868.681574241586,154889.0,89551.0,3858.0,12.22367421699164
63868.69166810965,154894.0,89543.0,3838.0,12.23376808505418
63868.7017619777,154860.0,89539.0,3840.0,12.243861953109445
63868.71185584576,154924.0,89588.0,3873.0,12.253955821164709
63868.721949713814,154902.0,89563.0,3850.0,12.264049689219974
63868.73204358187,154853.0,89560.0,3828.0,12.274143557275238
63868.74213744993,154862.0,89533.0,3883.0,12.284237425337778
63868.75223131799,154874.0,89569.0,3864.0,12.294331293393043
63868.76232518604,154867.0,89550.0,3851.0,12.304425161448307
63868.7724190541,154869.0,89538.0,3840.0,12.314519029503572
63868.78251292216,154867.0,89557.0,3845.0,12.324612897566112
63868.792606790215,154863.0,89555.0,3821.0,12.334706765621377
63868.80270065827,154882.0,89546.0,3853.0,12.344800633676641
63868.812794526326,154926.0,89550.0,3876.0,12.354894501731906
63868.82288839439,154903.0,89556.0,3829.0,12.364988369794446
63868.832982262444,154898.0,89545.0,3836.0,12.37508223784971
63868.8430761305,154921.0,89557.0,3857.0,12.385176105904975
63868.853169998554,154899.0,89550.0,3849.0,12.39526997396024
63868.86326386662,154920.0,89576.0,3836.0,12.40536384202278
63868.87335773467,154946.0,89575.0,3854.0,12.415457710078044
63868.88345160273,154931.0,89557.0,3884.0,12.425551578133309
63868.89354547078,154913.0,89537.0,3865.0,12.435645446188573
63868.90363933884,154977.0,89567.0,3864.0,12.445739314243838
63868.9137332069,154956.0,89572.0,3864.0,12.455833182306378
63868.923827074956,154990.0,89578.0,3868.0,12.465927050361643
63868.93392094301,155008.0,89598.0,3875.0,12.476020918416907
63868.944014811066,154998.0,89596.0,3877.0,12.486114786472172
63868.95410867913,155006.0,89566.0,3884.0,12.496208654534712
63868.964202547184,154993.0,89582.0,3863.0,12.506302522589976
63868.97429641524,154993.0,89561.0,3877.0,12.516396390645241
63868.984390283294,155022.0,89589.0,3867.0,12.526490258700505
63868.99448415136,155018.0,89583.0,3848.0,12.536584126763046
63869.00457801941,155005.0,89585.0,3869.0,12.54667799481831
63869.01467188747,155003.0,89566.0,3909.0,12.556771862873575
63869.02476575552,155023.0,89569.0,3884.0,12.56686573092884
63869.034859623585,155051.0,89607.0,3886.0,12.57695959899138
63869.04495349164,155069.0,89620.0,3871.0,12.587053467046644
63869.055047359696,155037.0,89598.0,3884.0,12.597147335101909
63869.06514122775,155065.0,89611.0,3887.0,12.607241203157173
63869.07523509581,155035.0,89606.0,3877.0,12.617335071212437
63869.08532896387,155066.0,89594.0,3863.0,12.627428939274978
63869.095422831924,155060.0,89593.0,3882.0,12.637522807330242
63869.10551669998,155062.0,89612.0,3862.0,12.647616675385507
63869.115610568035,155064.0,89581.0,3864.0,12.657710543440771
63869.1257044361,155081.0,89581.0,3891.0,12.667804411503312
63869.13579830415,155090.0,89597.0,3886.0,12.677898279558576
63869.14589217221,155108.0,89602.0,3909.0,12.68799214761384
63869.15598604026,155092.0,89594.0,3894.0,12.698086015669105
63869.166079908326,155069.0,89577.0,3881.0,12.708179883731646
63869.17617377638,155105.0,89609.0,3890.0,12.71827375178691
63869.186267644436,155138.0,89620.0,3862.0,12.728367619842174
63869.19636151249,155102.0,89628.0,3910.0,12.738461487897439
63869.206455380554,155120.0,89625.0,3903.0,12.74855535595998
63869.21654924861,155130.0,89609.0,3902.0,12.758649224015244
63869.226643116664,155151.0,89606.0,3868.0,12.768743092070508
63869.23673698472,155146.0,89624.0,3906.0,12.778836960125773
63869.246830852775,155162.0,89628.0,3903.0,12.788930828181037
63869.25692472084,155168.0,89621.0,3911.0,12.799024696243578
63869.26701858889,155161.0,89604.0,3899.0,12.809118564298842
63869.27711245695,155197.0,89656.0,3909.0,12.819212432354107
63869.287206325,155150.0,89585.0,3878.0,12.829306300409371
63869.297300193066,155173.0,89621.0,3904.0,12.839400168471911
63869.30739406112,155180.0,89593.0,3910.0,12.849494036527176
63869.31748792918,155182.0,89640.0,3908.0,12.85958790458244
63869.32758179723,155160.0,89610.0,3890.0,12.869681772637705
63869.337675665294,155203.0,89619.0,3910.0,12.879775640700245
63869.34776953335,155213.0,89632.0,3929.0,12.88986950875551
63869.357863401405,155176.0,89606.0,3922.0,12.899963376810774
63869.36795726946,155218.0,89629.0,3914.0,12.910057244866039
63869.378051137515,155224.0,89632.0,3911.0,12.920151112921303
63869.38814500558,155249.0,89644.0,3933.0,12.930244980983844
63869.39823887363,155201.0,89623.0,3917.0,12.940338849039108
63869.40833274169,155233.0,89644.0,3939.0,12.950432717094372
63869.41842660974,155191.0,89646.0,3913.0,12.960526585149637
63869.428520477806,155163.0,89612.0,3913.0,12.970620453212177
63869.43861434586,155089.0,89595.0,3895.0,12.980714321267442
63869.44870821392,155048.0,89581.0,3910.0,12.990808189322706
63869.45880208197,154998.0,89574.0,3868.0,13.00090205737797
63869.468895950034,154934.0,89562.0,3897.0,13.010995925440511
63869.47898981809,154896.0,89569.0,3904.0,13.021089793495776
63869.489083686145,154855.0,89540.0,3840.0,13.03118366155104
63869.4991775542,154832.0,89530.0,3868.0,13.041277529606305
63869.50927142226,154801.0,89493.0,3851.0,13.051371397668845
63869.51936529032,154777.0,89513.0,3847.0,13.06146526572411
63869.52945915837,154807.0,89517.0,3847.0,13.071559133779374
63869.53955302643,154794.0,89535.0,3842.0,13.081653001834638
63869.549646894484,154792.0,89494.0,3855.0,13.091746869889903
63869.55974076255,154807.0,89530.0,3838.0,13.101840737952443
63869.5698346306,154834.0,89547.0,3843.0,13.111934606007708
63869.57992849866,154794.0,89525.0,3862.0,13.122028474062972
63869.59002236671,154829.0,89536.0,3851.0,13.132122342118237
63869.600116234775,154789.0,89540.0,3850.0,13.142216210180777
63869.61021010283,154855.0,89514.0,3857.0,13.152310078236042
63869.620303970885,154803.0,89538.0,3852.0,13.162403946291306
63869.63039783894,154818.0,89536.0,3850.0,13.17249781434657
63869.640491707,154790.0,89530.0,3856.0,13.182591682409111
63869.65058557506,154783.0,89518.0,3843.0,13.192685550464375
63869.66067944311,154762.0,89556.0,3853.0,13.20277941851964
63869.67077331117,154815.0,89539.0,3849.0,13.212873286574904
63869.68086717923,154809.0,89529.0,3825.0,13.222967154637445
63869.69096104729,154809.0,89539.0,3822.0,13.23306102269271
63869.70105491534,154828.0,89545.0,3854.0,13.243154890747974
63869.7111487834,154831.0,89546.0,3841.0,13.253248758803238
63869.72124265145,154803.0,89553.0,3836.0,13.263342626858503
63869.731336519515,154832.0,89560.0,3858.0,13.273436494921043
63869.74143038757,154858.0,89553.0,3853.0,13.283530362976308
63869.751524255626,154811.0,89547.0,3845.0,13.293624231031572
63869.76161812368,154829.0,89553.0,3818.0,13.303718099086836
63869.77171199174,154787.0,89548.0,3856.0,13.313811967149377
63869.7818058598,154794.0,89534.0,3810.0,13.323905835204641
63869.791899727854,154796.0,89539.0,3836.0,13.333999703259906
63869.80199359591,154819.0,89561.0,3843.0,13.34409357131517
63869.81208746397,154771.0,89523.0,3802.0,13.35418743937771
63869.82218133203,154824.0,89555.0,3873.0,13.364281307432975
63869.83227520008,154801.0,89529.0,3840.0,13.37437517548824
63869.84236906814,154775.0,89546.0,3840.0,13.384469043543504
63869.8524629362,154811.0,89519.0,3838.0,13.394562911606045
63869.862556804255,154830.0,89529.0,3859.0,13.404656779661309
63869.87265067231,154830.0,89545.0,3849.0,13.414750647716573
63869.882744540366,154823.0,89536.0,3827.0,13.424844515771838
63869.89283840842,154863.0,89574.0,3862.0,13.434938383827102
63869.90293227648,154841.0,89555.0,3825.0,13.445032251889643
63869.91302614454,154857.0,89540.0,3854.0,13.455126119944907
63869.923120012594,154862.0,89546.0,3843.0,13.465219988000172
63869.93321388065,154879.0,89522.0,3839.0,13.475313856055436
63869.94330774871,154868.0,89534.0,3839.0,13.485407724117977
63869.95340161677,154891.0,89565.0,3853.0,13.495501592173241
63869.96349548482,154867.0,89559.0,3874.0,13.505595460228506
63869.97358935288,154875.0,89537.0,3841.0,13.51568932828377
63869.98368322094,154901.0,89568.0,3852.0,13.52578319634631
63869.993777088996,154901.0,89554.0,3855.0,13.535877064401575
63870.00387095705,154880.0,89546.0,3860.0,13.54597093245684
63870.013964825106,154895.0,89554.0,3856.0,13.556064800512104
63870.02405869316,154876.0,89534.0,3878.0,13.566158668567368
63870.034152561224,154907.0,89558.0,3851.0,13.576252536629909
63870.04424642928,154908.0,89553.0,3876.0,13.586346404685173
63870.054340297334,154935.0,89573.0,3884.0,13.596440272740438
63870.06443416539,154896.0,89548.0,3862.0,13.606534140795702
63870.07452803345,154904.0,89557.0,3860.0,13.616628008858243
63870.08462190151,154948.0,89572.0,3859.0,13.626721876913507
63870.09471576956,154905.0,89542.0,3866.0,13.636815744968771
63870.10480963762,154896.0,89551.0,3848.0,13.646909613024036
63870.11490350568,154948.0,89556.0,3880.0,13.657003481086576
63870.124997373736,154930.0,89581.0,3863.0,13.66709734914184
63870.13509124179,154921.0,89563.0,3857.0,13.677191217197105
63870.145185109846,154966.0,89573.0,3882.0,13.68728508525237
63870.15527897791,154957.0,89553.0,3883.0,13.69737895331491
63870.165372845964,154960.0,89574.0,3870.0,13.707472821370175
63870.17546671402,154929.0,89577.0,3844.0,13.717566689425439
63870.185560582075,154997.0,89591.0,3889.0,13.727660557480704
63870.19565445013,154961.0,89572.0,3854.0,13.737754425535968
63870.20574831819,154966.0,89587.0,3879.0,13.747848293598508
63870.21584218625,155018.0,89587.0,3888.0,13.757942161653773
63870.2259360543,154948.0,89551.0,3865.0,13.768036029709037
63870.23602992236,154956.0,89599.0,3874.0,13.778129897764302
63870.24612379042,154999.0,89588.0,3866.0,13.788223765826842
63870.256217658476,154992.0,89569.0,3852.0,13.798317633882107
63870.26631152653,154994.0,89587.0,3884.0,13.808411501937371
63870.27640539459,155031.0,89598.0,3905.0,13.818505369992636
63870.28649926265,155017.0,89581.0,3878.0,13.828599238055176
63870.296593130704,154973.0,89563.0,3864.0,13.83869310611044
63870.30668699876,154989.0,89620.0,3897.0,13.848786974165705
63870.316780866815,155057.0,89582.0,3878.0,13.85888084222097
63870.32687473488,155048.0,89587.0,3885.0,13.86897471028351
63870.33696860293,155048.0,89593.0,3863.0,13.879068578338774
63870.34706247099,155062.0,89609.0,3899.0,13.889162446394039
63870.35715633904,154988.0,89574.0,3864.0,13.899256314449303
63870.3672502071,155050.0,89591.0,3894.0,13.909350182504568
63870.37734407516,155039.0,89616.0,3905.0,13.919444050567108
63870.387437943216,155042.0,89614.0,3889.0,13.929537918622373
63870.39753181127,155060.0,89594.0,3879.0,13.939631786677637
63870.40762567933,155057.0,89586.0,3887.0,13.949725654732902
63870.41771954739,155016.0,89570.0,3909.0,13.959819522795442
63870.427813415445,154971.0,89570.0,3872.0,13.969913390850706
63870.4379072835,154961.0,89576.0,3897.0,13.980007258905971
63870.448001151555,154880.0,89548.0,3868.0,13.990101126961235
63870.45809501962,154811.0,89535.0,3862.0,14.000194995023776
63870.46818888767,154811.0,89556.0,3839.0,14.01028886307904
63870.47828275573,154749.0,89526.0,3853.0,14.020382731134305
63870.48837662378,154680.0,89480.0,3825.0,14.03047659918957
63870.498470491846,154703.0,89491.0,3823.0,14.04057046725211
63870.5085643599,154701.0,89498.0,3852.0,14.050664335307374
63870.51865822796,154653.0,89493.0,3810.0,14.060758203362639
63870.52875209601,154684.0,89506.0,3816.0,14.070852071417903
63870.53884596407,154703.0,89532.0,3837.0,14.080945939473168
63870.54893983213,154673.0,89499.0,3807.0,14.091039807535708
63870.559033700185,154707.0,89529.0,3839.0,14.101133675590972
63870.56912756824,154696.0,89511.0,3820.0,14.111227543646237
63870.579221436295,154713.0,89498.0,3828.0,14.121321411701501
63870.58931530436,154688.0,89515.0,3805.0,14.131415279764042
63870.59940917241,154725.0,89535.0,3819.0,14.141509147819306
63870.60950304047,154700.0,89519.0,3796.0,14.15160301587457
63870.619596908524,154703.0,89505.0,3840.0,14.161696883929835
63870.629690776586,154694.0,89530.0,3820.0,14.171790751992376
63870.63978464464,154677.0,89480.0,3810.0,14.18188462004764
63870.6498785127,154687.0,89518.0,3806.0,14.191978488102905
63870.65997238075,154690.0,89495.0,3809.0,14.202072356158169
63870.670066248815,154696.0,89499.0,3821.0,14.21216622422071
63870.68016011687,154688.0,89499.0,3809.0,14.222260092275974
63870.690253984925,154721.0,89525.0,3839.0,14.232353960331238
63870.70034785298,154719.0,89545.0,3819.0,14.242447828386503
63870.710441721036,154721.0,89493.0,3824.0,14.252541696441767
63870.7205355891,154686.0,89495.0,3792.0,14.262635564504308
63870.73062945715,154738.0,89533.0,3820.0,14.272729432559572
63870.74072332521,154698.0,89525.0,3815.0,14.282823300614837
63870.750817193264,154672.0,89493.0,3804.0,14.292917168670101
63870.76091106133,154691.0,89536.0,3838.0,14.303011036732642
63870.77100492938,154655.0,89489.0,3792.0,14.313104904787906
63870.78109879744,154680.0,89504.0,3806.0,14.32319877284317
63870.79119266549,154652.0,89473.0,3800.0,14.333292640898435
63870.801286533555,154703.0,89530.0,3823.0,14.343386508960975
63870.81138040161,154671.0,89501.0,3795.0,14.35348037701624
63870.821474269665,154698.0,89501.0,3814.0,14.363574245071504
63870.83156813772,154706.0,89500.0,3825.0,14.373668113126769
63870.84166200578,154683.0,89491.0,3808.0,14.38376198118931
63870.85175587384,154738.0,89528.0,3834.0,14.393855849244574
63870.861849741894,154729.0,89522.0,3812.0,14.403949717299838
63870.87194360995,154728.0,89507.0,3807.0,14.414043585355103
63870.882037478004,154698.0,89519.0,3800.0,14.424137453410367
63870.89213134607,154771.0,89534.0,3867.0,14.434231321472907
63870.90222521412,154746.0,89519.0,3816.0,14.444325189528172
63870.91231908218,154739.0,89514.0,3818.0,14.454419057583436
63870.92241295023,154768.0,89507.0,3815.0,14.4645129256387
63870.932506818295,154754.0,89506.0,3822.0,14.474606793701241
63870.94260068635,154779.0,89535.0,3825.0,14.484700661756506
63870.952694554406,154749.0,89542.0,3810.0,14.49479452981177
63870.96278842246,154767.0,89510.0,3843.0,14.504888397867035
63870.97288229052,154797.0,89519.0,3816.0,14.514982265929575
63870.98297615858,154805.0,89527.0,3837.0,14.52507613398484
63870.993070026634,154824.0,89541.0,3830.0,14.535170002040104
63871.00316389469,154800.0,89536.0,3835.0,14.545263870095368
63871.013257762745,154796.0,89531.0,3817.0,14.555357738150633
63871.02335163081,154845.0,89571.0,3853.0,14.565451606213173
63871.03344549886,154871.0,89533.0,3858.0,14.575545474268438
63871.04353936692,154828.0,89519.0,3831.0,14.585639342323702
63871.05363323497,154843.0,89526.0,3824.0,14.595733210378967
63871.063727103035,154855.0,89539.0,3839.0,14.605827078441507
63871.07382097109,154841.0,89529.0,3820.0,14.615920946496772
63871.083914839146,154829.0,89560.0,3826.0,14.626014814552036
63871.0940087072,154863.0,89525.0,3827.0,14.6361086826073
63871.104102575264,154860.0,89547.0,3847.0,14.646202550669841
63871.11419644332,154895.0,89560.0,3813.0,14.656296418725105
63871.124290311374,154907.0,89561.0,3863.0,14.66639028678037
63871.13438417943,154853.0,89536.0,3838.0,14.676484154835634
63871.14447804749,154881.0,89553.0,3848.0,14.686578022898175
63871.15457191555,154918.0,89559.0,3874.0,14.69667189095344
63871.1646657836,154875.0,89523.0,3825.0,14.706765759008704
63871.17475965166,154922.0,89567.0,3836.0,14.716859627063968
63871.18485351971,154915.0,89550.0,3851.0,14.726953495119233
63871.194947387776,154920.0,89562.0,3860.0,14.737047363181773
63871.20504125583,154933.0,89556.0,3850.0,14.747141231237038
63871.215135123886,154936.0,89588.0,3863.0,14.757235099292302
63871.22522899194,154933.0,89570.0,3831.0,14.767328967347567
63871.235322860004,154956.0,89539.0,3858.0,14.777422835410107
63871.24541672806,154953.0,89564.0,3841.0,14.787516703465371
63871.255510596115,154967.0,89560.0,3845.0,14.797610571520636
63871.26560446417,155011.0,89569.0,3882.0,14.8077044395759
63871.27569833223,154985.0,89573.0,3857.0,14.81779830763844
63871.28579220029,154987.0,89576.0,3859.0,14.827892175693705
63871.29588606834,154937.0,89553.0,3839.0,14.83798604374897
63871.3059799364,154968.0,89572.0,3844.0,14.848079911804234
63871.31607380446,154895.0,89554.0,3854.0,14.858173779866775
63871.326167672516,154814.0,89534.0,3881.0,14.868267647922039
63871.33626154057,154791.0,89510.0,3829.0,14.878361515977303
63871.34635540863,154785.0,89536.0,3856.0,14.888455384032568
63871.35644927668,154714.0,89501.0,3827.0,14.898549252087832
63871.366543144744,154661.0,89473.0,3820.0,14.908643120150373
63871.3766370128,154642.0,89477.0,3803.0,14.918736988205637
63871.386730880855,154661.0,89491.0,3814.0,14.928830856260902
63871.39682474891,154653.0,89494.0,3816.0,14.938924724316166
63871.40691861697,154668.0,89486.0,3804.0,14.949018592378707
63871.41701248503,154699.0,89514.0,3831.0,14.959112460433971
63871.42710635308,154637.0,89464.0,3789.0,14.969206328489236
63871.43720022114,154678.0,89503.0,3803.0,14.9793001965445
63871.4472940892,154716.0,89520.0,3778.0,14.98939406460704
63871.457387957256,154666.0,89515.0,3803.0,14.999487932662305
63871.46748182531,154705.0,89515.0,3797.0,15.00958180071757
63871.47757569337,154702.0,89518.0,3806.0,15.019675668772834
63871.48766956142,154702.0,89512.0,3817.0,15.029769536828098
63871.497763429485,154698.0,89505.0,3803.0,15.039863404890639
63871.50785729754,154726.0,89538.0,3815.0,15.049957272945903
63871.517951165595,154711.0,89510.0,3808.0,15.060051141001168
63871.52804503365,154698.0,89499.0,3818.0,15.070145009056432
63871.53813890171,154743.0,89526.0,3830.0,15.080238877118973
63871.54823276977,154713.0,89505.0,3795.0,15.090332745174237
63871.55832663782,154735.0,89526.0,3807.0,15.100426613229502
63871.56842050588,154710.0,89503.0,3801.0,15.110520481284766
63871.57851437394,154715.0,89495.0,3792.0,15.120614349347306
63871.588608242,154740.0,89517.0,3786.0,15.13070821740257
63871.59870211005,154752.0,89532.0,3815.0,15.140802085457835
63871.60879597811,154736.0,89520.0,3815.0,15.1508959535131
63871.61888984617,154738.0,89518.0,3826.0,15.16098982157564
63871.628983714225,154753.0,89524.0,3805.0,15.171083689630905
63871.63907758228,154716.0,89531.0,3808.0,15.18117755768617
63871.649171450335,154750.0,89545.0,3826.0,15.191271425741434
63871.65926531839,154702.0,89518.0,3787.0,15.201365293796698
63871.66935918645,154739.0,89536.0,3850.0,15.211459161859239
63871.67945305451,154738.0,89527.0,3809.0,15.221553029914503
63871.689546922564,154727.0,89556.0,3775.0,15.231646897969767
63871.69964079062,154752.0,89512.0,3813.0,15.241740766025032
63871.70973465868,154750.0,89531.0,3827.0,15.251834634087572
63871.71982852674,154756.0,89531.0,3791.0,15.261928502142837
63871.72992239479,154736.0,89527.0,3816.0,15.272022370198101
63871.74001626285,154796.0,89555.0,3838.0,15.282116238253366
63871.75011013091,154755.0,89516.0,3812.0,15.292210106315906
63871.760203998965,154787.0,89546.0,3845.0,15.30230397437117
63871.77029786702,154794.0,89552.0,3817.0,15.312397842426435
63871.780391735076,154764.0,89519.0,3814.0,15.3224917104817
63871.79048560314,154809.0,89544.0,3822.0,15.33258557854424
63871.80057947119,154838.0,89553.0,3827.0,15.342679446599504
63871.81067333925,154829.0,89564.0,3823.0,15.352773314654769
63871.820767207304,154813.0,89536.0,3822.0,15.362867182710033
63871.83086107536,154863.0,89563.0,3842.0,15.372961050765298
63871.84095494342,154817.0,89534.0,3826.0,15.383054918827838
63871.85104881148,154855.0,89554.0,3831.0,15.393148786883103
63871.86114267953,154857.0,89533.0,3835.0,15.403242654938367
63871.87123654759,154825.0,89537.0,3803.0,15.413336522993632
63871.88133041565,154871.0,89579.0,3844.0,15.423430391056172
63871.891424283705,154872.0,89575.0,3837.0,15.433524259111437
63871.90151815176,154880.0,89547.0,3845.0,15.443618127166701
63871.911612019816,154890.0,89584.0,3830.0,15.453711995221965
63871.92170588788,154921.0,89562.0,3831.0,15.463805863284506
63871.931799755934,154892.0,89556.0,3849.0,15.47389973133977
63871.94189362399,154903.0,89547.0,3844.0,15.483993599395035
63871.951987492044,154904.0,89558.0,3867.0,15.4940874674503
63871.96208136011,154892.0,89553.0,3824.0,15.50418133551284
63871.97217522816,154906.0,89560.0,3844.0,15.514275203568104
63871.98226909622,154941.0,89586.0,3858.0,15.524369071623369
63871.99236296427,154923.0,89548.0,3836.0,15.534462939678633
63872.00245683233,154893.0,89555.0,3836.0,15.544556807733898
63872.01255070039,154937.0,89578.0,3849.0,15.554650675796438
63872.022644568446,154937.0,89575.0,3835.0,15.564744543851702
63872.0327384365,154929.0,89561.0,3831.0,15.574838411906967
63872.042832304556,154931.0,89546.0,3864.0,15.584932279962231
63872.05292617262,154949.0,89573.0,3857.0,15.595026148024772
63872.063020040674,154930.0,89607.0,3847.0,15.605120016080036
63872.07311390873,154964.0,89592.0,3874.0,15.6152138841353
63872.083207776785,154964.0,89567.0,3853.0,15.625307752190565
63872.09330164485,154997.0,89559.0,3886.0,15.635401620253106
63872.1033955129,154959.0,89589.0,3887.0,15.64549548830837
63872.11348938096,154940.0,89593.0,3876.0,15.655589356363635
63872.12358324901,154886.0,89560.0,3840.0,15.665683224418899
63872.133677117075,154853.0,89563.0,3850.0,15.67577709248144
63872.14377098513,154787.0,89541.0,3825.0,15.685870960536704
63872.153864853186,154753.0,89524.0,3818.0,15.695964828591968
63872.16395872124,154729.0,89512.0,3844.0,15.706058696647233
63872.1740525893,154684.0,89524.0,3819.0,15.716152564702497
63872.18414645736,154646.0,89477.0,3811.0,15.726246432765038
63872.194240325414,154644.0,89536.0,3813.0,15.736340300820302
63872.20433419347,154698.0,89541.0,3824.0,15.746434168875567
63872.214428061525,154657.0,89513.0,3810.0,15.756528036930831
63872.22452192959,154698.0,89540.0,3796.0,15.766621904993372
63872.23461579764,154622.0,89502.0,3789.0,15.776715773048636
63872.2447096657,154636.0,89493.0,3814.0,15.7868096411039
63872.25480353375,154679.0,89518.0,3805.0,15.796903509159165
63872.264897401816,154690.0,89567.0,3816.0,15.806997377221705
63872.27499126987,154666.0,89517.0,3800.0,15.81709124527697
63872.285085137926,154681.0,89526.0,3804.0,15.827185113332234
63872.29517900598,154698.0,89531.0,3843.0,15.837278981387499
63872.305272874044,154717.0,89555.0,3800.0,15.84737284945004
63872.3153667421,154737.0,89521.0,3830.0,15.857466717505304
63872.325460610155,154682.0,89496.0,3812.0,15.867560585560568
63872.33555447821,154706.0,89530.0,3788.0,15.877654453615833
63872.345648346265,154752.0,89524.0,3812.0,15.887748321671097
63872.35574221433,154756.0,89553.0,3817.0,15.897842189733637
63872.36583608238,154770.0,89559.0,3805.0,15.907936057788902
63872.37592995044,154727.0,89536.0,3799.0,15.918029925844166
63872.38602381849,154771.0,89551.0,3817.0,15.928123793899431
63872.396117686556,154787.0,89568.0,3827.0,15.938217661961971
63872.40621155461,154802.0,89575.0,3819.0,15.948311530017236
63872.41630542267,154802.0,89575.0,3833.0,15.9584053980725
63872.42639929072,154776.0,89548.0,3822.0,15.968499266127765
63872.436493158784,154755.0,89571.0,3816.0,15.978593134190305
63872.44658702684,154763.0,89546.0,3818.0,15.98868700224557
63872.456680894895,154804.0,89580.0,3849.0,15.998780870300834
63872.46677476295,154763.0,89546.0,3820.0,16.0088747383561
63872.47686863101,154789.0,89556.0,3814.0,16.01896860641864
63872.48696249907,154809.0,89590.0,3821.0,16.029062474473903
63872.49705636712,154755.0,89548.0,3791.0,16.039156342529168
63872.50715023518,154791.0,89557.0,3829.0,16.049250210584432
63872.517244103234,154797.0,89543.0,3803.0,16.059344078639697
63872.527337971296,154820.0,89574.0,3856.0,16.069437946702237
63872.53743183935,154838.0,89572.0,3862.0,16.0795318147575
63872.54752570741,154845.0,89570.0,3829.0,16.089625682812766
63872.55761957546,154883.0,89590.0,3821.0,16.09971955086803
63872.567713443525,154853.0,89565.0,3813.0,16.10981341893057
63872.57780731158,154895.0,89583.0,3839.0,16.119907286985836
63872.587901179635,154879.0,89591.0,3843.0,16.1300011550411
63872.59799504769,154903.0,89578.0,3848.0,16.140095023096364
63872.60808891575,154900.0,89550.0,3854.0,16.150188891158905
63872.61818278381,154866.0,89565.0,3846.0,16.16028275921417
63872.62827665186,154866.0,89590.0,3828.0,16.170376627269434
63872.63837051992,154930.0,89589.0,3865.0,16.1804704953247
63872.64846438798,154934.0,89593.0,3864.0,16.19056436338724
63872.65855825604,154915.0,89568.0,3846.0,16.200658231442503
63872.66865212409,154941.0,89594.0,3864.0,16.210752099497768
63872.67874599215,154935.0,89579.0,3862.0,16.220845967553032
63872.6888398602,154925.0,89624.0,3871.0,16.230939835608297
63872.698933728265,154931.0,89599.0,3848.0,16.241033703670837
63872.70902759632,154963.0,89610.0,3870.0,16.2511275717261
63872.719121464375,154937.0,89603.0,3846.0,16.261221439781366
63872.72921533243,154985.0,89591.0,3881.0,16.27131530783663
63872.73930920049,154953.0,89605.0,3859.0,16.28140917589917
63872.74940306855,154979.0,89615.0,3867.0,16.291503043954435
63872.759496936604,154961.0,89653.0,3871.0,16.3015969120097
63872.76959080466,154978.0,89600.0,3853.0,16.311690780064964
63872.77968467272,155006.0,89629.0,3899.0,16.321784648127505
63872.78977854078,154995.0,89620.0,3880.0,16.33187851618277
63872.79987240883,155007.0,89617.0,3860.0,16.341972384238034
63872.80996627689,155051.0,89629.0,3911.0,16.352066252293298
63872.82006014494,155026.0,89604.0,3880.0,16.362160120348562
63872.830154013005,155042.0,89626.0,3880.0,16.372253988411103
63872.84024788106,155060.0,89614.0,3889.0,16.382347856466367
63872.850341749116,155052.0,89642.0,3899.0,16.392441724521632
63872.86043561717,155046.0,89624.0,3876.0,16.402535592576896
63872.87052948523,155061.0,89635.0,3872.0,16.412629460639437
63872.88062335329,155020.0,89626.0,3887.0,16.4227233286947
63872.890717221344,155008.0,89613.0,3903.0,16.432817196749966
63872.9008110894,154975.0,89630.0,3883.0,16.44291106480523
63872.91090495746,154956.0,89605.0,3868.0,16.45300493286777
63872.92099882552,154893.0,89583.0,3873.0,16.463098800923035
63872.93109269357,154842.0,89592.0,3836.0,16.4731926689783
63872.94118656163,154755.0,89569.0,3839.0,16.483286537033564
63872.95128042969,154734.0,89543.0,3831.0,16.493380405096104
63872.961374297745,154716.0,89551.0,3847.0,16.50347427315137
63872.9714681658,154690.0,89577.0,3827.0,16.513568141206633
63872.981562033856,154661.0,89544.0,3824.0,16.523662009261898
63872.99165590191,154678.0,89549.0,3802.0,16.533755877317162
63873.001749769974,154688.0,89550.0,3828.0,16.543849745379703
63873.01184363803,154672.0,89569.0,3816.0,16.553943613434967
63873.021937506084,154712.0,89563.0,3852.0,16.56403748149023
63873.03203137414,154721.0,89586.0,3865.0,16.574131349545496
63873.0421252422,154705.0,89552.0,3831.0,16.584225217608036
63873.05221911026,154705.0,89583.0,3850.0,16.5943190856633
63873.06231297831,154725.0,89570.0,3794.0,16.604412953718565
63873.07240684637,154720.0,89551.0,3818.0,16.61450682177383
63873.08250071443,154721.0,89555.0,3831.0,16.62460068983637
63873.092594582486,154722.0,89567.0,3814.0,16.634694557891635
63873.10268845054,154743.0,89590.0,3854.0,16.6447884259469
63873.112782318596,154702.0,89556.0,3815.0,16.654882294002164
63873.12287618666,154738.0,89565.0,3837.0,16.664976162064704
63873.132970054714,154775.0,89599.0,3829.0,16.67507003011997
63873.14306392277,154746.0,89606.0,3829.0,16.685163898175233
63873.153157790824,154779.0,89576.0,3822.0,16.695257766230498
63873.16325165888,154769.0,89597.0,3858.0,16.705351634285762
63873.17334552694,154790.0,89545.0,3860.0,16.715445502348302
63873.183439395,154760.0,89547.0,3821.0,16.725539370403567
63873.19353326305,154807.0,89591.0,3842.0,16.73563323845883
63873.20362713111,154775.0,89571.0,3840.0,16.745727106514096
63873.21372099917,154753.0,89555.0,3832.0,16.755820974576636
63873.223814867226,154780.0,89611.0,3855.0,16.7659148426319
63873.23390873528,154761.0,89549.0,3838.0,16.776008710687165
63873.24400260334,154775.0,89575.0,3839.0,16.78610257874243
63873.2540964714,154765.0,89547.0,3840.0,16.79619644680497
63873.264190339454,154801.0,89599.0,3865.0,16.806290314860235
63873.27428420751,154764.0,89575.0,3831.0,16.8163841829155
63873.284378075565,154793.0,89584.0,3843.0,16.826478050970763
63873.29447194362,154810.0,89585.0,3876.0,16.836571919026028
63873.30456581168,154767.0,89566.0,3852.0,16.84666578708857
63873.31465967974,154819.0,89566.0,3854.0,16.856759655143833
63873.32475354779,154817.0,89601.0,3847.0,16.866853523199097
63873.33484741585,154809.0,89583.0,3865.0,16.87694739125436
63873.34494128391,154805.0,89587.0,3865.0,16.887041259316902
63873.355035151966,154868.0,89617.0,3883.0,16.897135127372167
63873.36512902002,154855.0,89609.0,3853.0,16.90722899542743
63873.37522288808,154875.0,89587.0,3842.0,16.917322863482696
63873.38531675614,154904.0,89592.0,3855.0,16.927416731545236
63873.395410624194,154856.0,89582.0,3860.0,16.9375105996005
63873.40550449225,154904.0,89611.0,3858.0,16.947604467655765
63873.415598360305,154896.0,89611.0,3875.0,16.95769833571103
63873.42569222837,154897.0,89593.0,3861.0,16.96779220377357
63873.43578609642,154918.0,89622.0,3859.0,16.977886071828834
63873.44587996448,154917.0,89602.0,3842.0,16.9879799398841
63873.45597383253,154901.0,89598.0,3871.0,16.998073807939363
63873.46606770059,154895.0,89580.0,3863.0,17.008167675994628
63873.47616156865,154920.0,89632.0,3870.0,17.018261544057168
63873.48625543671,154964.0,89631.0,3898.0,17.028355412112433
63873.49634930476,154955.0,89621.0,3874.0,17.038449280167697
63873.50644317282,154968.0,89615.0,3861.0,17.04854314822296
63873.51653704088,154984.0,89647.0,3891.0,17.058637016285502
63873.526630908935,154941.0,89609.0,3890.0,17.068730884340766
63873.53672477699,154981.0,89638.0,3890.0,17.07882475239603
63873.546818645045,154978.0,89649.0,3883.0,17.088918620451295
63873.55691251311,154971.0,89637.0,3872.0,17.099012488513836
63873.56700638116,154958.0,89614.0,3847.0,17.1091063565691
63873.57710024922,154996.0,89639.0,3882.0,17.119200224624365
63873.58719411727,155012.0,89654.0,3904.0,17.12929409267963
63873.597287985336,154983.0,89594.0,3875.0,17.13938796074217
63873.60738185339,154996.0,89641.0,3902.0,17.149481828797434
63873.61747572145,155023.0,89635.0,3890.0,17.1595756968527
63873.6275695895,155036.0,89635.0,3870.0,17.169669564907963
63873.63766345756,155039.0,89658.0,3874.0,17.179763432963227
63873.64775732562,154984.0,89620.0,3871.0,17.189857301025768
63873.657851193675,154961.0,89624.0,3881.0,17.199951169081032
63873.66794506173,154901.0,89599.0,3860.0,17.210045037136297
63873.678038929786,154867.0,89612.0,3897.0,17.22013890519156
63873.68813279785,154767.0,89570.0,3826.0,17.2302327732541
63873.6982266659,154749.0,89562.0,3830.0,17.240326641309366
63873.70832053396,154729.0,89579.0,3833.0,17.25042050936463
63873.718414402014,154640.0,89565.0,3871.0,17.260514377419895
63873.72850827008,154649.0,89546.0,3821.0,17.270608245482435
63873.73860213813,154671.0,89559.0,3831.0,17.2807021135377
63873.74869600619,154681.0,89577.0,3847.0,17.290795981592964
63873.75878987424,154641.0,89548.0,3822.0,17.30088984964823
63873.768883742305,154693.0,89579.0,3820.0,17.31098371771077
63873.77897761036,154663.0,89564.0,3820.0,17.321077585766034
63873.789071478415,154645.0,89553.0,3853.0,17.331171453821298
63873.79916534647,154678.0,89556.0,3834.0,17.341265321876563
63873.809259214526,154706.0,89547.0,3847.0,17.351359189931827
63873.81935308259,154693.0,89567.0,3824.0,17.361453057994368
63873.82944695064,154681.0,89579.0,3829.0,17.371546926049632
63873.8395408187,154680.0,89570.0,3850.0,17.381640794104896
63873.849634686754,154692.0,89540.0,3811.0,17.39173466216016
63873.85972855482,154701.0,89570.0,3826.0,17.4018285302227
63873.86982242287,154739.0,89559.0,3849.0,17.411922398277966
63873.87991629093,154688.0,89542.0,3841.0,17.42201626633323
63873.89001015898,154721.0,89566.0,3822.0,17.432110134388495
63873.900104027045,154750.0,89587.0,3832.0,17.442204002451035
63873.9101978951,154767.0,89600.0,3852.0,17.4522978705063
63873.920291763156,154736.0,89565.0,3813.0,17.462391738561564
63873.93038563121,154799.0,89604.0,3858.0,17.47248560661683
63873.94047949927,154765.0,89583.0,3832.0,17.48257947467937
63873.95057336733,154747.0,89544.0,3833.0,17.492673342734633
63873.960667235384,154783.0,89616.0,3857.0,17.502767210789898
63873.97076110344,154718.0,89565.0,3850.0,17.512861078845162
63873.980854971494,154731.0,89573.0,3806.0,17.522954946900427
63873.99094883956,154719.0,89560.0,3828.0,17.533048814962967
63874.00104270761,154762.0,89598.0,3855.0,17.54314268301823
63874.01113657567,154742.0,89565.0,3822.0,17.553236551073496
63874.02123044372,154749.0,89574.0,3837.0,17.56333041912876
63874.031324311785,154749.0,89575.0,3826.0,17.5734242871913
63874.04141817984,154726.0,89560.0,3814.0,17.583518155246566
63874.051512047896,154736.0,89576.0,3817.0,17.59361202330183
63874.06160591595,154738.0,89575.0,3824.0,17.603705891357095
63874.07169978401,154765.0,89581.0,3835.0,17.613799759419635
63874.08179365207,154754.0,89552.0,3838.0,17.6238936274749
63874.091887520124,154785.0,89564.0,3833.0,17.633987495530164
63874.10198138818,154784.0,89594.0,3855.0,17.64408136358543
63874.11207525624,154791.0,89581.0,3839.0,17.65417523164797
63874.1221691243,154799.0,89577.0,3821.0,17.664269099703233
63874.13226299235,154840.0,89607.0,3850.0,17.674362967758498
63874.14235686041,154818.0,89584.0,3843.0,17.684456835813762
63874.15245072846,154851.0,89602.0,3846.0,17.694550703869027
63874.162544596526,154849.0,89584.0,3905.0,17.704644571931567
63874.17263846458,154831.0,89577.0,3844.0,17.71473843998683
63874.182732332636,154844.0,89598.0,3832.0,17.724832308042096
63874.19282620069,154875.0,89610.0,3858.0,17.73492617609736
63874.202920068754,154907.0,89592.0,3876.0,17.7450200441599
63874.21301393681,154887.0,89614.0,3851.0,17.755113912215165
63874.223107804864,154918.0,89617.0,3855.0,17.76520778027043
63874.23320167292,154882.0,89590.0,3878.0,17.775301648325694
63874.24329554098,154867.0,89607.0,3858.0,17.785395516388235
63874.25338940904,154909.0,89633.0,3875.0,17.7954893844435
63874.26348327709,154885.0,89638.0,3840.0,17.805583252498764
63874.27357714515,154933.0,89622.0,3857.0,17.815677120554028
63874.28367101321,154936.0,89618.0,3864.0,17.82577098861657
63874.293764881266,154968.0,89646.0,3886.0,17.835864856671833
63874.30385874932,154926.0,89589.0,3843.0,17.845958724727097
63874.313952617376,154953.0,89628.0,3869.0,17.856052592782362
63874.32404648543,154953.0,89659.0,3887.0,17.866146460837626
63874.334140353494,154957.0,89608.0,3878.0,17.876240328900167
63874.34423422155,154970.0,89647.0,3862.0,17.88633419695543
63874.354328089605,154937.0,89624.0,3864.0,17.896428065010696
63874.36442195766,154879.0,89600.0,3893.0,17.90652193306596
63874.37451582572,154864.0,89600.0,3852.0,17.9166158011285
63874.38460969378,154792.0,89600.0,3857.0,17.926709669183765
63874.39470356183,154751.0,89578.0,3850.0,17.93680353723903
63874.40479742989,154747.0,89547.0,3828.0,17.946897405294294
63874.41489129795,154669.0,89564.0,3809.0,17.956991273356834
63874.424985166006,154636.0,89559.0,3841.0,17.9670851414121
63874.43507903406,154618.0,89549.0,3835.0,17.977179009467363
63874.44517290212,154603.0,89529.0,3798.0,17.987272877522628
63874.45526677017,154605.0,89543.0,3816.0,17.997366745577892
63874.465360638234,154599.0,89521.0,3804.0,18.007460613640433
63874.47545450629,154613.0,89551.0,3803.0,18.017554481695697
63874.485548374345,154617.0,89559.0,3779.0,18.02764834975096
63874.4956422424,154568.0,89508.0,3818.0,18.037742217806226
63874.50573611046,154609.0,89542.0,3805.0,18.047836085868767
63874.51582997852,154615.0,89537.0,3815.0,18.05792995392403
63874.52592384657,154639.0,89542.0,3801.0,18.068023821979295
63874.53601771463,154613.0,89541.0,3794.0,18.07811769003456
63874.54611158269,154673.0,89545.0,3819.0,18.0882115580971
63874.556205450746,154644.0,89549.0,3811.0,18.098305426152365
63874.5662993188,154642.0,89538.0,3831.0,18.10839929420763
63874.57639318686,154673.0,89590.0,3833.0,18.118493162262894
63874.58648705492,154684.0,89585.0,3825.0,18.128587030325434
63874.596580922975,154646.0,89564.0,3798.0,18.1386808983807
63874.60667479103,154714.0,89547.0,3816.0,18.148774766435963
63874.616768659085,154720.0,89597.0,3792.0,18.158868634491228
63874.62686252714,154700.0,89560.0,3813.0,18.168962502546492
63874.6369563952,154695.0,89562.0,3824.0,18.179056370609032
63874.64705026326,154701.0,89582.0,3822.0,18.189150238664297
63874.65714413131,154680.0,89561.0,3808.0,18.19924410671956
63874.66723799937,154730.0,89560.0,3831.0,18.209337974774826
63874.67733186743,154707.0,89593.0,3830.0,18.219431842837366
63874.68742573549,154700.0,89567.0,3817.0,18.22952571089263
63874.69751960354,154686.0,89542.0,3833.0,18.239619578947895
63874.7076134716,154700.0,89595.0,3831.0,18.24971344700316
63874.71770733966,154710.0,89550.0,3843.0,18.2598073150657
63874.727801207715,154703.0,89571.0,3817.0,18.269901183120965
63874.73789507577,154664.0,89544.0,3805.0,18.27999505117623
63874.747988943825,154716.0,89585.0,3834.0,18.290088919231493
63874.75808281189,154682.0,89566.0,3794.0,18.300182787294034
63874.76817667994,154719.0,89579.0,3822.0,18.3102766553493
63874.778270548,154722.0,89566.0,3849.0,18.320370523404563
63874.788364416054,154702.0,89543.0,3807.0,18.330464391459827
63874.79845828411,154728.0,89545.0,3817.0,18.340558259515092
63874.80855215217,154744.0,89576.0,3833.0,18.350652127577632
63874.81864602023,154761.0,89611.0,3847.0,18.360745995632897
63874.82873988828,154724.0,89583.0,3806.0,18.37083986368816
63874.83883375634,154806.0,89621.0,3846.0,18.380933731743426
63874.8489276244,154779.0,89592.0,3844.0,18.391027599805966
63874.859021492455,154788.0,89589.0,3799.0,18.40112146786123
63874.86911536051,154818.0,89599.0,3841.0,18.411215335916495
63874.879209228566,154802.0,89585.0,3824.0,18.42130920397176
63874.88930309663,154813.0,89596.0,3839.0,18.4314030720343
63874.89939696468,154804.0,89603.0,3870.0,18.441496940089564
63874.90949083274,154795.0,89583.0,3836.0,18.45159080814483
63874.919584700794,154822.0,89568.0,3835.0,18.461684676200093
63874.92967856885,154843.0,89600.0,3841.0,18.471778544255358
63874.93977243691,154842.0,89594.0,3843.0,18.481872412317898
63874.94986630497,154857.0,89621.0,3862.0,18.491966280373163
63874.95996017302,154835.0,89629.0,3862.0,18.502060148428427
63874.97005404108,154870.0,89605.0,3857.0,18.51215401648369
63874.98014790914,154861.0,89609.0,3844.0,18.522247884546232
63874.990241777195,154872.0,89596.0,3853.0,18.532341752601496
63875.00033564525,154920.0,89616.0,3872.0,18.54243562065676
63875.010429513306,154890.0,89609.0,3858.0,18.552529488712025
63875.02052338137,154885.0,89633.0,3852.0,18.562623356774566
63875.030617249424,154905.0,89654.0,3873.0,18.57271722482983
63875.04071111748,154871.0,89604.0,3850.0,18.582811092885095
63875.050804985534,154820.0,89599.0,3851.0,18.59290496094036
63875.0608988536,154781.0,89567.0,3842.0,18.6029988290029
63875.07099272165,154740.0,89579.0,3868.0,18.613092697058164
63875.08108658971,154683.0,89580.0,3837.0,18.62318656511343
63875.09118045776,154638.0,89552.0,3820.0,18.633280433168693
63875.10127432582,154598.0,89558.0,3799.0,18.643374301223957
63875.11136819388,154594.0,89496.0,3805.0,18.653468169286498
63875.121462061936,154542.0,89526.0,3784.0,18.663562037341762
63875.13155592999,154555.0,89527.0,3799.0,18.673655905397027
63875.141649798046,154525.0,89527.0,3804.0,18.68374977345229
63875.15174366611,154508.0,89509.0,3776.0,18.69384364151483
63875.161837534164,154548.0,89530.0,3806.0,18.703937509570096
63875.17193140222,154521.0,89550.0,3801.0,18.71403137762536
63875.182025270275,154557.0,89534.0,3794.0,18.724125245680625
63875.19211913834,154570.0,89553.0,3810.0,18.734219113743166
63875.20221300639,154580.0,89549.0,3818.0,18.74431298179843
63875.21230687445,154586.0,89550.0,3789.0,18.754406849853694
63875.2224007425,154583.0,89551.0,3795.0,18.76450071790896
63875.232494610565,154589.0,89537.0,3791.0,18.7745945859715
63875.24258847862,154592.0,89577.0,3796.0,18.784688454026764
63875.252682346676,154607.0,89548.0,3772.0,18.79478232208203
63875.26277621473,154624.0,89560.0,3792.0,18.804876190137293
63875.27287008279,154636.0,89550.0,3815.0,18.814970058192557
63875.28296395085,154679.0,89576.0,3826.0,18.825063926255098
63875.293057818904,154679.0,89582.0,3832.0,18.835157794310362
63875.30315168696,154657.0,89590.0,3791.0,18.845251662365627
63875.313245555015,154636.0,89529.0,3777.0,18.85534553042089
63875.32333942308,154641.0,89553.0,3798.0,18.86543939848343
63875.33343329113,154652.0,89554.0,3833.0,18.875533266538696
63875.34352715919,154645.0,89555.0,3805.0,18.88562713459396
63875.35362102724,154617.0,89543.0,3816.0,18.895721002649225
63875.363714895306,154630.0,89544.0,3782.0,18.905814870711765
63875.37380876336,154642.0,89540.0,3797.0,18.91590873876703
63875.383902631416,154634.0,89548.0,3791.0,18.926002606822294
63875.39399649947,154639.0,89592.0,3816.0,18.93609647487756
63875.404090367534,154662.0,89570.0,3822.0,18.9461903429401
63875.41418423559,154632.0,89558.0,3798.0,18.956284210995364
63875.424278103645,154645.0,89562.0,3797.0,18.966378079050628
63875.4343719717,154620.0,89517.0,3775.0,18.976471947105892
63875.444465839755,154638.0,89545.0,3778.0,18.986565815161157
63875.45455970782,154678.0,89585.0,3788.0,18.996659683223697
63875.46465357587,154680.0,89550.0,3810.0,19.006753551278962
63875.47474744393,154677.0,89558.0,3811.0,19.016847419334226
63875.48484131198,154709.0,89600.0,3822.0,19.02694128738949
63875.494935180046,154701.0,89557.0,3802.0,19.03703515545203
63875.5050290481,154721.0,89568.0,3807.0,19.047129023507296
63875.51512291616,154715.0,89559.0,3791.0,19.05722289156256
63875.52521678421,154774.0,89596.0,3821.0,19.067316759617825
63875.535310652274,154731.0,89582.0,3840.0,19.077410627680365
63875.54540452033,154761.0,89583.0,3821.0,19.08750449573563
63875.555498388385,154794.0,89572.0,3844.0,19.097598363790894
63875.56559225644,154790.0,89554.0,3834.0,19.10769223184616
63875.5756861245,154785.0,89613.0,3849.0,19.1177860999087
63875.58577999256,154789.0,89582.0,3826.0,19.127879967963963
63875.59587386061,154760.0,89560.0,3806.0,19.137973836019228
63875.60596772867,154807.0,89588.0,3810.0,19.148067704074492
63875.616061596724,154822.0,89592.0,3816.0,19.158161572129757
63875.626155464786,154821.0,89591.0,3830.0,19.168255440192297
63875.63624933284,154848.0,89588.0,3855.0,19.17834930824756
63875.6463432009,154839.0,89570.0,3825.0,19.188443176302826
63875.65643706895,154874.0,89622.0,3853.0,19.19853704435809
63875.666530937015,154843.0,89597.0,3831.0,19.20863091242063
63875.67662480507,154826.0,89619.0,3841.0,19.218724780475895
63875.686718673125,154852.0,89617.0,3862.0,19.22881864853116
63875.69681254118,154790.0,89590.0,3817.0,19.238912516586424
63875.70690640924,154724.0,89563.0,3804.0,19.249006384648965
63875.7170002773,154718.0,89558.0,3833.0,19.25910025270423
63875.72709414535,154642.0,89558.0,3790.0,19.269194120759494
63875.73718801341,154557.0,89525.0,3787.0,19.279287988814758
63875.74728188147,154528.0,89524.0,3776.0,19.2893818568773
63875.75737574953,154484.0,89515.0,3775.0,19.299475724932563
63875.76746961758,154488.0,89529.0,3770.0,19.309569592987827
63875.77756348564,154446.0,89501.0,3801.0,19.319663461043092
63875.78765735369,154449.0,89507.0,3767.0,19.329757329098356
63875.797751221755,154445.0,89512.0,3753.0,19.339851197160897
63875.80784508981,154436.0,89480.0,3757.0,19.34994506521616
63875.817938957865,154449.0,89535.0,3768.0,19.360038933271426
63875.82803282592,154473.0,89505.0,3789.0,19.37013280132669
63875.83812669398,154461.0,89522.0,3759.0,19.38022666938923
63875.84822056204,154475.0,89538.0,3781.0,19.390320537444495
63875.858314430094,154497.0,89549.0,3777.0,19.40041440549976
63875.86840829815,154462.0,89517.0,3748.0,19.410508273555024
63875.87850216621,154481.0,89527.0,3763.0,19.420602141617564
63875.88859603427,154471.0,89517.0,3738.0,19.43069600967283
63875.89868990232,154484.0,89530.0,3732.0,19.440789877728093
63875.90878377038,154480.0,89507.0,3765.0,19.450883745783358
63875.91887763844,154498.0,89526.0,3766.0,19.4609776138459
63875.928971506495,154533.0,89515.0,3772.0,19.471071481901163
63875.93906537455,154494.0,89530.0,3734.0,19.481165349956427
63875.949159242606,154527.0,89544.0,3783.0,19.49125921801169
63875.95925311066,154541.0,89534.0,3766.0,19.501353086066956
63875.96934697872,154531.0,89496.0,3770.0,19.511446954129497
63875.97944084678,154528.0,89509.0,3766.0,19.52154082218476
63875.989534714834,154514.0,89508.0,3779.0,19.531634690240026
63875.99962858289,154554.0,89543.0,3768.0,19.54172855829529
63876.00972245095,154531.0,89533.0,3780.0,19.55182242635783
63876.01981631901,154555.0,89548.0,3795.0,19.561916294413095
63876.02991018706,154553.0,89506.0,3771.0,19.57201016246836
63876.04000405512,154548.0,89528.0,3760.0,19.582104030523624
63876.05009792318,154541.0,89530.0,3786.0,19.592197898586164
63876.060191791235,154520.0,89537.0,3774.0,19.60229176664143
63876.07028565929,154527.0,89536.0,3755.0,19.612385634696693
63876.080379527346,154559.0,89544.0,3764.0,19.622479502751958
63876.09047339541,154553.0,89543.0,3756.0,19.632573370814498
63876.100567263464,154599.0,89566.0,3817.0,19.642667238869763
63876.11066113152,154573.0,89499.0,3790.0,19.652761106925027
63876.120754999574,154578.0,89549.0,3775.0,19.66285497498029
63876.13084886763,154577.0,89543.0,3768.0,19.672948843035556
63876.14094273569,154582.0,89545.0,3745.0,19.683042711098096
63876.15103660375,154601.0,89545.0,3765.0,19.69313657915336
63876.1611304718,154641.0,89555.0,3781.0,19.703230447208625
63876.17122433986,154629.0,89546.0,3770.0,19.71332431526389
63876.18131820792,154633.0,89562.0,3755.0,19.72341818332643
63876.191412075976,154643.0,89546.0,3794.0,19.733512051381695
63876.20150594403,154666.0,89571.0,3793.0,19.74360591943696
63876.211599812086,154662.0,89550.0,3789.0,19.753699787492224
63876.22169368015,154676.0,89571.0,3767.0,19.763793655554764
63876.231787548204,154691.0,89579.0,3779.0,19.77388752361003
63876.24188141626,154710.0,89570.0,3790.0,19.783981391665293
63876.251975284315,154713.0,89581.0,3800.0,19.794075259720557
63876.26206915237,154683.0,89547.0,3771.0,19.804169127775822
63876.27216302043,154711.0,89594.0,3804.0,19.814262995838362
63876.28225688849,154738.0,89586.0,3799.0,19.824356863893627
63876.29235075654,154737.0,89584.0,3805.0,19.83445073194889
63876.3024446246,154728.0,89566.0,3809.0,19.844544600004156
63876.31253849266,154778.0,89616.0,3814.0,19.854638468066696
63876.322632360716,154753.0,89597.0,3788.0,19.86473233612196
63876.33272622877,154787.0,89588.0,3807.0,19.874826204177225
63876.34282009683,154790.0,89616.0,3826.0,19.88492007223249
63876.35291396489,154761.0,89625.0,3790.0,19.89501394029503
63876.363007832944,154794.0,89622.0,3789.0,19.905107808350294
63876.373101701,154781.0,89606.0,3843.0,19.91520167640556
63876.383195569055,154757.0,89605.0,3819.0,19.925295544460823
63876.39328943712,154712.0,89573.0,3800.0,19.935389412523364
63876.40338330517,154622.0,89538.0,3807.0,19.945483280578628
