timestamp,PPG_1,PPG_2,PPG_3,time_from_segment_start_sec
62858.88433721586,106502.0,18316.0,890.0,0.0
62858.89433512923,106462.0,18307.0,881.0,0.009997913373808842
62858.904333042614,106531.0,18294.0,898.0,0.019995826754893642
62858.914330955995,106507.0,18314.0,866.0,0.02999374013597844
62858.92432886937,106539.0,18328.0,922.0,0.039991653509787284
62858.93432678275,106483.0,18310.0,913.0,0.049989566890872084
62858.94432469613,106509.0,18327.0,887.0,0.05998748027195688
62858.954322609505,106506.0,18300.0,893.0,0.06998539364576573
62858.964320522886,106513.0,18317.0,894.0,0.07998330702685053
62858.97431843627,106491.0,18308.0,922.0,0.08998122040793533
62858.98431634964,106518.0,18330.0,892.0,0.09997913378174417
62858.99431426302,106477.0,18307.0,871.0,0.10997704716282897
62859.0043121764,106514.0,18308.0,883.0,0.11997496054391377
62859.01431008978,106497.0,18319.0,880.0,0.1299728739177226
62859.02430800316,106476.0,18291.0,884.0,0.1399707872988074
62859.03430591654,106532.0,18299.0,889.0,0.1499687006798922
62859.04430382991,106507.0,18314.0,888.0,0.15996661405370105
62859.054301743294,106475.0,18338.0,884.0,0.16996452743478585
62859.064299656675,106512.0,18337.0,916.0,0.17996244081587065
62859.07429757005,106493.0,18282.0,887.0,0.1899603541896795
62859.08429548343,106514.0,18319.0,897.0,0.1999582675707643
62859.09429339681,106513.0,18309.0,869.0,0.2099561809518491
62859.104291310185,106521.0,18332.0,897.0,0.21995409432565793
62859.114289223566,106498.0,18303.0,885.0,0.22995200770674273
62859.12428713695,106504.0,18309.0,887.0,0.23994992108782753
62859.13428505033,106535.0,18343.0,902.0,0.24994783446891233
62859.1442829637,106516.0,18282.0,884.0,0.2599457478427212
62859.15428087708,106495.0,18314.0,903.0,0.269943661223806
62859.164278790464,106525.0,18308.0,886.0,0.2799415746048908
62859.17427670384,106483.0,18318.0,881.0,0.2899394879786996
62859.18427461722,106544.0,18330.0,931.0,0.2999374013597844
62859.1942725306,106487.0,18277.0,873.0,0.3099353147408692
62859.204270443974,106509.0,18308.0,892.0,0.31993322811467806
62859.214268357355,106510.0,18322.0,891.0,0.32993114149576286
62859.224266270736,106485.0,18308.0,876.0,0.33992905487684766
62859.23426418411,106512.0,18321.0,897.0,0.3499269682506565
62859.24426209749,106528.0,18319.0,892.0,0.3599248816317413
62859.25426001087,106515.0,18314.0,882.0,0.3699227950128261
62859.264257924246,106539.0,18342.0,894.0,0.37992070838663494
62859.27425583763,106478.0,18312.0,870.0,0.38991862176771974
62859.28425375101,106529.0,18319.0,883.0,0.39991653514880454
62859.29425166438,106516.0,18298.0,888.0,0.4099144485226134
62859.30424957776,106536.0,18320.0,932.0,0.4199123619036982
62859.314247491144,106525.0,18287.0,883.0,0.429910275284783
62859.32424540452,106542.0,18334.0,910.0,0.4399081886585918
62859.3342433179,106528.0,18343.0,904.0,0.4499061020396766
62859.34424123128,106497.0,18306.0,880.0,0.4599040154207614
62859.35423914465,106518.0,18305.0,865.0,0.46990192879457027
62859.364237058035,106535.0,18314.0,892.0,0.47989984217565507
62859.374234971416,106523.0,18298.0,881.0,0.48989775555673987
62859.38423288479,106545.0,18340.0,893.0,0.4998956689305487
62859.39423079817,106508.0,18297.0,872.0,0.5098935823116335
62859.40422871155,106519.0,18315.0,894.0,0.5198914956927183
62859.414226624926,106541.0,18345.0,909.0,0.5298894090665272
62859.42422453831,106517.0,18313.0,878.0,0.539887322447612
62859.43422245169,106558.0,18333.0,891.0,0.5498852358286968
62859.44422036506,106522.0,18314.0,880.0,0.5598831492025056
62859.45421827844,106526.0,18289.0,917.0,0.5698810625835904
62859.464216191824,106550.0,18338.0,907.0,0.5798789759646752
62859.4742141052,106519.0,18303.0,870.0,0.589876889338484
62859.48421201858,106523.0,18319.0,904.0,0.5998748027195688
62859.49420993196,106539.0,18328.0,885.0,0.6098727161006536
62859.50420784533,106507.0,18332.0,901.0,0.6198706294744625
62859.514205758715,106498.0,18317.0,876.0,0.6298685428555473
62859.524203672096,106547.0,18315.0,911.0,0.6398664562366321
62859.53420158547,106517.0,18301.0,893.0,0.6498643696104409
62859.54419949885,106508.0,18306.0,879.0,0.6598622829915257
62859.55419741223,106538.0,18326.0,919.0,0.6698601963726105
62859.564195325605,106504.0,18321.0,887.0,0.6798581097464194
62859.57419323899,106513.0,18335.0,892.0,0.6898560231275042
62859.58419115237,106451.0,18265.0,865.0,0.699853936508589
62859.59418906574,106486.0,18295.0,876.0,0.7098518498823978
62859.60418697912,106522.0,18335.0,876.0,0.7198497632634826
62859.6141848925,106511.0,18316.0,898.0,0.7298476766445674
62859.62418280588,106504.0,18299.0,900.0,0.7398455900183762
62859.63418071926,106550.0,18323.0,905.0,0.749843503399461
62859.64417863264,106493.0,18302.0,893.0,0.7598414167805458
62859.65417654601,106509.0,18321.0,886.0,0.7698393301543547
62859.664174459394,106495.0,18329.0,902.0,0.7798372435354395
62859.674172372776,106502.0,18303.0,889.0,0.7898351569165243
62859.68417028615,106481.0,18341.0,884.0,0.7998330702903331
62859.69416819953,106491.0,18316.0,884.0,0.8098309836714179
62859.70416611291,106537.0,18304.0,911.0,0.8198288970525027
62859.714164026285,106492.0,18302.0,881.0,0.8298268104263116
62859.72416193967,106523.0,18345.0,919.0,0.8398247238073964
62859.73415985305,106510.0,18317.0,881.0,0.8498226371884812
62859.74415776643,106478.0,18284.0,872.0,0.859820550569566
62859.7541556798,106536.0,18331.0,902.0,0.8698184639433748
62859.76415359318,106529.0,18308.0,889.0,0.8798163773244596
62859.774151506565,106512.0,18310.0,886.0,0.8898142907055444
62859.78414941994,106504.0,18355.0,896.0,0.8998122040793533
62859.79414733332,106493.0,18289.0,870.0,0.909810117460438
62859.8041452467,106536.0,18331.0,900.0,0.9198080308415229
62859.814143160074,106528.0,18312.0,895.0,0.9298059442153317
62859.824141073455,106531.0,18305.0,886.0,0.9398038575964165
62859.83413898684,106540.0,18332.0,908.0,0.9498017709775013
62859.84413690021,106494.0,18318.0,896.0,0.9597996843513101
62859.85413481359,106486.0,18311.0,878.0,0.9697975977323949
62859.86413272697,106468.0,18335.0,888.0,0.9797955111134797
62859.874130640346,106470.0,18296.0,862.0,0.9897934244872886
62859.88412855373,106534.0,18330.0,869.0,0.9997913378683734
62859.89412646711,106508.0,18313.0,886.0,1.0097892512494582
62859.90412438048,106504.0,18347.0,901.0,1.019787164623267
62859.91412229386,106495.0,18294.0,872.0,1.0297850780043518
62859.924120207244,106525.0,18346.0,898.0,1.0397829913854366
62859.93411812062,106518.0,18315.0,901.0,1.0497809047592455
62859.944116034,106495.0,18278.0,871.0,1.0597788181403303
62859.95411394738,106495.0,18310.0,909.0,1.069776731521415
62859.964111860754,106479.0,18321.0,892.0,1.079774644895224
62859.974109774135,106520.0,18317.0,891.0,1.0897725582763087
62859.98410768752,106519.0,18305.0,899.0,1.0997704716573935
62859.99410560089,106512.0,18319.0,859.0,1.1097683850312023
62860.00410351427,106524.0,18295.0,893.0,1.1197662984122871
62860.01410142765,106525.0,18311.0,889.0,1.129764211793372
62860.024099341026,106499.0,18347.0,901.0,1.1397621251671808
62860.03409725441,106486.0,18312.0,883.0,1.1497600385482656
62860.04409516779,106532.0,18316.0,903.0,1.1597579519293504
62860.05409308116,106530.0,18319.0,889.0,1.1697558653031592
62860.06409099454,106516.0,18310.0,872.0,1.179753778684244
62860.074088907924,106487.0,18302.0,863.0,1.1897516920653288
62860.0840868213,106538.0,18321.0,912.0,1.1997496054391377
62860.09408473468,106519.0,18319.0,899.0,1.2097475188202225
62860.10408264806,106538.0,18299.0,888.0,1.2197454322013073
62860.114080561434,106518.0,18287.0,866.0,1.229743345575116
62860.124078474815,106550.0,18340.0,912.0,1.239741258956201
62860.134076388196,106518.0,18314.0,887.0,1.2497391723372857
62860.14407430157,106508.0,18294.0,912.0,1.2597370857110946
62860.15407221495,106553.0,18338.0,909.0,1.2697349990921794
62860.16407012833,106544.0,18329.0,862.0,1.2797329124732642
62860.174068041706,106525.0,18309.0,883.0,1.289730825847073
62860.18406595509,106521.0,18325.0,901.0,1.2997287392281578
62860.19406386847,106521.0,18306.0,874.0,1.3097266526092426
62860.20406178184,106519.0,18337.0,896.0,1.3197245659830514
62860.21405969522,106547.0,18307.0,873.0,1.3297224793641362
62860.224057608604,106533.0,18325.0,899.0,1.339720392745221
62860.23405552198,106531.0,18305.0,878.0,1.3497183061190299
62860.24405343536,106558.0,18342.0,905.0,1.3597162195001147
62860.25405134874,106509.0,18298.0,873.0,1.3697141328811995
62860.264049262114,106513.0,18320.0,900.0,1.3797120462550083
62860.274047175495,106509.0,18298.0,870.0,1.3897099596360931
62860.284045088876,106558.0,18330.0,913.0,1.399707873017178
62860.29404300225,106566.0,18342.0,905.0,1.4097057863909868
62860.30404091563,106538.0,18315.0,889.0,1.4197036997720716
62860.31403882901,106504.0,18307.0,892.0,1.4297016131531564
62860.32403674239,106542.0,18339.0,910.0,1.4396995265342412
62860.33403465577,106541.0,18318.0,908.0,1.44969743990805
62860.34403256915,106541.0,18321.0,898.0,1.4596953532891348
62860.35403048253,106535.0,18315.0,922.0,1.4696932666702196
62860.3640283959,106519.0,18306.0,893.0,1.4796911800440284
62860.374026309284,106523.0,18338.0,897.0,1.4896890934251132
62860.384024222665,106546.0,18333.0,914.0,1.499687006806198
62860.39402213604,106510.0,18301.0,891.0,1.5096849201800069
62860.40402004942,106524.0,18314.0,871.0,1.5196828335610917
62860.4140179628,106530.0,18294.0,895.0,1.5296807469421765
62860.424015876175,106521.0,18314.0,889.0,1.5396786603159853
62860.434013789556,106502.0,18306.0,890.0,1.5496765736970701
62860.44401170294,106501.0,18335.0,900.0,1.559674487078155
62860.45400961631,106502.0,18316.0,877.0,1.5696724004519638
62860.46400752969,106516.0,18320.0,887.0,1.5796703138330486
62860.47400544307,106483.0,18338.0,882.0,1.5896682272141334
62860.48400335645,106506.0,18329.0,888.0,1.5996661405879422
62860.49400126983,106493.0,18318.0,888.0,1.609664053969027
62860.50399918321,106505.0,18317.0,897.0,1.6196619673501118
62860.51399709658,106489.0,18295.0,913.0,1.6296598807239207
62860.523995009964,106500.0,18336.0,913.0,1.6396577941050055
62860.533992923345,106535.0,18350.0,907.0,1.6496557074860903
62860.54399083672,106504.0,18322.0,897.0,1.659653620859899
62860.5539887501,106514.0,18326.0,892.0,1.669651534240984
62860.56398666348,106497.0,18307.0,891.0,1.6796494476220687
62860.573984576855,106516.0,18331.0,858.0,1.6896473609958775
62860.583982490236,106503.0,18305.0,880.0,1.6996452743769623
62860.59398040362,106480.0,18307.0,891.0,1.7096431877580471
62860.60397831699,106511.0,18317.0,896.0,1.719641101131856
62860.61397623037,106478.0,18343.0,895.0,1.7296390145129408
62860.62397414375,106508.0,18306.0,891.0,1.7396369278940256
62860.63397205713,106503.0,18302.0,893.0,1.7496348412678344
62860.64396997051,106516.0,18340.0,876.0,1.7596327546489192
62860.65396788389,106507.0,18313.0,867.0,1.769630668030004
62860.66396579726,106499.0,18312.0,885.0,1.7796285814038129
62860.673963710644,106534.0,18298.0,911.0,1.7896264947848977
62860.683961624025,106511.0,18278.0,892.0,1.7996244081659825
62860.6939595374,106521.0,18313.0,905.0,1.8096223215397913
62860.70395745078,106509.0,18319.0,887.0,1.819620234920876
62860.71395536416,106473.0,18331.0,874.0,1.829618148301961
62860.723953277535,106489.0,18332.0,893.0,1.8396160616757697
62860.733951190916,106542.0,18334.0,911.0,1.8496139750568545
62860.7439491043,106517.0,18310.0,894.0,1.8596118884379393
62860.75394701767,106526.0,18325.0,906.0,1.8696098018117482
62860.76394493105,106541.0,18331.0,885.0,1.879607715192833
62860.77394284443,106527.0,18345.0,889.0,1.8896056285739178
62860.78394075781,106478.0,18330.0,914.0,1.8996035419477266
62860.79393867119,106508.0,18300.0,886.0,1.9096014553288114
62860.80393658457,106501.0,18306.0,896.0,1.9195993687098962
62860.81393449794,106532.0,18330.0,865.0,1.929597282083705
62860.823932411324,106495.0,18314.0,889.0,1.9395951954647899
62860.833930324705,106482.0,18335.0,898.0,1.9495931088458747
62860.84392823808,106510.0,18341.0,879.0,1.9595910222196835
62860.85392615146,106528.0,18300.0,912.0,1.9695889356007683
62860.86392406484,106513.0,18312.0,916.0,1.979586848981853
62860.873921978215,106505.0,18322.0,903.0,1.989584762355662
62860.883919891596,106506.0,18300.0,886.0,1.9995826757367468
62860.89391780498,106511.0,18308.0,889.0,2.0095805891178316
62860.90391571836,106516.0,18313.0,911.0,2.0195785024989164
62860.91391363173,106509.0,18330.0,875.0,2.029576415872725
62860.92391154511,106495.0,18298.0,880.0,2.03957432925381
62860.933909458494,106517.0,18311.0,917.0,2.049572242634895
62860.94390737187,106509.0,18310.0,907.0,2.0595701560087036
62860.95390528525,106508.0,18342.0,891.0,2.0695680693897884
62860.96390319863,106513.0,18326.0,892.0,2.0795659827708732
62860.973901112004,106532.0,18316.0,907.0,2.089563896144682
62860.983899025385,106540.0,18337.0,911.0,2.099561809525767
62860.993896938766,106513.0,18312.0,898.0,2.1095597229068517
62861.00389485214,106503.0,18343.0,878.0,2.1195576362806605
62861.01389276552,106518.0,18322.0,885.0,2.1295555496617453
62861.0238906789,106525.0,18303.0,910.0,2.13955346304283
62861.033888592276,106506.0,18306.0,888.0,2.149551376416639
62861.04388650566,106465.0,18268.0,869.0,2.1595492897977238
62861.05388441904,106493.0,18332.0,903.0,2.1695472031788086
62861.06388233241,106498.0,18293.0,891.0,2.1795451165526174
62861.07388024579,106529.0,18309.0,881.0,2.189543029933702
62861.083878159174,106485.0,18293.0,876.0,2.199540943314787
62861.09387607255,106497.0,18331.0,886.0,2.209538856688596
62861.10387398593,106552.0,18334.0,916.0,2.2195367700696806
62861.11387189931,106526.0,18318.0,887.0,2.2295346834507654
62861.12386981268,106486.0,18315.0,877.0,2.2395325968245743
62861.133867726065,106481.0,18342.0,898.0,2.249530510205659
62861.143865639446,106539.0,18294.0,895.0,2.259528423586744
62861.15386355282,106522.0,18313.0,890.0,2.2695263369605527
62861.1638614662,106534.0,18318.0,910.0,2.2795242503416375
62861.17385937958,106539.0,18313.0,903.0,2.2895221637227223
62861.183857292956,106540.0,18324.0,898.0,2.299520077096531
62861.19385520634,106515.0,18315.0,892.0,2.309517990477616
62861.20385311972,106533.0,18343.0,876.0,2.3195159038587008
62861.21385103309,106521.0,18285.0,880.0,2.3295138172325096
62861.22384894647,106545.0,18292.0,911.0,2.3395117306135944
62861.233846859854,106526.0,18298.0,894.0,2.349509643994679
62861.24384477323,106486.0,18310.0,877.0,2.359507557368488
62861.25384268661,106560.0,18322.0,916.0,2.369505470749573
62861.26384059999,106493.0,18283.0,884.0,2.3795033841306577
62861.27383851336,106522.0,18320.0,894.0,2.3895012975044665
62861.283836426745,106507.0,18297.0,896.0,2.3994992108855513
62861.293834340126,106533.0,18331.0,908.0,2.409497124266636
62861.3038322535,106511.0,18300.0,900.0,2.419495037640445
62861.31383016688,106480.0,18299.0,875.0,2.4294929510215297
62861.32382808026,106510.0,18304.0,874.0,2.4394908644026145
62861.333825993635,106524.0,18330.0,869.0,2.4494887777764234
62861.34382390702,106518.0,18318.0,883.0,2.459486691157508
62861.3538218204,106507.0,18315.0,891.0,2.469484604538593
62861.36381973377,106487.0,18317.0,881.0,2.479482517912402
62861.37381764715,106514.0,18305.0,906.0,2.4894804312934866
62861.38381556053,106521.0,18321.0,911.0,2.4994783446745714
62861.39381347391,106506.0,18319.0,888.0,2.5094762580483803
62861.40381138729,106482.0,18324.0,899.0,2.519474171429465
62861.41380930067,106487.0,18309.0,879.0,2.52947208481055
62861.42380721404,106529.0,18338.0,901.0,2.5394699981843587
62861.433805127424,106487.0,18310.0,894.0,2.5494679115654435
62861.443803040806,106485.0,18330.0,881.0,2.5594658249465283
62861.45380095418,106515.0,18314.0,918.0,2.569463738320337
62861.46379886756,106452.0,18275.0,860.0,2.579461651701422
62861.47379678094,106488.0,18311.0,880.0,2.5894595650825067
62861.48379469432,106472.0,18292.0,880.0,2.5994574784635915
62861.4937926077,106474.0,18303.0,875.0,2.6094553918374004
62861.50379052108,106469.0,18279.0,876.0,2.619453305218485
62861.51378843446,106488.0,18312.0,873.0,2.62945121859957
62861.52378634783,106495.0,18300.0,905.0,2.639449131973379
62861.53378426121,106492.0,18319.0,890.0,2.6494470453544636
62861.543782174595,106496.0,18297.0,909.0,2.6594449587355484
62861.55378008797,106483.0,18320.0,888.0,2.6694428721093573
62861.56377800135,106502.0,18298.0,901.0,2.679440785490442
62861.57377591473,106459.0,18322.0,899.0,2.689438698871527
62861.583773828104,106465.0,18303.0,885.0,2.6994366122453357
62861.593771741485,106500.0,18319.0,906.0,2.7094345256264205
62861.60376965487,106484.0,18302.0,890.0,2.7194324390075053
62861.61376756824,106475.0,18307.0,893.0,2.729430352381314
62861.62376548162,106510.0,18332.0,907.0,2.739428265762399
62861.633763395,106478.0,18290.0,871.0,2.7494261791434838
62861.643761308376,106490.0,18315.0,886.0,2.7594240925172926
62861.65375922176,106497.0,18335.0,909.0,2.7694220058983774
62861.66375713514,106478.0,18299.0,883.0,2.779419919279462
62861.67375504851,106484.0,18308.0,903.0,2.789417832653271
62861.68375296189,106488.0,18306.0,897.0,2.799415746034356
62861.693750875274,106470.0,18311.0,884.0,2.8094136594154406
62861.70374878865,106498.0,18329.0,898.0,2.8194115727892495
62861.71374670203,106490.0,18301.0,902.0,2.8294094861703343
62861.72374461541,106487.0,18309.0,899.0,2.839407399551419
62861.733742528784,106485.0,18285.0,885.0,2.849405312925228
62861.743740442165,106521.0,18337.0,912.0,2.8594032263063127
62861.75373835555,106458.0,18321.0,893.0,2.8694011396873975
62861.76373626892,106501.0,18315.0,892.0,2.8793990530612064
62861.7737341823,106514.0,18306.0,902.0,2.889396966442291
62861.78373209568,106495.0,18331.0,867.0,2.899394879823376
62861.793730009056,106502.0,18332.0,919.0,2.909392793197185
62861.80372792244,106506.0,18307.0,888.0,2.9193907065782696
62861.81372583582,106485.0,18309.0,868.0,2.9293886199593544
62861.82372374919,106509.0,18325.0,927.0,2.9393865333331632
62861.83372166257,106463.0,18291.0,873.0,2.949384446714248
62861.843719575954,106483.0,18304.0,875.0,2.959382360095333
62861.85371748933,106507.0,18325.0,884.0,2.9693802734691417
62861.86371540271,106493.0,18300.0,892.0,2.9793781868502265
62861.87371331609,106491.0,18335.0,906.0,2.9893761002313113
62861.883711229464,106501.0,18313.0,884.0,2.99937401360512
62861.893709142845,106513.0,18296.0,883.0,3.009371926986205
62861.903707056226,106521.0,18310.0,887.0,3.0193698403672897
62861.9137049696,106484.0,18299.0,904.0,3.0293677537410986
62861.92370288298,106493.0,18311.0,884.0,3.0393656671221834
62861.93370079636,106461.0,18315.0,873.0,3.049363580503268
62861.943698709736,106522.0,18324.0,895.0,3.059361493877077
62861.95369662312,106495.0,18310.0,872.0,3.069359407258162
62861.9636945365,106502.0,18319.0,892.0,3.0793573206392466
62861.97369244987,106478.0,18327.0,906.0,3.0893552340130555
62861.98369036325,106496.0,18339.0,900.0,3.0993531473941403
62861.993688276634,106495.0,18328.0,925.0,3.109351060775225
62862.00368619001,106491.0,18317.0,904.0,3.119348974149034
62862.01368410339,106494.0,18328.0,859.0,3.1293468875301187
62862.02368201677,106518.0,18307.0,866.0,3.1393448009112035
62862.033679930144,106487.0,18303.0,887.0,3.1493427142850123
62862.043677843525,106498.0,18312.0,888.0,3.159340627666097
62862.053675756906,106491.0,18306.0,888.0,3.169338541047182
62862.06367367029,106501.0,18312.0,912.0,3.1793364544282667
62862.07367158366,106498.0,18286.0,890.0,3.1893343678020756
62862.08366949704,106504.0,18313.0,883.0,3.1993322811831604
62862.09366741042,106475.0,18307.0,911.0,3.209330194564245
62862.1036653238,106442.0,18308.0,864.0,3.219328107938054
62862.11366323718,106510.0,18320.0,901.0,3.229326021319139
62862.12366115056,106505.0,18316.0,891.0,3.2393239347002236
62862.13365906393,106485.0,18305.0,887.0,3.2493218480740325
62862.143656977314,106522.0,18349.0,900.0,3.2593197614551173
62862.153654890695,106479.0,18297.0,884.0,3.269317674836202
62862.16365280407,106504.0,18314.0,887.0,3.279315588210011
62862.17365071745,106489.0,18324.0,896.0,3.2893135015910957
62862.18364863083,106495.0,18317.0,870.0,3.2993114149721805
62862.193646544205,106541.0,18322.0,884.0,3.3093093283459893
62862.203644457586,106505.0,18312.0,872.0,3.319307241727074
62862.21364237097,106483.0,18288.0,918.0,3.329305155108159
62862.22364028434,106490.0,18328.0,898.0,3.339303068481968
62862.23363819772,106509.0,18304.0,901.0,3.3493009818630526
62862.2436361111,106465.0,18286.0,866.0,3.3592988952441374
62862.25363402448,106462.0,18273.0,893.0,3.3692968086179462
62862.26363193786,106480.0,18343.0,903.0,3.379294721999031
62862.27362985124,106446.0,18311.0,867.0,3.389292635380116
62862.28362776461,106453.0,18311.0,864.0,3.3992905487539247
62862.293625677994,106491.0,18304.0,891.0,3.4092884621350095
62862.303623591375,106469.0,18315.0,866.0,3.4192863755160943
62862.31362150475,106470.0,18314.0,902.0,3.429284288889903
62862.32361941813,106453.0,18290.0,884.0,3.439282202270988
62862.33361733151,106475.0,18317.0,897.0,3.4492801156520727
62862.343615244885,106479.0,18333.0,908.0,3.4592780290258816
62862.353613158266,106444.0,18298.0,867.0,3.4692759424069664
62862.36361107165,106473.0,18316.0,852.0,3.479273855788051
62862.37360898502,106488.0,18295.0,922.0,3.48927176916186
62862.3836068984,106440.0,18315.0,899.0,3.499269682542945
62862.39360481178,106500.0,18327.0,900.0,3.5092675959240296
62862.40360272516,106457.0,18296.0,891.0,3.5192655092978384
62862.41360063854,106474.0,18311.0,898.0,3.5292634226789232
62862.42359855192,106465.0,18287.0,883.0,3.539261336060008
62862.43359646529,106465.0,18334.0,908.0,3.549259249433817
62862.443594378674,106462.0,18302.0,867.0,3.5592571628149017
62862.453592292055,106473.0,18306.0,886.0,3.5692550761959865
62862.46359020543,106466.0,18305.0,923.0,3.5792529895697953
62862.47358811881,106469.0,18302.0,877.0,3.58925090295088
62862.48358603219,106490.0,18319.0,880.0,3.599248816331965
62862.493583945565,106473.0,18317.0,883.0,3.6092467297057738
62862.503581858946,106464.0,18306.0,876.0,3.6192446430868586
62862.51357977233,106478.0,18296.0,890.0,3.6292425564679434
62862.5235776857,106441.0,18291.0,862.0,3.639240469841752
62862.53357559908,106475.0,18317.0,885.0,3.649238383222837
62862.54357351246,106481.0,18312.0,853.0,3.659236296603922
62862.55357142584,106459.0,18300.0,867.0,3.6692342099777306
62862.56356933922,106474.0,18309.0,891.0,3.6792321233588154
62862.5735672526,106468.0,18312.0,895.0,3.6892300367399002
62862.58356516597,106482.0,18295.0,885.0,3.699227950113709
62862.593563079354,106490.0,18330.0,917.0,3.709225863494794
62862.603560992735,106468.0,18285.0,881.0,3.7192237768758787
62862.61355890611,106478.0,18305.0,892.0,3.7292216902496875
62862.62355681949,106436.0,18311.0,877.0,3.7392196036307723
62862.63355473287,106495.0,18312.0,938.0,3.749217517011857
62862.64355264625,106451.0,18285.0,885.0,3.759215430392942
62862.653550559626,106458.0,18295.0,887.0,3.7692133437667508
62862.66354847301,106482.0,18326.0,890.0,3.7792112571478356
62862.67354638639,106464.0,18285.0,872.0,3.7892091705289204
62862.68354429976,106489.0,18323.0,919.0,3.799207083902729
62862.69354221314,106481.0,18321.0,890.0,3.809204997283814
62862.703540126524,106484.0,18327.0,878.0,3.819202910664899
62862.7135380399,106510.0,18320.0,896.0,3.8292008240387077
62862.72353595328,106474.0,18304.0,893.0,3.8391987374197925
62862.73353386666,106481.0,18314.0,888.0,3.8491966508008773
62862.743531780034,106483.0,18296.0,902.0,3.859194564174686
62862.753529693415,106467.0,18284.0,891.0,3.869192477555771
62862.763527606796,106504.0,18302.0,902.0,3.8791903909368557
62862.77352552017,106500.0,18321.0,895.0,3.8891883043106645
62862.78352343355,106504.0,18343.0,905.0,3.8991862176917493
62862.79352134693,106488.0,18339.0,920.0,3.909184131072834
62862.803519260306,106507.0,18308.0,922.0,3.919182044446643
62862.81351717369,106498.0,18320.0,900.0,3.9291799578277278
62862.82351508707,106493.0,18321.0,873.0,3.9391778712088126
62862.83351300044,106530.0,18316.0,909.0,3.9491757845826214
62862.84351091382,106467.0,18277.0,865.0,3.959173697963706
62862.853508827204,106496.0,18313.0,897.0,3.969171611344791
62862.86350674058,106474.0,18337.0,879.0,3.9791695247186
62862.87350465396,106486.0,18296.0,865.0,3.9891674380996847
62862.88350256734,106496.0,18310.0,855.0,3.9991653514807695
62862.89350048071,106492.0,18314.0,889.0,4.009163264854578
62862.903498394095,106472.0,18275.0,907.0,4.019161178235663
62862.913496307476,106517.0,18308.0,910.0,4.029159091616748
62862.92349422085,106506.0,18295.0,907.0,4.039157004990557
62862.93349213423,106477.0,18322.0,875.0,4.0491549183716415
62862.94349004761,106498.0,18301.0,895.0,4.059152831752726
62862.953487960986,106513.0,18319.0,858.0,4.069150745126535
62862.96348587437,106483.0,18292.0,877.0,4.07914865850762
62862.97348378775,106496.0,18308.0,904.0,4.089146571888705
62862.98348170112,106489.0,18334.0,901.0,4.099144485262514
62862.9934796145,106475.0,18296.0,902.0,4.109142398643598
62863.003477527884,106516.0,18292.0,900.0,4.119140312024683
62863.01347544126,106504.0,18330.0,907.0,4.129138225398492
62863.02347335464,106498.0,18319.0,883.0,4.139136138779577
62863.03347126802,106487.0,18290.0,891.0,4.149134052160662
62863.04346918139,106469.0,18291.0,876.0,4.1591319655344705
62863.053467094775,106514.0,18330.0,904.0,4.169129878915555
62863.063465008156,106500.0,18319.0,894.0,4.17912779229664
62863.07346292153,106485.0,18314.0,910.0,4.189125705670449
62863.08346083491,106508.0,18314.0,889.0,4.199123619051534
62863.09345874829,106522.0,18306.0,916.0,4.2091215324326186
62863.103456661665,106505.0,18309.0,887.0,4.219119445806427
62863.11345457505,106483.0,18288.0,885.0,4.229117359187512
62863.12345248843,106526.0,18342.0,914.0,4.239115272568597
62863.1334504018,106479.0,18328.0,893.0,4.249113185942406
62863.14344831518,106492.0,18322.0,895.0,4.259111099323491
62863.15344622856,106532.0,18300.0,892.0,4.269109012704575
62863.16344414194,106490.0,18302.0,879.0,4.279106926078384
62863.17344205532,106490.0,18340.0,914.0,4.289104839459469
62863.1834399687,106479.0,18312.0,893.0,4.299102752840554
62863.19343788207,106442.0,18316.0,883.0,4.309100666214363
62863.203435795454,106470.0,18333.0,879.0,4.3190985795954475
62863.213433708836,106500.0,18301.0,890.0,4.329096492976532
62863.22343162222,106485.0,18323.0,892.0,4.339094406357617
62863.23342953559,106518.0,18342.0,908.0,4.349092319731426
62863.24342744897,106465.0,18315.0,864.0,4.359090233112511
62863.25342536235,106475.0,18344.0,896.0,4.369088146493596
62863.26342327573,106475.0,18317.0,897.0,4.379086059867404
62863.27342118911,106475.0,18297.0,877.0,4.389083973248489
62863.28341910249,106464.0,18282.0,882.0,4.399081886629574
62863.29341701586,106500.0,18331.0,906.0,4.409079800003383
62863.30341492924,106455.0,18298.0,874.0,4.419077713384468
62863.313412842625,106467.0,18309.0,884.0,4.429075626765552
62863.323410756,106486.0,18330.0,910.0,4.439073540139361
62863.33340866938,106485.0,18320.0,859.0,4.449071453520446
62863.34340658276,106475.0,18302.0,889.0,4.459069366901531
62863.353404496134,106474.0,18314.0,900.0,4.46906728027534
62863.363402409515,106463.0,18304.0,888.0,4.4790651936564245
62863.3734003229,106460.0,18318.0,902.0,4.489063107037509
62863.38339823627,106483.0,18310.0,889.0,4.499061020411318
62863.39339614965,106498.0,18291.0,890.0,4.509058933792403
62863.40339406303,106487.0,18316.0,863.0,4.519056847173488
62863.413391976406,106493.0,18301.0,905.0,4.529054760547297
62863.42338988979,106473.0,18307.0,897.0,4.539052673928381
62863.43338780317,106461.0,18331.0,884.0,4.549050587309466
62863.44338571654,106447.0,18291.0,899.0,4.559048500683275
62863.45338362992,106491.0,18320.0,894.0,4.56904641406436
62863.463381543304,106470.0,18309.0,888.0,4.579044327445445
62863.47337945668,106449.0,18290.0,870.0,4.5890422408192535
62863.48337737006,106436.0,18315.0,885.0,4.599040154200338
62863.49337528344,106492.0,18326.0,894.0,4.609038067581423
62863.503373196814,106484.0,18302.0,888.0,4.619035980955232
62863.513371110195,106455.0,18289.0,909.0,4.629033894336317
62863.52336902358,106498.0,18321.0,894.0,4.6390318077174015
62863.53336693695,106456.0,18304.0,883.0,4.64902972109121
62863.54336485033,106482.0,18314.0,897.0,4.659027634472295
62863.55336276371,106490.0,18324.0,896.0,4.66902554785338
62863.563360677086,106498.0,18293.0,887.0,4.679023461227189
62863.57335859047,106503.0,18314.0,864.0,4.689021374608274
62863.58335650385,106480.0,18310.0,906.0,4.699019287989358
62863.59335441722,106481.0,18290.0,888.0,4.709017201363167
62863.6033523306,106459.0,18310.0,880.0,4.719015114744252
62863.613350243984,106443.0,18324.0,892.0,4.729013028125337
62863.62334815736,106477.0,18309.0,887.0,4.739010941499146
62863.63334607074,106479.0,18281.0,891.0,4.7490088548802305
62863.64334398412,106473.0,18297.0,869.0,4.759006768261315
62863.653341897494,106469.0,18294.0,861.0,4.769004681635124
62863.663339810875,106514.0,18323.0,908.0,4.779002595016209
62863.673337724256,106484.0,18321.0,893.0,4.789000508397294
62863.68333563763,106464.0,18298.0,883.0,4.798998421771103
62863.69333355101,106464.0,18306.0,875.0,4.808996335152187
62863.70333146439,106512.0,18309.0,906.0,4.818994248533272
62863.713329377766,106473.0,18305.0,883.0,4.828992161907081
62863.72332729115,106468.0,18333.0,902.0,4.838990075288166
62863.73332520453,106511.0,18326.0,903.0,4.848987988669251
62863.7433231179,106512.0,18326.0,873.0,4.8589859020430595
62863.75332103128,106498.0,18317.0,884.0,4.868983815424144
62863.763318944664,106462.0,18306.0,852.0,4.878981728805229
62863.77331685804,106472.0,18295.0,874.0,4.888979642179038
62863.78331477142,106507.0,18327.0,911.0,4.898977555560123
62863.7933126848,106491.0,18321.0,895.0,4.9089754689412075
62863.80331059818,106500.0,18312.0,887.0,4.918973382322292
62863.813308511555,106495.0,18324.0,889.0,4.928971295696101
62863.823306424936,106483.0,18304.0,890.0,4.938969209077186
62863.83330433832,106511.0,18333.0,909.0,4.948967122458271
62863.84330225169,106498.0,18329.0,884.0,4.95896503583208
62863.85330016507,106512.0,18340.0,919.0,4.968962949213164
62863.86329807845,106527.0,18324.0,905.0,4.978960862594249
62863.87329599183,106494.0,18314.0,890.0,4.988958775968058
62863.88329390521,106510.0,18334.0,901.0,4.998956689349143
62863.89329181859,106498.0,18317.0,869.0,5.008954602730228
62863.90328973196,106494.0,18332.0,899.0,5.0189525161040365
62863.913287645344,106500.0,18307.0,883.0,5.028950429485121
62863.923285558725,106484.0,18283.0,902.0,5.038948342866206
62863.9332834721,106498.0,18292.0,884.0,5.048946256240015
62863.94328138548,106497.0,18338.0,911.0,5.0589441696211
62863.95327929886,106503.0,18314.0,888.0,5.0689420830021845
62863.963277212235,106490.0,18302.0,869.0,5.078939996375993
62863.973275125616,106496.0,18285.0,886.0,5.088937909757078
62863.983273039,106477.0,18306.0,873.0,5.098935823138163
62863.99327095237,106481.0,18312.0,891.0,5.108933736511972
62864.00326886575,106494.0,18324.0,902.0,5.118931649893057
62864.01326677913,106479.0,18297.0,895.0,5.128929563274141
62864.02326469251,106506.0,18314.0,907.0,5.13892747664795
62864.03326260589,106494.0,18313.0,891.0,5.148925390029035
62864.04326051927,106479.0,18287.0,882.0,5.15892330341012
62864.05325843264,106461.0,18291.0,875.0,5.168921216783929
62864.063256346024,106487.0,18337.0,912.0,5.1789191301650135
62864.073254259405,106488.0,18308.0,891.0,5.188917043546098
62864.08325217278,106483.0,18316.0,876.0,5.198914956919907
62864.09325008616,106498.0,18301.0,913.0,5.208912870300992
62864.10324799954,106506.0,18342.0,908.0,5.218910783682077
62864.113245912915,106470.0,18310.0,893.0,5.228908697055886
62864.123243826296,106449.0,18308.0,870.0,5.23890661043697
62864.13324173968,106456.0,18299.0,888.0,5.248904523818055
62864.14323965305,106501.0,18322.0,907.0,5.258902437191864
62864.15323756643,106469.0,18316.0,890.0,5.268900350572949
62864.16323547981,106490.0,18336.0,871.0,5.278898263954034
62864.17323339319,106430.0,18313.0,861.0,5.2888961773278425
62864.18323130657,106462.0,18317.0,877.0,5.298894090708927
62864.19322921995,106477.0,18316.0,898.0,5.308892004090012
62864.20322713332,106479.0,18347.0,887.0,5.318889917463821
62864.213225046704,106444.0,18335.0,869.0,5.328887830844906
62864.223222960085,106483.0,18342.0,873.0,5.3388857442259905
62864.23322087346,106455.0,18302.0,873.0,5.348883657599799
62864.24321878684,106460.0,18339.0,906.0,5.358881570980884
62864.25321670022,106445.0,18308.0,869.0,5.368879484361969
62864.263214613595,106480.0,18344.0,903.0,5.378877397735778
62864.273212526976,106481.0,18314.0,889.0,5.388875311116863
62864.28321044036,106491.0,18305.0,885.0,5.398873224497947
62864.29320835373,106462.0,18307.0,897.0,5.408871137871756
62864.30320626711,106439.0,18310.0,893.0,5.418869051252841
62864.31320418049,106491.0,18310.0,918.0,5.428866964633926
62864.32320209387,106478.0,18313.0,886.0,5.438864878007735
62864.33320000725,106472.0,18319.0,864.0,5.4488627913888195
62864.34319792063,106476.0,18300.0,870.0,5.458860704769904
62864.353195834,106495.0,18321.0,886.0,5.468858618143713
62864.363193747384,106444.0,18298.0,909.0,5.478856531524798
62864.373191660765,106456.0,18299.0,893.0,5.488854444905883
62864.383189574146,106446.0,18305.0,871.0,5.4988523582869675
62864.39318748752,106485.0,18333.0,883.0,5.508850271660776
62864.4031854009,106463.0,18306.0,889.0,5.518848185041861
62864.41318331428,106479.0,18314.0,901.0,5.528846098422946
62864.423181227656,106480.0,18316.0,901.0,5.538844011796755
62864.43317914104,106437.0,18298.0,897.0,5.54884192517784
62864.44317705442,106466.0,18309.0,891.0,5.558839838558924
62864.45317496779,106462.0,18305.0,905.0,5.568837751932733
62864.46317288117,106470.0,18328.0,888.0,5.578835665313818
62864.473170794554,106451.0,18290.0,908.0,5.588833578694903
62864.48316870793,106472.0,18314.0,894.0,5.598831492068712
62864.49316662131,106483.0,18306.0,915.0,5.6088294054497965
62864.50316453469,106465.0,18324.0,876.0,5.618827318830881
62864.513162448064,106482.0,18333.0,917.0,5.62882523220469
62864.523160361445,106464.0,18310.0,899.0,5.638823145585775
62864.533158274826,106472.0,18312.0,874.0,5.64882105896686
62864.5431561882,106477.0,18344.0,911.0,5.6588189723406686
62864.55315410158,106449.0,18300.0,870.0,5.668816885721753
62864.56315201496,106471.0,18318.0,886.0,5.678814799102838
62864.573149928336,106470.0,18305.0,878.0,5.688812712476647
62864.58314784172,106478.0,18298.0,859.0,5.698810625857732
62864.5931457551,106473.0,18338.0,902.0,5.708808539238817
62864.60314366847,106480.0,18310.0,886.0,5.718806452612625
62864.61314158185,106489.0,18305.0,887.0,5.72880436599371
62864.623139495234,106480.0,18277.0,875.0,5.738802279374795
62864.63313740861,106421.0,18281.0,882.0,5.748800192748604
62864.64313532199,106479.0,18307.0,883.0,5.758798106129689
62864.65313323537,106439.0,18334.0,882.0,5.7687960195107735
62864.66313114874,106467.0,18311.0,914.0,5.778793932884582
62864.673129062125,106485.0,18314.0,863.0,5.788791846265667
62864.683126975506,106486.0,18308.0,890.0,5.798789759646752
62864.69312488888,106482.0,18319.0,905.0,5.808787673020561
62864.70312280226,106465.0,18311.0,874.0,5.818785586401646
62864.71312071564,106517.0,18334.0,913.0,5.82878349978273
62864.723118629016,106486.0,18306.0,879.0,5.838781413156539
62864.7331165424,106487.0,18301.0,880.0,5.848779326537624
62864.74311445578,106502.0,18350.0,864.0,5.858777239918709
62864.75311236915,106454.0,18327.0,873.0,5.868775153292518
62864.76311028253,106493.0,18323.0,887.0,5.878773066673602
62864.773108195914,106453.0,18284.0,876.0,5.888770980054687
62864.78310610929,106471.0,18295.0,872.0,5.898768893428496
62864.79310402267,106505.0,18300.0,890.0,5.908766806809581
62864.80310193605,106499.0,18314.0,889.0,5.918764720190666
62864.81309984942,106470.0,18293.0,909.0,5.9287626335644745
62864.823097762805,106478.0,18311.0,888.0,5.938760546945559
62864.833095676186,106471.0,18279.0,863.0,5.948758460326644
62864.84309358956,106496.0,18311.0,893.0,5.958756373700453
62864.85309150294,106474.0,18318.0,891.0,5.968754287081538
62864.86308941632,106506.0,18322.0,891.0,5.978752200462623
62864.873087329695,106531.0,18338.0,919.0,5.988750113836431
62864.88308524308,106497.0,18312.0,902.0,5.998748027217516
62864.89308315646,106533.0,18317.0,922.0,6.008745940598601
62864.90308106983,106489.0,18315.0,863.0,6.01874385397241
62864.91307898321,106508.0,18338.0,903.0,6.028741767353495
62864.92307689659,106498.0,18317.0,860.0,6.0387396807345795
62864.93307480997,106505.0,18295.0,910.0,6.048737594108388
62864.94307272335,106500.0,18331.0,899.0,6.058735507489473
62864.95307063673,106473.0,18282.0,884.0,6.068733420870558
62864.9630685501,106487.0,18323.0,887.0,6.078731334244367
62864.973066463484,106489.0,18292.0,877.0,6.0887292476254515
62864.983064376866,106466.0,18288.0,875.0,6.098727161006536
62864.99306229025,106470.0,18333.0,873.0,6.108725074387621
62865.00306020362,106472.0,18311.0,891.0,6.11872298776143
62865.013058117,106488.0,18339.0,905.0,6.128720901142515
62865.02305603038,106507.0,18310.0,889.0,6.1387188145236
62865.03305394376,106453.0,18334.0,886.0,6.148716727897408
62865.04305185714,106460.0,18294.0,877.0,6.158714641278493
62865.05304977052,106474.0,18304.0,887.0,6.168712554659578
62865.06304768389,106498.0,18346.0,881.0,6.178710468033387
62865.07304559727,106495.0,18294.0,889.0,6.188708381414472
62865.083043510655,106507.0,18331.0,883.0,6.1987062947955565
62865.09304142403,106483.0,18326.0,880.0,6.208704208169365
62865.10303933741,106469.0,18302.0,895.0,6.21870212155045
62865.11303725079,106493.0,18326.0,909.0,6.228700034931535
62865.123035164164,106467.0,18303.0,893.0,6.238697948305344
62865.133033077545,106481.0,18314.0,882.0,6.2486958616864285
62865.14303099093,106486.0,18314.0,897.0,6.258693775067513
62865.1530289043,106450.0,18297.0,874.0,6.268691688441322
62865.16302681768,106414.0,18331.0,874.0,6.278689601822407
62865.17302473106,106474.0,18322.0,892.0,6.288687515203492
62865.183022644436,106477.0,18317.0,872.0,6.298685428577301
62865.19302055782,106481.0,18323.0,866.0,6.308683341958385
62865.2030184712,106491.0,18329.0,908.0,6.31868125533947
62865.21301638457,106489.0,18317.0,889.0,6.328679168713279
62865.22301429795,106485.0,18302.0,870.0,6.338677082094364
62865.233012211334,106497.0,18297.0,909.0,6.348674995475449
62865.24301012471,106468.0,18301.0,867.0,6.3586729088492575
62865.25300803809,106492.0,18319.0,894.0,6.368670822230342
62865.26300595147,106513.0,18309.0,902.0,6.378668735611427
62865.273003864844,106506.0,18333.0,921.0,6.388666648985236
62865.283001778225,106492.0,18341.0,894.0,6.398664562366321
62865.29299969161,106472.0,18301.0,912.0,6.4086624757474056
62865.30299760498,106450.0,18302.0,902.0,6.418660389121214
62865.31299551836,106494.0,18313.0,890.0,6.428658302502299
62865.32299343174,106465.0,18301.0,897.0,6.438656215883384
62865.332991345116,106481.0,18316.0,888.0,6.448654129257193
62865.3429892585,106474.0,18332.0,890.0,6.458652042638278
62865.35298717188,106517.0,18312.0,913.0,6.468649956019362
62865.36298508525,106503.0,18335.0,879.0,6.478647869393171
62865.37298299863,106492.0,18312.0,894.0,6.488645782774256
62865.382980912014,106474.0,18308.0,888.0,6.498643696155341
62865.39297882539,106482.0,18307.0,881.0,6.50864160952915
62865.40297673877,106511.0,18321.0,918.0,6.5186395229102345
62865.41297465215,106484.0,18322.0,888.0,6.528637436291319
62865.422972565524,106486.0,18319.0,874.0,6.538635349665128
62865.432970478905,106486.0,18333.0,906.0,6.548633263046213
62865.442968392286,106461.0,18308.0,869.0,6.558631176427298
62865.45296630566,106498.0,18307.0,890.0,6.568629089801107
62865.46296421904,106501.0,18321.0,915.0,6.578627003182191
62865.47296213242,106454.0,18303.0,875.0,6.588624916563276
62865.482960045796,106494.0,18296.0,900.0,6.598622829937085
62865.49295795918,106494.0,18316.0,882.0,6.60862074331817
62865.50295587256,106466.0,18311.0,875.0,6.618618656699255
62865.51295378593,106474.0,18350.0,887.0,6.6286165700730635
62865.52295169931,106500.0,18324.0,895.0,6.638614483454148
62865.532949612694,106487.0,18315.0,891.0,6.648612396835233
62865.54294752607,106505.0,18315.0,851.0,6.658610310209042
62865.55294543945,106472.0,18298.0,879.0,6.668608223590127
62865.56294335283,106487.0,18320.0,888.0,6.6786061369712115
62865.57294126621,106496.0,18309.0,888.0,6.688604050352296
62865.582939179585,106506.0,18339.0,871.0,6.698601963726105
62865.592937092966,106476.0,18280.0,875.0,6.70859987710719
62865.60293500635,106525.0,18340.0,873.0,6.718597790488275
62865.61293291972,106506.0,18326.0,877.0,6.728595703862084
62865.6229308331,106483.0,18306.0,925.0,6.738593617243168
62865.63292874648,106524.0,18338.0,907.0,6.748591530624253
62865.64292665986,106481.0,18304.0,873.0,6.758589443998062
62865.65292457324,106510.0,18313.0,913.0,6.768587357379147
62865.66292248662,106507.0,18331.0,894.0,6.778585270760232
62865.67292039999,106477.0,18303.0,887.0,6.7885831841340405
62865.682918313374,106484.0,18321.0,908.0,6.798581097515125
62865.692916226755,106495.0,18321.0,893.0,6.80857901089621
62865.70291414013,106490.0,18305.0,890.0,6.818576924270019
62865.71291205351,106503.0,18321.0,859.0,6.828574837651104
62865.72290996689,106529.0,18322.0,904.0,6.8385727510321885
62865.732907880265,106489.0,18293.0,879.0,6.848570664405997
62865.742905793646,106503.0,18315.0,896.0,6.858568577787082
62865.75290370703,106515.0,18303.0,885.0,6.868566491168167
62865.7629016204,106542.0,18314.0,876.0,6.878564404541976
62865.77289953378,106527.0,18333.0,902.0,6.888562317923061
62865.78289744716,106512.0,18314.0,892.0,6.898560231304145
62865.79289536054,106473.0,18309.0,874.0,6.908558144677954
62865.80289327392,106523.0,18324.0,909.0,6.918556058059039
62865.8128911873,106488.0,18282.0,879.0,6.928553971440124
62865.82288910067,106488.0,18304.0,874.0,6.938551884813933
62865.832887014054,106500.0,18317.0,888.0,6.9485497981950175
62865.842884927435,106478.0,18307.0,902.0,6.958547711576102
62865.85288284081,106465.0,18313.0,860.0,6.968545624949911
62865.86288075419,106500.0,18321.0,887.0,6.978543538330996
62865.87287866757,106509.0,18304.0,872.0,6.988541451712081
62865.882876580945,106513.0,18342.0,877.0,6.99853936508589
62865.892874494326,106499.0,18330.0,916.0,7.008537278466974
62865.90287240771,106494.0,18308.0,888.0,7.018535191848059
62865.91287032108,106487.0,18309.0,871.0,7.028533105221868
62865.92286823446,106494.0,18327.0,904.0,7.038531018602953
62865.93286614784,106487.0,18307.0,870.0,7.048528931984038
62865.94286406122,106507.0,18315.0,876.0,7.0585268453578465
62865.9528619746,106519.0,18315.0,897.0,7.068524758738931
62865.96285988798,106490.0,18329.0,917.0,7.078522672120016
62865.97285780135,106486.0,18336.0,900.0,7.088520585493825
62865.982855714734,106497.0,18310.0,890.0,7.09851849887491
62865.992853628115,106480.0,18309.0,871.0,7.1085164122559945
62866.00285154149,106489.0,18308.0,893.0,7.118514325629803
62866.01284945487,106499.0,18340.0,900.0,7.128512239010888
62866.02284736825,106490.0,18323.0,885.0,7.138510152391973
62866.032845281625,106453.0,18304.0,873.0,7.148508065765782
62866.042843195006,106514.0,18320.0,906.0,7.158505979146867
62866.05284110839,106489.0,18310.0,873.0,7.168503892527951
62866.06283902176,106505.0,18328.0,887.0,7.17850180590176
62866.07283693514,106511.0,18318.0,908.0,7.188499719282845
62866.08283484852,106491.0,18339.0,885.0,7.19849763266393
62866.0928327619,106524.0,18349.0,897.0,7.208495546037739
62866.10283067528,106501.0,18314.0,888.0,7.2184934594188235
62866.11282858866,106501.0,18319.0,872.0,7.228491372799908
62866.12282650203,106521.0,18327.0,868.0,7.238489286173717
62866.132824415414,106479.0,18312.0,870.0,7.248487199554802
62866.142822328795,106486.0,18311.0,893.0,7.258485112935887
62866.152820242176,106493.0,18314.0,892.0,7.2684830263169715
62866.16281815555,106482.0,18285.0,893.0,7.27848093969078
62866.17281606893,106525.0,18325.0,879.0,7.288478853071865
62866.18281398231,106495.0,18318.0,891.0,7.29847676645295
62866.192811895686,106468.0,18301.0,873.0,7.308474679826759
62866.20280980907,106461.0,18321.0,895.0,7.318472593207844
62866.21280772245,106509.0,18320.0,915.0,7.328470506588928
62866.22280563582,106471.0,18294.0,885.0,7.338468419962737
62866.2328035492,106480.0,18308.0,864.0,7.348466333343822
62866.242801462584,106497.0,18311.0,896.0,7.358464246724907
62866.25279937596,106476.0,18295.0,873.0,7.368462160098716
62866.26279728934,106497.0,18317.0,906.0,7.3784600734798005
62866.27279520272,106503.0,18313.0,882.0,7.388457986860885
62866.282793116094,106468.0,18283.0,871.0,7.398455900234694
62866.292791029475,106485.0,18302.0,900.0,7.408453813615779
62866.302788942856,106496.0,18314.0,878.0,7.418451726996864
62866.31278685623,106491.0,18319.0,900.0,7.428449640370673
62866.32278476961,106501.0,18346.0,871.0,7.438447553751757
62866.33278268299,106510.0,18312.0,898.0,7.448445467132842
62866.342780596366,106502.0,18324.0,892.0,7.458443380506651
62866.35277850975,106510.0,18361.0,894.0,7.468441293887736
62866.36277642313,106486.0,18296.0,890.0,7.478439207268821
62866.3727743365,106493.0,18331.0,922.0,7.4884371206426295
62866.38277224988,106477.0,18313.0,876.0,7.498435034023714
62866.392770163264,106504.0,18303.0,895.0,7.508432947404799
62866.40276807664,106501.0,18315.0,861.0,7.518430860778608
62866.41276599002,106528.0,18326.0,914.0,7.528428774159693
62866.4227639034,106497.0,18312.0,881.0,7.5384266875407775
62866.43276181677,106506.0,18311.0,889.0,7.548424600914586
62866.442759730155,106526.0,18341.0,899.0,7.558422514295671
62866.452757643536,106480.0,18316.0,868.0,7.568420427676756
62866.46275555691,106472.0,18292.0,877.0,7.578418341050565
62866.47275347029,106512.0,18306.0,893.0,7.58841625443165
62866.48275138367,106508.0,18328.0,919.0,7.598414167812734
62866.492749297046,106504.0,18302.0,888.0,7.608412081186543
62866.50274721043,106479.0,18296.0,893.0,7.618409994567628
62866.51274512381,106513.0,18323.0,890.0,7.628407907948713
62866.52274303718,106489.0,18306.0,886.0,7.638405821322522
62866.53274095056,106519.0,18342.0,913.0,7.6484037347036065
62866.542738863944,106486.0,18313.0,887.0,7.658401648084691
62866.55273677732,106516.0,18321.0,891.0,7.6683995614585
62866.5627346907,106542.0,18312.0,906.0,7.678397474839585
62866.57273260408,106517.0,18348.0,904.0,7.68839538822067
62866.58273051745,106528.0,18341.0,919.0,7.6983933015944785
62866.592728430835,106508.0,18323.0,891.0,7.708391214975563
62866.602726344216,106504.0,18289.0,887.0,7.718389128356648
62866.61272425759,106524.0,18329.0,922.0,7.728387041730457
62866.62272217097,106453.0,18296.0,860.0,7.738384955111542
62866.63272008435,106522.0,18310.0,887.0,7.748382868492627
62866.642717997725,106521.0,18339.0,900.0,7.758380781866435
62866.65271591111,106514.0,18299.0,873.0,7.76837869524752
62866.66271382449,106520.0,18331.0,892.0,7.778376608628605
62866.67271173786,106504.0,18315.0,889.0,7.788374522002414
62866.68270965124,106496.0,18300.0,876.0,7.798372435383499
62866.69270756462,106536.0,18329.0,908.0,7.8083703487645835
62866.702705478,106501.0,18319.0,908.0,7.818368262138392
62866.71270339138,106503.0,18318.0,885.0,7.828366175519477
62866.72270130476,106452.0,18322.0,882.0,7.838364088900562
62866.73269921814,106526.0,18329.0,917.0,7.848362002281647
62866.742697131514,106498.0,18298.0,868.0,7.8583599156554556
62866.752695044896,106486.0,18333.0,897.0,7.86835782903654
62866.76269295828,106491.0,18319.0,921.0,7.878355742417625
62866.77269087165,106505.0,18336.0,917.0,7.888353655791434
62866.78268878503,106508.0,18338.0,909.0,7.898351569172519
62866.79268669841,106499.0,18321.0,892.0,7.908349482553604
62866.80268461179,106494.0,18300.0,887.0,7.918347395927412
62866.81268252517,106519.0,18323.0,897.0,7.928345309308497
62866.82268043855,106502.0,18297.0,887.0,7.938343222689582
62866.83267835192,106495.0,18319.0,880.0,7.948341136063391
62866.8426762653,106506.0,18322.0,888.0,7.958339049444476
62866.852674178685,106482.0,18300.0,889.0,7.9683369628255605
62866.86267209206,106492.0,18314.0,874.0,7.978334876199369
62866.87267000544,106500.0,18317.0,898.0,7.988332789580454
62866.88266791882,106480.0,18298.0,875.0,7.998330702961539
62866.892665832194,106510.0,18354.0,906.0,8.008328616335348
62866.902663745575,106522.0,18326.0,897.0,8.018326529716433
62866.91266165896,106493.0,18323.0,876.0,8.028324443097517
62866.92265957233,106497.0,18318.0,872.0,8.038322356471326
62866.93265748571,106502.0,18291.0,887.0,8.048320269852411
62866.94265539909,106476.0,18299.0,897.0,8.058318183233496
62866.952653312466,106502.0,18309.0,886.0,8.068316096607305
62866.96265122585,106524.0,18346.0,888.0,8.07831400998839
62866.97264913923,106482.0,18305.0,870.0,8.088311923369474
62866.9826470526,106492.0,18344.0,909.0,8.098309836743283
62866.99264496598,106495.0,18320.0,878.0,8.108307750124368
62867.002642879364,106478.0,18315.0,893.0,8.118305663505453
62867.01264079274,106480.0,18312.0,905.0,8.128303576879262
62867.02263870612,106483.0,18298.0,876.0,8.138301490260346
62867.0326366195,106494.0,18323.0,876.0,8.148299403641431
62867.042634532874,106516.0,18338.0,888.0,8.15829731701524
62867.052632446255,106527.0,18335.0,876.0,8.168295230396325
62867.06263035964,106486.0,18298.0,870.0,8.17829314377741
62867.07262827301,106482.0,18320.0,874.0,8.188291057151218
62867.08262618639,106501.0,18311.0,888.0,8.198288970532303
62867.09262409977,106536.0,18353.0,895.0,8.208286883913388
62867.102622013146,106520.0,18317.0,905.0,8.218284797287197
62867.11261992653,106493.0,18309.0,900.0,8.228282710668282
62867.12261783991,106509.0,18327.0,890.0,8.238280624049366
62867.13261575328,106485.0,18315.0,880.0,8.248278537423175
62867.14261366666,106486.0,18333.0,879.0,8.25827645080426
62867.152611580044,106526.0,18365.0,905.0,8.268274364185345
62867.16260949342,106493.0,18311.0,888.0,8.278272277559154
62867.1726074068,106504.0,18329.0,907.0,8.288270190940239
62867.18260532018,106514.0,18332.0,915.0,8.298268104321323
62867.192603233554,106492.0,18318.0,876.0,8.308266017695132
62867.202601146935,106521.0,18318.0,877.0,8.318263931076217
62867.212599060316,106521.0,18322.0,879.0,8.328261844457302
62867.22259697369,106503.0,18316.0,895.0,8.33825975783111
62867.23259488707,106487.0,18307.0,863.0,8.348257671212195
62867.24259280045,106508.0,18322.0,888.0,8.35825558459328
62867.252590713826,106549.0,18331.0,920.0,8.368253497967089
62867.26258862721,106500.0,18312.0,878.0,8.378251411348174
62867.27258654059,106489.0,18324.0,874.0,8.388249324729259
62867.28258445396,106470.0,18302.0,875.0,8.398247238103068
62867.29258236734,106478.0,18312.0,877.0,8.408245151484152
62867.302580280724,106503.0,18314.0,893.0,8.418243064865237
62867.312578194105,106544.0,18318.0,907.0,8.428240978246322
62867.32257610748,106506.0,18329.0,883.0,8.43823889162013
62867.33257402086,106477.0,18313.0,897.0,8.448236805001216
62867.34257193424,106524.0,18333.0,909.0,8.4582347183823
62867.352569847615,106521.0,18322.0,908.0,8.46823263175611
62867.362567760996,106512.0,18326.0,890.0,8.478230545137194
62867.37256567438,106487.0,18341.0,895.0,8.488228458518279
62867.38256358775,106505.0,18332.0,909.0,8.498226371892088
62867.39256150113,106510.0,18356.0,889.0,8.508224285273172
62867.40255941451,106506.0,18326.0,886.0,8.518222198654257
62867.41255732789,106495.0,18338.0,902.0,8.528220112028066
62867.42255524127,106529.0,18343.0,914.0,8.53821802540915
62867.43255315465,106493.0,18297.0,882.0,8.548215938790236
62867.44255106802,106523.0,18317.0,890.0,8.558213852164045
62867.452548981404,106524.0,18302.0,922.0,8.56821176554513
62867.462546894785,106514.0,18345.0,899.0,8.578209678926214
62867.47254480816,106497.0,18312.0,871.0,8.588207592300023
62867.48254272154,106514.0,18316.0,878.0,8.598205505681108
62867.49254063492,106530.0,18305.0,870.0,8.608203419062193
62867.502538548295,106506.0,18315.0,893.0,8.618201332436001
62867.512536461676,106510.0,18320.0,904.0,8.628199245817086
62867.52253437506,106524.0,18325.0,889.0,8.638197159198171
62867.53253228843,106514.0,18348.0,869.0,8.64819507257198
62867.54253020181,106531.0,18322.0,911.0,8.658192985953065
62867.55252811519,106485.0,18304.0,868.0,8.66819089933415
62867.56252602857,106501.0,18328.0,888.0,8.678188812707958
62867.57252394195,106516.0,18345.0,891.0,8.688186726089043
62867.58252185533,106522.0,18349.0,910.0,8.698184639470128
62867.5925197687,106494.0,18308.0,880.0,8.708182552843937
62867.602517682084,106497.0,18317.0,891.0,8.718180466225022
62867.612515595465,106468.0,18307.0,906.0,8.728178379606106
62867.62251350884,106523.0,18331.0,905.0,8.738176292979915
62867.63251142222,106467.0,18310.0,887.0,8.748174206361
62867.6425093356,106497.0,18327.0,889.0,8.758172119742085
62867.652507248975,106453.0,18351.0,890.0,8.768170033115894
62867.662505162356,106468.0,18332.0,869.0,8.778167946496978
62867.67250307574,106499.0,18319.0,873.0,8.788165859878063
62867.68250098911,106488.0,18327.0,853.0,8.798163773251872
62867.69249890249,106498.0,18321.0,898.0,8.808161686632957
62867.70249681587,106476.0,18313.0,864.0,8.818159600014042
62867.71249472925,106499.0,18311.0,891.0,8.82815751338785
62867.72249264263,106474.0,18321.0,881.0,8.838155426768935
62867.73249055601,106488.0,18277.0,891.0,8.84815334015002
62867.74248846938,106501.0,18315.0,895.0,8.858151253523829
62867.752486382764,106466.0,18314.0,858.0,8.868149166904914
62867.762484296145,106503.0,18323.0,906.0,8.878147080285999
62867.77248220952,106496.0,18333.0,894.0,8.888144993659807
62867.7824801229,106530.0,18353.0,900.0,8.898142907040892
62867.79247803628,106468.0,18318.0,866.0,8.908140820421977
62867.802475949655,106486.0,18304.0,854.0,8.918138733795786
62867.812473863036,106519.0,18324.0,896.0,8.92813664717687
62867.82247177642,106484.0,18333.0,892.0,8.938134560557955
62867.83246968979,106467.0,18317.0,876.0,8.948132473931764
62867.84246760317,106500.0,18332.0,853.0,8.958130387312849
62867.85246551655,106493.0,18316.0,891.0,8.968128300693934
62867.86246342993,106475.0,18309.0,868.0,8.978126214067743
62867.87246134331,106498.0,18342.0,885.0,8.988124127448827
62867.88245925669,106485.0,18300.0,882.0,8.998122040829912
62867.89245717007,106500.0,18308.0,884.0,9.008119954210997
62867.902455083444,106493.0,18322.0,905.0,9.018117867584806
62867.912452996825,106487.0,18300.0,889.0,9.02811578096589
62867.922450910206,106483.0,18326.0,878.0,9.038113694346976
62867.93244882358,106486.0,18306.0,888.0,9.048111607720784
62867.94244673696,106485.0,18310.0,885.0,9.05810952110187
62867.95244465034,106469.0,18316.0,876.0,9.068107434482954
62867.962442563716,106518.0,18318.0,898.0,9.078105347856763
62867.9724404771,106494.0,18323.0,884.0,9.088103261237848
62867.98243839048,106467.0,18321.0,874.0,9.098101174618932
62867.99243630385,106514.0,18346.0,906.0,9.108099087992741
62868.00243421723,106467.0,18299.0,863.0,9.118097001373826
62868.012432130614,106489.0,18317.0,884.0,9.12809491475491
62868.02243004399,106514.0,18346.0,871.0,9.13809282812872
62868.03242795737,106489.0,18314.0,879.0,9.148090741509805
62868.04242587075,106488.0,18333.0,886.0,9.15808865489089
62868.052423784124,106494.0,18328.0,886.0,9.168086568264698
62868.062421697505,106497.0,18313.0,874.0,9.178084481645783
62868.072419610886,106487.0,18303.0,884.0,9.188082395026868
62868.08241752426,106496.0,18324.0,910.0,9.198080308400677
62868.09241543764,106490.0,18323.0,881.0,9.208078221781761
62868.10241335102,106448.0,18326.0,864.0,9.218076135162846
62868.112411264396,106473.0,18312.0,887.0,9.228074048536655
62868.12240917778,106478.0,18302.0,905.0,9.23807196191774
62868.13240709116,106493.0,18327.0,885.0,9.248069875298825
62868.14240500453,106490.0,18333.0,885.0,9.258067788672633
62868.15240291791,106494.0,18334.0,885.0,9.268065702053718
62868.162400831294,106512.0,18323.0,915.0,9.278063615434803
62868.17239874467,106501.0,18318.0,881.0,9.288061528808612
62868.18239665805,106497.0,18299.0,878.0,9.298059442189697
62868.19239457143,106522.0,18332.0,907.0,9.308057355570782
62868.2023924848,106492.0,18296.0,871.0,9.31805526894459
62868.212390398185,106499.0,18309.0,881.0,9.328053182325675
62868.222388311566,106529.0,18302.0,919.0,9.33805109570676
62868.23238622494,106467.0,18300.0,870.0,9.348049009080569
62868.24238413832,106507.0,18296.0,900.0,9.358046922461654
62868.2523820517,106516.0,18318.0,883.0,9.368044835842738
62868.262379965076,106478.0,18332.0,877.0,9.378042749216547
62868.27237787846,106514.0,18343.0,899.0,9.388040662597632
62868.28237579184,106486.0,18315.0,884.0,9.398038575978717
62868.29237370521,106503.0,18322.0,886.0,9.408036489352526
62868.30237161859,106505.0,18327.0,857.0,9.41803440273361
62868.312369531974,106512.0,18306.0,899.0,9.428032316114695
62868.32236744535,106512.0,18338.0,898.0,9.438030229488504
62868.33236535873,106510.0,18323.0,890.0,9.448028142869589
62868.34236327211,106510.0,18293.0,903.0,9.458026056250674
62868.35236118548,106494.0,18298.0,884.0,9.468023969624483
62868.362359098865,106529.0,18333.0,906.0,9.478021883005567
62868.372357012246,106513.0,18318.0,861.0,9.488019796386652
62868.38235492562,106482.0,18322.0,908.0,9.498017709760461
62868.392352839,106533.0,18350.0,907.0,9.508015623141546
62868.40235075238,106488.0,18303.0,869.0,9.51801353652263
62868.412348665755,106507.0,18317.0,916.0,9.52801144989644
62868.42234657914,106482.0,18351.0,880.0,9.538009363277524
62868.43234449252,106478.0,18302.0,867.0,9.548007276658609
62868.44234240589,106472.0,18346.0,881.0,9.558005190032418
62868.45234031927,106486.0,18315.0,880.0,9.568003103413503
62868.46233823265,106489.0,18314.0,886.0,9.578001016794587
62868.472336146035,106518.0,18350.0,907.0,9.587998930175672
62868.48233405941,106468.0,18290.0,874.0,9.597996843549481
62868.49233197279,106474.0,18325.0,892.0,9.607994756930566
62868.50232988617,106480.0,18326.0,882.0,9.61799267031165
62868.512327799544,106458.0,18297.0,903.0,9.62799058368546
62868.522325712926,106478.0,18292.0,900.0,9.637988497066544
62868.53232362631,106480.0,18322.0,904.0,9.64798641044763
62868.54232153968,106487.0,18320.0,894.0,9.657984323821438
62868.55231945306,106459.0,18345.0,898.0,9.667982237202523
62868.56231736644,106500.0,18310.0,916.0,9.677980150583608
62868.57231527982,106453.0,18294.0,881.0,9.687978063957416
62868.5823131932,106473.0,18307.0,886.0,9.697975977338501
62868.59231110658,106450.0,18335.0,899.0,9.707973890719586
62868.60230901995,106459.0,18302.0,878.0,9.717971804093395
62868.61230693333,106483.0,18327.0,892.0,9.72796971747448
62868.622304846715,106470.0,18319.0,881.0,9.737967630855564
62868.63230276009,106444.0,18289.0,874.0,9.747965544229373
62868.64230067347,106493.0,18352.0,866.0,9.757963457610458
62868.65229858685,106483.0,18300.0,884.0,9.767961370991543
62868.662296500224,106474.0,18320.0,887.0,9.777959284365352
62868.672294413605,106475.0,18323.0,896.0,9.787957197746437
62868.68229232699,106455.0,18308.0,892.0,9.797955111127521
62868.69229024036,106474.0,18288.0,889.0,9.80795302450133
62868.70228815374,106473.0,18319.0,898.0,9.817950937882415
62868.71228606712,106460.0,18339.0,908.0,9.8279488512635
62868.722283980496,106442.0,18330.0,892.0,9.837946764637309
62868.73228189388,106448.0,18328.0,902.0,9.847944678018393
62868.74227980726,106465.0,18298.0,867.0,9.857942591399478
62868.75227772063,106470.0,18328.0,867.0,9.867940504773287
62868.76227563401,106473.0,18322.0,903.0,9.877938418154372
62868.772273547394,106439.0,18284.0,863.0,9.887936331535457
62868.78227146077,106464.0,18314.0,889.0,9.897934244909266
62868.79226937415,106475.0,18299.0,876.0,9.90793215829035
62868.80226728753,106432.0,18304.0,857.0,9.917930071671435
62868.812265200904,106472.0,18338.0,895.0,9.927927985045244
62868.822263114285,106469.0,18309.0,891.0,9.937925898426329
62868.83226102767,106426.0,18305.0,891.0,9.947923811807414
62868.84225894104,106481.0,18342.0,902.0,9.957921725181222
62868.85225685442,106447.0,18287.0,899.0,9.967919638562307
62868.8622547678,106471.0,18316.0,900.0,9.977917551943392
62868.872252681176,106489.0,18327.0,871.0,9.9879154653172
62868.88225059456,106436.0,18288.0,881.0,9.997913378698286
62868.89224850794,106437.0,18319.0,885.0,10.00791129207937
62868.90224642131,106472.0,18312.0,887.0,10.01790920545318
62868.91224433469,106499.0,18308.0,885.0,10.027907118834264
62868.922242248074,106485.0,18335.0,865.0,10.037905032215349
62868.93224016145,106471.0,18315.0,872.0,10.047902945589158
62868.94223807483,106458.0,18319.0,893.0,10.057900858970243
62868.95223598821,106467.0,18328.0,887.0,10.067898772351327
62868.962233901584,106486.0,18327.0,911.0,10.077896685725136
62868.972231814965,106432.0,18287.0,867.0,10.087894599106221
62868.982229728346,106466.0,18321.0,885.0,10.097892512487306
62868.99222764172,106493.0,18350.0,898.0,10.107890425861115
62869.0022255551,106430.0,18301.0,865.0,10.1178883392422
62869.01222346848,106479.0,18330.0,907.0,10.127886252623284
62869.022221381856,106461.0,18315.0,884.0,10.137884165997093
62869.03221929524,106461.0,18315.0,877.0,10.147882079378178
62869.04221720862,106496.0,18326.0,892.0,10.157879992759263
62869.052215122,106451.0,18301.0,879.0,10.167877906140347
62869.06221303537,106475.0,18316.0,881.0,10.177875819514156
62869.072210948754,106450.0,18327.0,893.0,10.187873732895241
62869.082208862135,106476.0,18317.0,900.0,10.197871646276326
62869.09220677551,106475.0,18315.0,863.0,10.207869559650135
62869.10220468889,106470.0,18318.0,911.0,10.21786747303122
62869.11220260227,106451.0,18338.0,895.0,10.227865386412304
62869.122200515645,106485.0,18320.0,900.0,10.237863299786113
62869.132198429026,106480.0,18316.0,888.0,10.247861213167198
62869.14219634241,106446.0,18316.0,885.0,10.257859126548283
62869.15219425578,106449.0,18341.0,881.0,10.267857039922092
62869.16219216916,106478.0,18329.0,896.0,10.277854953303176
62869.17219008254,106462.0,18299.0,880.0,10.287852866684261
62869.18218799592,106496.0,18316.0,902.0,10.29785078005807
62869.1921859093,106484.0,18325.0,886.0,10.307848693439155
62869.20218382268,106462.0,18305.0,884.0,10.31784660682024
62869.21218173605,106508.0,18326.0,886.0,10.327844520194049
62869.222179649434,106454.0,18301.0,877.0,10.337842433575133
62869.232177562815,106490.0,18322.0,880.0,10.347840346956218
62869.24217547619,106501.0,18345.0,886.0,10.357838260330027
62869.25217338957,106478.0,18309.0,862.0,10.367836173711112
62869.26217130295,106496.0,18347.0,893.0,10.377834087092197
62869.272169216325,106481.0,18302.0,901.0,10.387832000466005
62869.282167129706,106448.0,18305.0,894.0,10.39782991384709
62869.29216504309,106465.0,18307.0,892.0,10.407827827228175
62869.30216295646,106473.0,18306.0,901.0,10.417825740601984
62869.31216086984,106466.0,18317.0,889.0,10.427823653983069
62869.32215878322,106469.0,18324.0,894.0,10.437821567364153
62869.3321566966,106433.0,18296.0,874.0,10.447819480737962
62869.34215460998,106434.0,18324.0,878.0,10.457817394119047
62869.35215252336,106465.0,18324.0,883.0,10.467815307500132
62869.36215043673,106467.0,18326.0,870.0,10.47781322087394
62869.372148350114,106439.0,18295.0,878.0,10.487811134255026
62869.382146263495,106478.0,18324.0,901.0,10.49780904763611
62869.39214417687,106448.0,18312.0,890.0,10.50780696100992
62869.40214209025,106411.0,18330.0,848.0,10.517804874391004
62869.41214000363,106457.0,18304.0,887.0,10.527802787772089
62869.422137917005,106464.0,18319.0,885.0,10.537800701145898
62869.432135830386,106432.0,18328.0,882.0,10.547798614526982
62869.44213374377,106460.0,18341.0,909.0,10.557796527908067
62869.45213165714,106402.0,18312.0,882.0,10.567794441281876
62869.46212957052,106460.0,18307.0,907.0,10.57779235466296
62869.4721274839,106442.0,18321.0,882.0,10.587790268044046
62869.48212539728,106439.0,18289.0,883.0,10.597788181417855
62869.49212331066,106430.0,18291.0,884.0,10.60778609479894
62869.50212122404,106464.0,18341.0,914.0,10.617784008180024
62869.51211913741,106437.0,18314.0,881.0,10.627781921553833
62869.522117050794,106436.0,18330.0,880.0,10.637779834934918
62869.532114964175,106463.0,18321.0,901.0,10.647777748316003
62869.54211287755,106436.0,18313.0,869.0,10.657775661689811
62869.55211079093,106449.0,18311.0,883.0,10.667773575070896
62869.56210870431,106438.0,18284.0,882.0,10.677771488451981
62869.572106617685,106424.0,18293.0,863.0,10.68776940182579
62869.582104531066,106462.0,18339.0,910.0,10.697767315206875
62869.59210244445,106446.0,18323.0,881.0,10.70776522858796
62869.60210035782,106432.0,18313.0,863.0,10.717763141961768
62869.6120982712,106465.0,18318.0,897.0,10.727761055342853
62869.62209618458,106438.0,18347.0,914.0,10.737758968723938
62869.632094097964,106439.0,18314.0,888.0,10.747756882105023
62869.64209201134,106447.0,18324.0,886.0,10.757754795478832
62869.65208992472,106418.0,18302.0,902.0,10.767752708859916
62869.6620878381,106453.0,18328.0,920.0,10.777750622241001
62869.672085751474,106462.0,18330.0,868.0,10.78774853561481
62869.682083664855,106405.0,18299.0,872.0,10.797746448995895
62869.692081578236,106398.0,18313.0,874.0,10.80774436237698
62869.70207949161,106465.0,18319.0,899.0,10.817742275750788
62869.71207740499,106443.0,18316.0,894.0,10.827740189131873
62869.72207531837,106470.0,18339.0,899.0,10.837738102512958
62869.732073231746,106448.0,18323.0,919.0,10.847736015886767
62869.74207114513,106450.0,18325.0,903.0,10.857733929267852
62869.75206905851,106444.0,18310.0,888.0,10.867731842648936
62869.76206697188,106414.0,18297.0,893.0,10.877729756022745
62869.77206488526,106417.0,18311.0,870.0,10.88772766940383
62869.782062798644,106422.0,18305.0,900.0,10.897725582784915
62869.79206071202,106447.0,18316.0,870.0,10.907723496158724
62869.8020586254,106414.0,18297.0,897.0,10.917721409539809
62869.81205653878,106455.0,18334.0,904.0,10.927719322920893
62869.822054452154,106409.0,18293.0,905.0,10.937717236294702
62869.832052365535,106446.0,18315.0,915.0,10.947715149675787
62869.842050278916,106421.0,18342.0,887.0,10.957713063056872
62869.85204819229,106414.0,18305.0,881.0,10.96771097643068
62869.86204610567,106455.0,18279.0,886.0,10.977708889811765
62869.87204401905,106433.0,18318.0,872.0,10.98770680319285
62869.882041932426,106435.0,18312.0,892.0,10.997704716566659
62869.89203984581,106445.0,18307.0,874.0,11.007702629947744
62869.90203775919,106450.0,18327.0,902.0,11.017700543328829
62869.91203567256,106467.0,18320.0,904.0,11.027698456702637
62869.92203358594,106440.0,18331.0,890.0,11.037696370083722
62869.932031499324,106467.0,18309.0,861.0,11.047694283464807
62869.9420294127,106475.0,18323.0,895.0,11.057692196838616
62869.95202732608,106437.0,18300.0,876.0,11.0676901102197
62869.96202523946,106448.0,18315.0,886.0,11.077688023600786
62869.97202315283,106428.0,18314.0,887.0,11.087685936974594
62869.982021066215,106481.0,18348.0,905.0,11.09768385035568
62869.992018979596,106447.0,18291.0,889.0,11.107681763736764
62870.00201689297,106461.0,18318.0,889.0,11.117679677110573
62870.01201480635,106459.0,18334.0,886.0,11.127677590491658
62870.02201271973,106437.0,18306.0,887.0,11.137675503872742
62870.032010633106,106425.0,18332.0,897.0,11.147673417246551
62870.04200854649,106446.0,18304.0,892.0,11.157671330627636
62870.05200645987,106452.0,18315.0,872.0,11.16766924400872
62870.06200437324,106468.0,18332.0,898.0,11.17766715738253
62870.07200228662,106485.0,18278.0,894.0,11.187665070763614
62870.082000200004,106454.0,18313.0,888.0,11.1976629841447
62870.09199811338,106459.0,18308.0,870.0,11.207660897518508
62870.10199602676,106420.0,18334.0,889.0,11.217658810899593
62870.11199394014,106486.0,18331.0,905.0,11.227656724280678
62870.12199185351,106455.0,18322.0,885.0,11.237654637654487
62870.131989766895,106482.0,18329.0,921.0,11.247652551035571
62870.141987680276,106474.0,18308.0,905.0,11.257650464416656
62870.15198559365,106472.0,18330.0,892.0,11.267648377790465
62870.16198350703,106467.0,18313.0,884.0,11.27764629117155
62870.17198142041,106446.0,18315.0,877.0,11.287644204552635
62870.181979333785,106447.0,18293.0,877.0,11.297642117926443
62870.19197724717,106428.0,18295.0,868.0,11.307640031307528
62870.20197516055,106442.0,18341.0,877.0,11.317637944688613
62870.21197307393,106451.0,18337.0,901.0,11.327635858069698
62870.2219709873,106435.0,18318.0,878.0,11.337633771443507
62870.23196890068,106463.0,18343.0,879.0,11.347631684824592
62870.241966814065,106430.0,18314.0,887.0,11.357629598205676
62870.25196472744,106439.0,18308.0,889.0,11.367627511579485
62870.26196264082,106468.0,18333.0,895.0,11.37762542496057
62870.2719605542,106419.0,18293.0,877.0,11.387623338341655
62870.281958467574,106433.0,18317.0,885.0,11.397621251715464
62870.291956380956,106422.0,18316.0,868.0,11.407619165096548
62870.30195429434,106444.0,18333.0,851.0,11.417617078477633
62870.31195220771,106420.0,18314.0,850.0,11.427614991851442
62870.32195012109,106442.0,18324.0,886.0,11.437612905232527
62870.33194803447,106431.0,18286.0,865.0,11.447610818613612
62870.34194594785,106421.0,18312.0,857.0,11.45760873198742
62870.35194386123,106443.0,18323.0,912.0,11.467606645368505
62870.36194177461,106425.0,18310.0,884.0,11.47760455874959
62870.37193968798,106433.0,18332.0,879.0,11.487602472123399
62870.38193760136,106418.0,18342.0,894.0,11.497600385504484
62870.391935514745,106454.0,18319.0,906.0,11.507598298885569
62870.40193342812,106436.0,18322.0,891.0,11.517596212259377
62870.4119313415,106414.0,18304.0,898.0,11.527594125640462
62870.42192925488,106434.0,18312.0,925.0,11.537592039021547
62870.431927168254,106419.0,18308.0,876.0,11.547589952395356
62870.441925081635,106434.0,18320.0,891.0,11.55758786577644
62870.45192299502,106427.0,18318.0,854.0,11.567585779157525
62870.46192090839,106403.0,18323.0,850.0,11.577583692531334
62870.47191882177,106399.0,18289.0,871.0,11.587581605912419
62870.48191673515,106430.0,18320.0,872.0,11.597579519293504
62870.491914648526,106397.0,18333.0,888.0,11.607577432667313
62870.50191256191,106442.0,18339.0,903.0,11.617575346048397
62870.51191047529,106411.0,18297.0,885.0,11.627573259429482
62870.52190838866,106433.0,18319.0,886.0,11.637571172803291
62870.53190630204,106430.0,18282.0,877.0,11.647569086184376
62870.541904215424,106449.0,18304.0,907.0,11.65756699956546
62870.5519021288,106430.0,18303.0,906.0,11.66756491293927
62870.56190004218,106421.0,18327.0,887.0,11.677562826320354
62870.57189795556,106441.0,18307.0,889.0,11.68756073970144
62870.581895868934,106437.0,18312.0,853.0,11.697558653075248
62870.591893782315,106458.0,18326.0,889.0,11.707556566456333
62870.6018916957,106401.0,18300.0,883.0,11.717554479837418
62870.61188960907,106423.0,18321.0,883.0,11.727552393211226
62870.62188752245,106429.0,18331.0,891.0,11.737550306592311
62870.63188543583,106419.0,18289.0,873.0,11.747548219973396
62870.641883349206,106415.0,18306.0,880.0,11.757546133347205
62870.65188126259,106425.0,18309.0,887.0,11.76754404672829
62870.66187917597,106419.0,18309.0,883.0,11.777541960109374
62870.67187708934,106410.0,18299.0,868.0,11.787539873483183
62870.68187500272,106455.0,18310.0,898.0,11.797537786864268
62870.691872916104,106435.0,18312.0,874.0,11.807535700245353
62870.70187082948,106434.0,18288.0,879.0,11.817533613619162
62870.71186874286,106465.0,18328.0,889.0,11.827531527000247
62870.72186665624,106444.0,18329.0,901.0,11.837529440381331
62870.731864569614,106440.0,18319.0,893.0,11.84752735375514
62870.741862482995,106421.0,18313.0,905.0,11.857525267136225
62870.751860396376,106434.0,18320.0,904.0,11.86752318051731
62870.76185830975,106404.0,18317.0,892.0,11.877521093891119
62870.77185622313,106436.0,18317.0,879.0,11.887519007272203
62870.78185413651,106476.0,18308.0,909.0,11.897516920653288
62870.791852049886,106454.0,18350.0,908.0,11.907514834027097
62870.80184996327,106406.0,18314.0,867.0,11.917512747408182
62870.81184787665,106438.0,18311.0,880.0,11.927510660789267
62870.82184579003,106477.0,18320.0,874.0,11.937508574170351
62870.8318437034,106449.0,18306.0,865.0,11.94750648754416
62870.841841616784,106438.0,18329.0,868.0,11.957504400925245
62870.851839530165,106442.0,18310.0,885.0,11.96750231430633
62870.86183744354,106446.0,18314.0,887.0,11.977500227680139
62870.87183535692,106429.0,18311.0,870.0,11.987498141061224
62870.8818332703,106421.0,18301.0,886.0,11.997496054442308
62870.891831183675,106443.0,18310.0,882.0,12.007493967816117
62870.901829097056,106409.0,18316.0,886.0,12.017491881197202
62870.91182701044,106454.0,18315.0,924.0,12.027489794578287
62870.92182492381,106420.0,18332.0,903.0,12.037487707952096
62870.93182283719,106442.0,18317.0,880.0,12.04748562133318
62870.94182075057,106427.0,18327.0,903.0,12.057483534714265
62870.95181866395,106473.0,18324.0,917.0,12.067481448088074
62870.96181657733,106421.0,18333.0,890.0,12.077479361469159
62870.97181449071,106452.0,18312.0,877.0,12.087477274850244
62870.98181240408,106446.0,18310.0,899.0,12.097475188224053
62870.991810317464,106449.0,18323.0,854.0,12.107473101605137
62871.001808230845,106440.0,18311.0,871.0,12.117471014986222
62871.01180614422,106440.0,18318.0,882.0,12.127468928360031
62871.0218040576,106456.0,18329.0,884.0,12.137466841741116
62871.03180197098,106447.0,18307.0,881.0,12.1474647551222
62871.041799884355,106459.0,18295.0,885.0,12.15746266849601
62871.051797797736,106445.0,18315.0,879.0,12.167460581877094
62871.06179571112,106432.0,18328.0,873.0,12.177458495258179
62871.07179362449,106448.0,18301.0,866.0,12.187456408631988
62871.08179153787,106470.0,18330.0,915.0,12.197454322013073
62871.09178945125,106445.0,18315.0,889.0,12.207452235394157
62871.10178736463,106434.0,18315.0,872.0,12.217450148767966
62871.11178527801,106440.0,18311.0,872.0,12.227448062149051
62871.12178319139,106417.0,18313.0,882.0,12.237445975530136
62871.13178110476,106437.0,18335.0,907.0,12.247443888903945
62871.141779018144,106430.0,18326.0,905.0,12.25744180228503
62871.151776931525,106397.0,18305.0,866.0,12.267439715666114
62871.1617748449,106438.0,18345.0,860.0,12.277437629039923
62871.17177275828,106420.0,18309.0,883.0,12.287435542421008
62871.18177067166,106442.0,18309.0,879.0,12.297433455802093
62871.191768585035,106422.0,18329.0,882.0,12.307431369175902
62871.201766498416,106442.0,18303.0,904.0,12.317429282556986
62871.2117644118,106411.0,18324.0,862.0,12.327427195938071
62871.22176232517,106400.0,18290.0,896.0,12.33742510931188
62871.23176023855,106394.0,18324.0,899.0,12.347423022692965
62871.24175815193,106406.0,18311.0,875.0,12.35742093607405
62871.25175606531,106410.0,18309.0,903.0,12.367418849447859
62871.26175397869,106388.0,18319.0,839.0,12.377416762828943
62871.27175189207,106397.0,18304.0,867.0,12.387414676210028
62871.28174980544,106381.0,18319.0,860.0,12.397412589583837
62871.291747718824,106407.0,18305.0,877.0,12.407410502964922
62871.301745632205,106415.0,18318.0,892.0,12.417408416346007
62871.31174354558,106445.0,18337.0,879.0,12.427406329719815
62871.32174145896,106391.0,18341.0,862.0,12.4374042431009
62871.33173937234,106438.0,18333.0,865.0,12.447402156481985
62871.341737285715,106417.0,18324.0,872.0,12.457400069855794
62871.351735199096,106402.0,18289.0,884.0,12.467397983236879
62871.36173311248,106460.0,18344.0,900.0,12.477395896617963
62871.37173102585,106425.0,18313.0,859.0,12.487393809991772
62871.38172893923,106425.0,18308.0,886.0,12.497391723372857
62871.39172685261,106429.0,18322.0,875.0,12.507389636753942
62871.401724765994,106386.0,18283.0,899.0,12.517387550135027
62871.41172267937,106385.0,18311.0,870.0,12.527385463508836
62871.42172059275,106414.0,18325.0,889.0,12.53738337688992
62871.43171850613,106444.0,18311.0,892.0,12.547381290271005
62871.441716419504,106403.0,18311.0,883.0,12.557379203644814
62871.451714332885,106426.0,18296.0,875.0,12.567377117025899
62871.461712246266,106429.0,18320.0,883.0,12.577375030406984
62871.47171015964,106409.0,18321.0,866.0,12.587372943780792
62871.48170807302,106429.0,18293.0,914.0,12.597370857161877
62871.4917059864,106394.0,18309.0,861.0,12.607368770542962
62871.501703899776,106428.0,18311.0,889.0,12.61736668391677
62871.51170181316,106427.0,18341.0,891.0,12.627364597297856
62871.52169972654,106405.0,18300.0,867.0,12.63736251067894
62871.53169763991,106429.0,18328.0,875.0,12.64736042405275
62871.54169555329,106422.0,18316.0,889.0,12.657358337433834
62871.551693466674,106406.0,18278.0,889.0,12.667356250814919
62871.56169138005,106421.0,18282.0,890.0,12.677354164188728
62871.57168929343,106415.0,18297.0,873.0,12.687352077569813
62871.58168720681,106420.0,18316.0,882.0,12.697349990950897
62871.591685120184,106406.0,18332.0,877.0,12.707347904324706
62871.601683033565,106413.0,18337.0,894.0,12.717345817705791
62871.611680946946,106418.0,18313.0,868.0,12.727343731086876
62871.62167886032,106424.0,18321.0,886.0,12.737341644460685
62871.6316767737,106415.0,18329.0,882.0,12.74733955784177
62871.64167468708,106424.0,18315.0,870.0,12.757337471222854
62871.651672600456,106447.0,18339.0,903.0,12.767335384596663
62871.66167051384,106405.0,18289.0,865.0,12.777333297977748
62871.67166842722,106383.0,18284.0,857.0,12.787331211358833
62871.68166634059,106414.0,18311.0,889.0,12.797329124732642
62871.69166425397,106434.0,18306.0,879.0,12.807327038113726
62871.701662167354,106425.0,18325.0,882.0,12.817324951494811
62871.71166008073,106430.0,18318.0,893.0,12.82732286486862
62871.72165799411,106403.0,18299.0,871.0,12.837320778249705
62871.73165590749,106432.0,18303.0,888.0,12.84731869163079
62871.74165382086,106434.0,18317.0,879.0,12.857316605004598
62871.751651734245,106427.0,18328.0,893.0,12.867314518385683
62871.761649647626,106386.0,18337.0,885.0,12.877312431766768
62871.771647561,106405.0,18321.0,891.0,12.887310345140577
62871.78164547438,106436.0,18309.0,877.0,12.897308258521662
62871.79164338776,106452.0,18325.0,874.0,12.907306171902746
62871.801641301136,106442.0,18333.0,904.0,12.917304085276555
62871.81163921452,106414.0,18299.0,871.0,12.92730199865764
62871.8216371279,106430.0,18320.0,889.0,12.937299912038725
62871.83163504127,106456.0,18341.0,877.0,12.947297825412534
62871.84163295465,106412.0,18306.0,866.0,12.957295738793619
62871.851630868034,106441.0,18336.0,882.0,12.967293652174703
62871.86162878141,106430.0,18303.0,883.0,12.977291565548512
62871.87162669479,106398.0,18339.0,895.0,12.987289478929597
62871.88162460817,106466.0,18339.0,906.0,12.997287392310682
62871.89162252154,106433.0,18297.0,881.0,13.00728530568449
62871.901620434925,106440.0,18319.0,895.0,13.017283219065575
62871.911618348306,106446.0,18297.0,880.0,13.02728113244666
62871.92161626168,106390.0,18285.0,878.0,13.037279045820469
62871.93161417506,106386.0,18313.0,878.0,13.047276959201554
62871.94161208844,106466.0,18311.0,897.0,13.057274872582639
62871.951610001815,106441.0,18313.0,882.0,13.067272785956447
62871.9616079152,106428.0,18329.0,869.0,13.077270699337532
62871.97160582858,106461.0,18341.0,902.0,13.087268612718617
62871.98160374196,106436.0,18298.0,873.0,13.097266526099702
62871.99160165533,106432.0,18328.0,880.0,13.10726443947351
62872.00159956871,106447.0,18340.0,887.0,13.117262352854596
62872.011597482095,106418.0,18317.0,869.0,13.12726026623568
62872.02159539547,106443.0,18324.0,881.0,13.13725817960949
62872.03159330885,106429.0,18323.0,891.0,13.147256092990574
62872.04159122223,106412.0,18289.0,903.0,13.157254006371659
62872.051589135604,106423.0,18333.0,875.0,13.167251919745468
62872.061587048986,106383.0,18275.0,918.0,13.177249833126552
62872.07158496237,106412.0,18321.0,886.0,13.187247746507637
62872.08158287574,106427.0,18320.0,903.0,13.197245659881446
62872.09158078912,106402.0,18314.0,889.0,13.20724357326253
62872.1015787025,106409.0,18320.0,856.0,13.217241486643616
62872.11157661588,106424.0,18322.0,888.0,13.227239400017424
62872.12157452926,106439.0,18317.0,898.0,13.23723731339851
62872.13157244264,106399.0,18308.0,871.0,13.247235226779594
62872.14157035601,106424.0,18334.0,916.0,13.257233140153403
62872.15156826939,106413.0,18323.0,882.0,13.267231053534488
62872.161566182775,106389.0,18300.0,869.0,13.277228966915573
62872.17156409615,106427.0,18329.0,915.0,13.287226880289381
62872.18156200953,106381.0,18273.0,871.0,13.297224793670466
62872.19155992291,106409.0,18315.0,876.0,13.307222707051551
62872.201557836284,106417.0,18321.0,889.0,13.31722062042536
62872.211555749665,106422.0,18288.0,889.0,13.327218533806445
62872.22155366305,106403.0,18344.0,879.0,13.33721644718753
62872.23155157642,106410.0,18310.0,882.0,13.347214360561338
62872.2415494898,106418.0,18309.0,883.0,13.357212273942423
62872.25154740318,106443.0,18309.0,901.0,13.367210187323508
62872.261545316556,106388.0,18306.0,888.0,13.377208100697317
62872.27154322994,106410.0,18318.0,882.0,13.387206014078401
62872.28154114332,106369.0,18319.0,870.0,13.397203927459486
62872.29153905669,106402.0,18327.0,863.0,13.407201840833295
62872.30153697007,106417.0,18312.0,867.0,13.41719975421438
62872.311534883454,106412.0,18322.0,886.0,13.427197667595465
62872.32153279683,106414.0,18343.0,888.0,13.437195580969274
62872.33153071021,106385.0,18292.0,880.0,13.447193494350358
62872.34152862359,106419.0,18342.0,919.0,13.457191407731443
62872.351526536964,106416.0,18311.0,873.0,13.467189321105252
62872.361524450345,106420.0,18337.0,879.0,13.477187234486337
62872.37152236373,106442.0,18343.0,899.0,13.487185147867422
62872.3815202771,106383.0,18319.0,848.0,13.49718306124123
62872.39151819048,106420.0,18316.0,875.0,13.507180974622315
62872.40151610386,106430.0,18325.0,893.0,13.5171788880034
62872.411514017236,106420.0,18311.0,888.0,13.527176801377209
62872.42151193062,106427.0,18311.0,876.0,13.537174714758294
62872.431509844,106429.0,18323.0,887.0,13.547172628139379
62872.44150775737,106386.0,18309.0,870.0,13.557170541513187
62872.45150567075,106423.0,18320.0,889.0,13.567168454894272
62872.461503584134,106396.0,18323.0,872.0,13.577166368275357
62872.47150149751,106421.0,18318.0,887.0,13.587164281649166
62872.48149941089,106408.0,18313.0,867.0,13.59716219503025
62872.49149732427,106417.0,18310.0,866.0,13.607160108411335
62872.501495237644,106422.0,18325.0,885.0,13.617158021785144
62872.511493151025,106415.0,18315.0,897.0,13.627155935166229
62872.521491064406,106427.0,18343.0,892.0,13.637153848547314
62872.53148897778,106413.0,18309.0,859.0,13.647151761921123
62872.54148689116,106460.0,18331.0,853.0,13.657149675302207
62872.55148480454,106429.0,18326.0,881.0,13.667147588683292
62872.56148271792,106429.0,18312.0,912.0,13.677145502064377
62872.5714806313,106441.0,18344.0,900.0,13.687143415438186
62872.58147854468,106420.0,18289.0,877.0,13.69714132881927
62872.59147645806,106410.0,18282.0,871.0,13.707139242200356
62872.60147437143,106424.0,18306.0,891.0,13.717137155574164
62872.611472284814,106449.0,18340.0,897.0,13.72713506895525
62872.621470198195,106409.0,18313.0,864.0,13.737132982336334
62872.63146811157,106458.0,18311.0,895.0,13.747130895710143
62872.64146602495,106428.0,18338.0,870.0,13.757128809091228
62872.65146393833,106421.0,18306.0,878.0,13.767126722472312
62872.661461851705,106470.0,18337.0,912.0,13.777124635846121
62872.671459765086,106442.0,18319.0,878.0,13.787122549227206
62872.68145767847,106445.0,18329.0,882.0,13.79712046260829
62872.69145559184,106450.0,18318.0,873.0,13.8071183759821
62872.70145350522,106416.0,18320.0,868.0,13.817116289363184
62872.7114514186,106477.0,18348.0,884.0,13.82711420274427
62872.72144933198,106445.0,18284.0,903.0,13.837112116118078
62872.73144724536,106444.0,18313.0,889.0,13.847110029499163
62872.74144515874,106430.0,18324.0,887.0,13.857107942880248
62872.75144307211,106450.0,18312.0,907.0,13.867105856254057
62872.761440985494,106455.0,18325.0,889.0,13.877103769635141
62872.771438898875,106453.0,18317.0,896.0,13.887101683016226
62872.78143681225,106447.0,18351.0,899.0,13.897099596390035
62872.79143472563,106416.0,18340.0,892.0,13.90709750977112
62872.80143263901,106441.0,18323.0,881.0,13.917095423152205
62872.811430552385,106452.0,18317.0,907.0,13.927093336526013
62872.821428465766,106430.0,18296.0,897.0,13.937091249907098
62872.83142637915,106472.0,18329.0,897.0,13.947089163288183
62872.84142429252,106440.0,18322.0,896.0,13.957087076661992
62872.8514222059,106434.0,18299.0,877.0,13.967084990043077
62872.86142011928,106458.0,18321.0,896.0,13.977082903424161
62872.87141803266,106409.0,18286.0,870.0,13.98708081679797
62872.88141594604,106448.0,18316.0,879.0,13.997078730179055
62872.89141385942,106465.0,18302.0,904.0,14.00707664356014
62872.90141177279,106436.0,18304.0,901.0,14.017074556933949
62872.911409686174,106438.0,18325.0,885.0,14.027072470315034
62872.921407599555,106447.0,18328.0,880.0,14.037070383696118
62872.93140551293,106427.0,18296.0,874.0,14.047068297069927
62872.94140342631,106420.0,18307.0,874.0,14.057066210451012
62872.95140133969,106462.0,18338.0,907.0,14.067064123832097
62872.961399253065,106449.0,18316.0,878.0,14.077062037205906
62872.971397166446,106413.0,18322.0,860.0,14.08705995058699
62872.98139507983,106470.0,18336.0,919.0,14.097057863968075
62872.9913929932,106434.0,18290.0,852.0,14.107055777341884
62873.00139090658,106431.0,18324.0,900.0,14.117053690722969
62873.01138881996,106437.0,18332.0,871.0,14.127051604104054
62873.02138673334,106405.0,18301.0,880.0,14.137049517477863
62873.03138464672,106416.0,18353.0,891.0,14.147047430858947
62873.0413825601,106434.0,18319.0,886.0,14.157045344240032
62873.05138047347,106471.0,18315.0,898.0,14.167043257613841
62873.061378386854,106435.0,18319.0,858.0,14.177041170994926
62873.071376300235,106412.0,18318.0,854.0,14.18703908437601
62873.08137421361,106446.0,18318.0,878.0,14.19703699774982
62873.09137212699,106440.0,18325.0,907.0,14.207034911130904
62873.10137004037,106423.0,18312.0,894.0,14.217032824511989
62873.111367953745,106442.0,18333.0,912.0,14.227030737885798
62873.121365867126,106450.0,18318.0,860.0,14.237028651266883
62873.13136378051,106448.0,18342.0,886.0,14.247026564647967
62873.14136169389,106439.0,18326.0,903.0,14.257024478029052
62873.15135960726,106437.0,18315.0,878.0,14.267022391402861
62873.16135752064,106439.0,18330.0,885.0,14.277020304783946
62873.171355434024,106412.0,18341.0,874.0,14.28701821816503
62873.1813533474,106427.0,18307.0,851.0,14.29701613153884
62873.19135126078,106459.0,18346.0,887.0,14.307014044919924
62873.20134917416,106440.0,18324.0,877.0,14.31701195830101
62873.211347087534,106464.0,18342.0,871.0,14.327009871674818
62873.221345000915,106452.0,18320.0,864.0,14.337007785055903
62873.231342914296,106473.0,18344.0,865.0,14.347005698436988
62873.24134082767,106455.0,18320.0,900.0,14.357003611810796
62873.25133874105,106430.0,18326.0,877.0,14.367001525191881
62873.26133665443,106429.0,18320.0,874.0,14.376999438572966
62873.271334567806,106467.0,18339.0,912.0,14.386997351946775
62873.28133248119,106434.0,18324.0,869.0,14.39699526532786
62873.29133039457,106475.0,18318.0,896.0,14.406993178708944
62873.30132830794,106430.0,18347.0,890.0,14.416991092082753
62873.31132622132,106447.0,18320.0,857.0,14.426989005463838
62873.321324134704,106483.0,18322.0,916.0,14.436986918844923
62873.33132204808,106456.0,18329.0,883.0,14.446984832218732
62873.34131996146,106444.0,18306.0,871.0,14.456982745599817
62873.35131787484,106450.0,18302.0,889.0,14.466980658980901
62873.361315788214,106453.0,18347.0,911.0,14.47697857235471
62873.371313701595,106458.0,18316.0,883.0,14.486976485735795
62873.381311614976,106460.0,18363.0,905.0,14.49697439911688
62873.39130952835,106481.0,18322.0,919.0,14.506972312490689
62873.40130744173,106475.0,18348.0,868.0,14.516970225871773
62873.41130535511,106457.0,18318.0,885.0,14.526968139252858
62873.421303268486,106446.0,18348.0,904.0,14.536966052626667
62873.43130118187,106463.0,18355.0,891.0,14.546963966007752
62873.44129909525,106474.0,18336.0,912.0,14.556961879388837
62873.45129700862,106457.0,18322.0,894.0,14.566959792762646
62873.461294922,106461.0,18321.0,892.0,14.57695770614373
62873.471292835384,106482.0,18360.0,860.0,14.586955619524815
62873.48129074876,106458.0,18306.0,912.0,14.596953532898624
62873.49128866214,106462.0,18324.0,881.0,14.606951446279709
62873.50128657552,106450.0,18329.0,872.0,14.616949359660794
62873.51128448889,106438.0,18301.0,897.0,14.626947273034602
62873.521282402275,106451.0,18335.0,871.0,14.636945186415687
62873.531280315656,106450.0,18319.0,888.0,14.646943099796772
62873.54127822903,106485.0,18353.0,909.0,14.65694101317058
62873.55127614241,106440.0,18320.0,865.0,14.666938926551666
62873.56127405579,106472.0,18317.0,856.0,14.67693683993275
62873.571271969166,106467.0,18322.0,887.0,14.68693475330656
62873.58126988255,106486.0,18307.0,875.0,14.696932666687644
62873.59126779593,106491.0,18351.0,909.0,14.706930580068729
62873.6012657093,106471.0,18304.0,879.0,14.716928493442538
62873.61126362268,106475.0,18330.0,891.0,14.726926406823623
62873.621261536064,106477.0,18342.0,886.0,14.736924320204707
62873.63125944944,106464.0,18306.0,863.0,14.746922233578516
62873.64125736282,106483.0,18301.0,883.0,14.756920146959601
62873.6512552762,106497.0,18315.0,912.0,14.766918060340686
62873.66125318957,106453.0,18315.0,910.0,14.776915973714495
62873.671251102955,106473.0,18312.0,875.0,14.78691388709558
62873.681249016336,106450.0,18352.0,889.0,14.796911800476664
62873.69124692971,106482.0,18320.0,882.0,14.806909713850473
62873.70124484309,106469.0,18322.0,859.0,14.816907627231558
62873.71124275647,106472.0,18309.0,845.0,14.826905540612643
62873.72124066985,106457.0,18356.0,870.0,14.836903453993727
62873.73123858323,106486.0,18332.0,887.0,14.846901367367536
62873.74123649661,106500.0,18342.0,881.0,14.856899280748621
62873.75123440999,106499.0,18334.0,904.0,14.866897194129706
62873.76123232336,106496.0,18337.0,898.0,14.876895107503515
62873.77123023674,106491.0,18329.0,893.0,14.8868930208846
62873.781228150125,106475.0,18330.0,893.0,14.896890934265684
62873.7912260635,106447.0,18333.0,884.0,14.906888847639493
62873.80122397688,106459.0,18341.0,879.0,14.916886761020578
62873.81122189026,106485.0,18322.0,884.0,14.926884674401663
62873.821219803634,106497.0,18345.0,855.0,14.936882587775472
62873.831217717016,106464.0,18322.0,875.0,14.946880501156556
62873.8412156304,106457.0,18315.0,887.0,14.956878414537641
62873.85121354377,106460.0,18324.0,881.0,14.96687632791145
62873.86121145715,106437.0,18319.0,887.0,14.976874241292535
62873.87120937053,106462.0,18320.0,895.0,14.98687215467362
62873.88120728391,106456.0,18334.0,865.0,14.996870068047429
62873.89120519729,106469.0,18314.0,906.0,15.006867981428513
62873.90120311067,106456.0,18353.0,884.0,15.016865894809598
62873.91120102404,106430.0,18326.0,895.0,15.026863808183407
62873.92119893742,106470.0,18314.0,913.0,15.036861721564492
62873.931196850805,106451.0,18333.0,914.0,15.046859634945577
62873.94119476418,106456.0,18347.0,884.0,15.056857548319385
62873.95119267756,106461.0,18333.0,897.0,15.06685546170047
62873.96119059094,106476.0,18341.0,876.0,15.076853375081555
62873.971188504314,106474.0,18320.0,881.0,15.086851288455364
62873.981186417695,106461.0,18337.0,886.0,15.096849201836449
62873.99118433108,106447.0,18306.0,881.0,15.106847115217533
62874.00118224445,106456.0,18290.0,882.0,15.116845028591342
62874.01118015783,106456.0,18318.0,903.0,15.126842941972427
62874.02117807121,106471.0,18363.0,878.0,15.136840855353512
62874.031175984586,106460.0,18306.0,880.0,15.14683876872732
62874.04117389797,106481.0,18358.0,896.0,15.156836682108406
62874.05117181135,106456.0,18319.0,862.0,15.16683459548949
62874.06116972472,106464.0,18328.0,881.0,15.1768325088633
62874.0711676381,106442.0,18343.0,915.0,15.186830422244384
62874.081165551484,106439.0,18303.0,894.0,15.196828335625469
62874.09116346486,106443.0,18296.0,885.0,15.206826248999278
62874.10116137824,106481.0,18320.0,881.0,15.216824162380362
62874.11115929162,106442.0,18309.0,855.0,15.226822075761447
62874.121157204994,106437.0,18303.0,883.0,15.236819989135256
62874.131155118375,106489.0,18334.0,904.0,15.24681790251634
62874.14115303176,106467.0,18327.0,880.0,15.256815815897426
62874.15115094513,106473.0,18336.0,887.0,15.266813729271234
62874.16114885851,106498.0,18312.0,900.0,15.27681164265232
62874.17114677189,106472.0,18301.0,874.0,15.286809556033404
62874.181144685266,106454.0,18304.0,881.0,15.296807469407213
62874.19114259865,106463.0,18354.0,914.0,15.306805382788298
62874.20114051203,106461.0,18350.0,901.0,15.316803296169383
62874.2111384254,106472.0,18301.0,877.0,15.326801209543191
62874.22113633878,106469.0,18322.0,889.0,15.336799122924276
62874.231134252164,106445.0,18311.0,874.0,15.346797036305361
62874.24113216554,106501.0,18330.0,907.0,15.35679494967917
62874.25113007892,106448.0,18319.0,876.0,15.366792863060255
62874.2611279923,106475.0,18326.0,885.0,15.37679077644134
62874.271125905674,106449.0,18367.0,881.0,15.386788689815148
62874.281123819055,106458.0,18336.0,864.0,15.396786603196233
62874.291121732436,106487.0,18344.0,850.0,15.406784516577318
62874.30111964582,106477.0,18321.0,898.0,15.416782429958403
62874.31111755919,106474.0,18350.0,924.0,15.426780343332211
62874.32111547257,106489.0,18336.0,892.0,15.436778256713296
62874.33111338595,106483.0,18323.0,855.0,15.446776170094381
62874.34111129933,106475.0,18332.0,888.0,15.45677408346819
62874.35110921271,106470.0,18297.0,876.0,15.466771996849275
62874.36110712609,106504.0,18331.0,885.0,15.47676991023036
62874.37110503946,106462.0,18320.0,861.0,15.486767823604168
62874.381102952844,106481.0,18339.0,886.0,15.496765736985253
62874.391100866225,106506.0,18310.0,899.0,15.506763650366338
62874.4010987796,106513.0,18343.0,893.0,15.516761563740147
62874.41109669298,106506.0,18326.0,889.0,15.526759477121232
62874.42109460636,106497.0,18335.0,877.0,15.536757390502316
62874.431092519735,106511.0,18326.0,907.0,15.546755303876125
62874.441090433116,106453.0,18332.0,893.0,15.55675321725721
62874.4510883465,106467.0,18314.0,868.0,15.566751130638295
62874.46108625987,106486.0,18323.0,875.0,15.576749044012104
62874.47108417325,106484.0,18329.0,866.0,15.586746957393188
62874.48108208663,106511.0,18334.0,899.0,15.596744870774273
62874.49108000001,106472.0,18321.0,868.0,15.606742784148082
62874.50107791339,106493.0,18333.0,882.0,15.616740697529167
62874.51107582677,106509.0,18343.0,884.0,15.626738610910252
62874.52107374014,106500.0,18324.0,912.0,15.63673652428406
62874.531071653524,106459.0,18307.0,870.0,15.646734437665145
62874.541069566905,106490.0,18326.0,870.0,15.65673235104623
62874.55106748028,106456.0,18313.0,897.0,15.666730264420039
62874.56106539366,106513.0,18356.0,905.0,15.676728177801124
62874.57106330704,106498.0,18312.0,880.0,15.686726091182209
62874.581061220415,106488.0,18329.0,882.0,15.696724004556017
62874.591059133796,106505.0,18304.0,884.0,15.706721917937102
62874.60105704718,106482.0,18342.0,896.0,15.716719831318187
62874.61105496055,106464.0,18322.0,880.0,15.726717744691996
62874.62105287393,106476.0,18323.0,862.0,15.73671565807308
62874.63105078731,106506.0,18337.0,885.0,15.746713571454166
62874.64104870069,106483.0,18331.0,890.0,15.756711484827974
62874.65104661407,106487.0,18316.0,886.0,15.76670939820906
62874.66104452745,106500.0,18313.0,876.0,15.776707311590144
62874.67104244082,106483.0,18326.0,879.0,15.786705224963953
62874.681040354204,106492.0,18335.0,889.0,15.796703138345038
62874.691038267585,106485.0,18332.0,870.0,15.806701051726122
62874.70103618096,106531.0,18341.0,885.0,15.816698965099931
62874.71103409434,106463.0,18316.0,873.0,15.826696878481016
62874.72103200772,106439.0,18342.0,877.0,15.8366947918621
62874.731029921095,106481.0,18334.0,876.0,15.84669270523591
62874.741027834476,106473.0,18302.0,886.0,15.856690618616994
62874.75102574786,106487.0,18333.0,887.0,15.86668853199808
62874.76102366123,106481.0,18293.0,885.0,15.876686445371888
62874.77102157461,106459.0,18316.0,893.0,15.886684358752973
62874.78101948799,106454.0,18352.0,875.0,15.896682272134058
62874.79101740137,106470.0,18331.0,888.0,15.906680185507867
62874.80101531475,106473.0,18315.0,853.0,15.916678098888951
62874.81101322813,106482.0,18320.0,859.0,15.926676012270036
62874.8210111415,106476.0,18344.0,893.0,15.936673925643845
62874.831009054884,106480.0,18325.0,888.0,15.94667183902493
62874.841006968265,106490.0,18342.0,915.0,15.956669752406015
62874.85100488164,106487.0,18310.0,901.0,15.966667665779823
62874.86100279502,106452.0,18309.0,871.0,15.976665579160908
62874.8710007084,106474.0,18329.0,899.0,15.986663492541993
62874.88099862178,106492.0,18350.0,856.0,15.996661405923078
62874.890996535156,106506.0,18304.0,880.0,16.006659319296887
62874.90099444854,106487.0,18360.0,908.0,16.01665723267797
62874.91099236192,106501.0,18327.0,883.0,16.026655146059056
62874.92099027529,106470.0,18315.0,885.0,16.036653059432865
62874.93098818867,106503.0,18305.0,886.0,16.04665097281395
62874.940986102054,106460.0,18326.0,891.0,16.056648886195035
62874.95098401543,106490.0,18328.0,890.0,16.066646799568844
62874.96098192881,106453.0,18323.0,883.0,16.07664471294993
62874.97097984219,106494.0,18337.0,895.0,16.086642626331013
62874.980977755564,106470.0,18302.0,844.0,16.096640539704822
62874.990975668945,106469.0,18329.0,880.0,16.106638453085907
62875.000973582326,106472.0,18354.0,922.0,16.11663636646699
62875.0109714957,106462.0,18334.0,861.0,16.1266342798408
62875.02096940908,106510.0,18354.0,902.0,16.136632193221885
62875.03096732246,106490.0,18336.0,883.0,16.14663010660297
62875.040965235836,106466.0,18298.0,867.0,16.15662801997678
62875.05096314922,106493.0,18353.0,856.0,16.166625933357864
62875.0609610626,106499.0,18312.0,874.0,16.17662384673895
62875.07095897597,106488.0,18330.0,894.0,16.186621760112757
62875.08095688935,106500.0,18343.0,887.0,16.196619673493842
62875.090954802734,106467.0,18309.0,878.0,16.206617586874927
62875.10095271611,106486.0,18311.0,876.0,16.216615500248736
62875.11095062949,106505.0,18337.0,898.0,16.22661341362982
62875.12094854287,106481.0,18332.0,893.0,16.236611327010905
62875.130946456244,106448.0,18323.0,883.0,16.246609240384714
62875.140944369625,106475.0,18321.0,862.0,16.2566071537658
62875.150942283006,106490.0,18328.0,887.0,16.266605067146884
62875.16094019638,106483.0,18318.0,866.0,16.276602980520693
62875.17093810976,106507.0,18338.0,901.0,16.286600893901777
62875.18093602314,106481.0,18309.0,867.0,16.296598807282862
62875.190933936516,106495.0,18329.0,885.0,16.30659672065667
62875.2009318499,106507.0,18352.0,904.0,16.316594634037756
62875.21092976328,106464.0,18311.0,867.0,16.32659254741884
62875.22092767665,106519.0,18365.0,900.0,16.33659046079265
62875.23092559003,106502.0,18325.0,882.0,16.346588374173734
62875.240923503414,106488.0,18294.0,937.0,16.35658628755482
62875.25092141679,106509.0,18339.0,886.0,16.366584200928628
62875.26091933017,106501.0,18312.0,885.0,16.376582114309713
62875.27091724355,106501.0,18326.0,884.0,16.386580027690798
62875.28091515692,106504.0,18296.0,882.0,16.396577941064606
62875.290913070305,106509.0,18348.0,904.0,16.40657585444569
62875.300910983686,106458.0,18326.0,877.0,16.416573767826776
62875.31090889706,106516.0,18329.0,901.0,16.426571681200585
62875.32090681044,106508.0,18340.0,891.0,16.43656959458167
62875.33090472382,106484.0,18329.0,863.0,16.446567507962754
62875.340902637196,106462.0,18324.0,850.0,16.456565421336563
62875.35090055058,106475.0,18304.0,866.0,16.466563334717648
62875.36089846396,106498.0,18327.0,880.0,16.476561248098733
62875.37089637733,106505.0,18363.0,897.0,16.48655916147254
62875.38089429071,106456.0,18304.0,867.0,16.496557074853627
62875.390892204094,106511.0,18363.0,871.0,16.50655498823471
62875.40089011747,106494.0,18326.0,884.0,16.51655290160852
62875.41088803085,106488.0,18311.0,908.0,16.526550814989605
62875.42088594423,106521.0,18357.0,899.0,16.53654872837069
62875.4308838576,106514.0,18344.0,908.0,16.5465466417445
62875.440881770985,106504.0,18340.0,885.0,16.556544555125583
62875.450879684366,106495.0,18344.0,910.0,16.56654246850667
62875.46087759775,106505.0,18334.0,914.0,16.576540381887753
62875.47087551112,106481.0,18322.0,874.0,16.586538295261562
62875.4808734245,106499.0,18327.0,885.0,16.596536208642647
62875.49087133788,106529.0,18318.0,891.0,16.60653412202373
62875.50086925126,106487.0,18300.0,878.0,16.61653203539754
62875.51086716464,106529.0,18345.0,888.0,16.626529948778625
62875.52086507802,106503.0,18323.0,883.0,16.63652786215971
62875.53086299139,106466.0,18327.0,879.0,16.64652577553352
62875.54086090477,106519.0,18325.0,902.0,16.656523688914604
62875.550858818155,106479.0,18336.0,865.0,16.66652160229569
62875.56085673153,106504.0,18326.0,888.0,16.676519515669497
62875.57085464491,106505.0,18332.0,859.0,16.686517429050582
62875.58085255829,106493.0,18338.0,902.0,16.696515342431667
62875.590850471664,106455.0,18307.0,861.0,16.706513255805476
62875.600848385046,106498.0,18330.0,896.0,16.71651116918656
62875.61084629843,106493.0,18314.0,877.0,16.726509082567645
62875.6208442118,106454.0,18302.0,878.0,16.736506995941454
62875.63084212518,106505.0,18334.0,907.0,16.74650490932254
62875.64084003856,106506.0,18308.0,892.0,16.756502822703624
62875.65083795194,106490.0,18300.0,877.0,16.766500736077433
62875.66083586532,106521.0,18336.0,889.0,16.776498649458517
62875.6708337787,106472.0,18296.0,895.0,16.786496562839602
62875.68083169207,106494.0,18329.0,882.0,16.79649447621341
62875.69082960545,106491.0,18297.0,899.0,16.806492389594496
62875.700827518835,106444.0,18306.0,860.0,16.81649030297558
62875.71082543221,106460.0,18314.0,868.0,16.82648821634939
62875.72082334559,106483.0,18323.0,886.0,16.836486129730474
62875.73082125897,106478.0,18321.0,883.0,16.84648404311156
62875.740819172344,106489.0,18307.0,849.0,16.856481956485368
62875.750817085725,106487.0,18331.0,871.0,16.866479869866453
62875.76081499911,106487.0,18323.0,881.0,16.876477783247537
62875.77081291248,106456.0,18323.0,868.0,16.886475696621346
62875.78081082586,106505.0,18346.0,899.0,16.89647361000243
62875.79080873924,106466.0,18306.0,868.0,16.906471523383516
62875.800806652616,106494.0,18329.0,878.0,16.916469436757325
62875.810804566,106502.0,18343.0,909.0,16.92646735013841
62875.82080247938,106466.0,18301.0,883.0,16.936465263519494
62875.83080039275,106501.0,18345.0,911.0,16.946463176893303
62875.84079830613,106494.0,18327.0,886.0,16.956461090274388
62875.850796219514,106499.0,18330.0,859.0,16.966459003655473
62875.86079413289,106531.0,18319.0,879.0,16.97645691702928
62875.87079204627,106491.0,18315.0,901.0,16.986454830410366
62875.88078995965,106488.0,18328.0,882.0,16.99645274379145
62875.890787873024,106469.0,18323.0,901.0,17.00645065716526
62875.900785786405,106495.0,18307.0,898.0,17.016448570546345
62875.91078369979,106478.0,18311.0,876.0,17.02644648392743
62875.92078161316,106475.0,18320.0,906.0,17.03644439730124
62875.93077952654,106460.0,18329.0,888.0,17.046442310682323
62875.94077743992,106470.0,18314.0,879.0,17.056440224063408
62875.950775353296,106511.0,18325.0,906.0,17.066438137437217
62875.96077326668,106474.0,18323.0,872.0,17.0764360508183
62875.97077118006,106485.0,18334.0,882.0,17.086433964199387
62875.98076909343,106506.0,18344.0,863.0,17.096431877573195
62875.99076700681,106494.0,18316.0,874.0,17.10642979095428
62876.000764920194,106493.0,18328.0,890.0,17.116427704335365
62876.01076283357,106501.0,18344.0,884.0,17.126425617709174
62876.02076074695,106514.0,18314.0,879.0,17.13642353109026
62876.03075866033,106519.0,18340.0,904.0,17.146421444471343
62876.04075657371,106497.0,18345.0,915.0,17.156419357852428
62876.050754487085,106491.0,18320.0,883.0,17.166417271226237
62876.060752400466,106457.0,18327.0,883.0,17.176415184607322
62876.07075031385,106520.0,18339.0,919.0,17.186413097988407
62876.08074822722,106497.0,18325.0,868.0,17.196411011362216
62876.0907461406,106484.0,18331.0,884.0,17.2064089247433
62876.10074405398,106510.0,18332.0,879.0,17.216406838124385
62876.11074196736,106477.0,18316.0,867.0,17.226404751498194
62876.12073988074,106476.0,18346.0,892.0,17.23640266487928
62876.13073779412,106490.0,18324.0,881.0,17.246400578260364
62876.14073570749,106484.0,18307.0,861.0,17.256398491634172
62876.150733620874,106508.0,18347.0,887.0,17.266396405015257
62876.160731534255,106501.0,18300.0,901.0,17.276394318396342
62876.17072944763,106470.0,18314.0,879.0,17.28639223177015
62876.18072736101,106492.0,18322.0,883.0,17.296390145151236
62876.19072527439,106522.0,18366.0,902.0,17.30638805853232
62876.200723187765,106486.0,18295.0,877.0,17.31638597190613
62876.210721101146,106502.0,18322.0,895.0,17.326383885287214
62876.22071901453,106523.0,18353.0,871.0,17.3363817986683
62876.2307169279,106477.0,18357.0,889.0,17.346379712042108
62876.24071484128,106521.0,18326.0,908.0,17.356377625423193
62876.25071275466,106507.0,18329.0,889.0,17.366375538804277
62876.26071066804,106492.0,18315.0,865.0,17.376373452178086
62876.27070858142,106520.0,18324.0,873.0,17.38637136555917
62876.2807064948,106478.0,18321.0,897.0,17.396369278940256
62876.29070440817,106493.0,18328.0,892.0,17.406367192314065
62876.300702321554,106478.0,18334.0,903.0,17.41636510569515
62876.310700234935,106480.0,18334.0,872.0,17.426363019076234
62876.32069814831,106497.0,18321.0,867.0,17.436360932450043
62876.33069606169,106497.0,18331.0,862.0,17.446358845831128
62876.34069397507,106480.0,18306.0,897.0,17.456356759212213
62876.350691888445,106523.0,18350.0,908.0,17.46635467258602
62876.360689801826,106531.0,18349.0,917.0,17.476352585967106
62876.37068771521,106513.0,18323.0,885.0,17.48635049934819
62876.38068562858,106491.0,18305.0,863.0,17.496348412722
62876.39068354196,106538.0,18347.0,893.0,17.506346326103085
62876.40068145534,106467.0,18317.0,848.0,17.51634423948417
62876.41067936872,106496.0,18329.0,885.0,17.52634215285798
62876.4206772821,106515.0,18303.0,918.0,17.536340066239063
62876.43067519548,106471.0,18300.0,881.0,17.546337979620148
62876.44067310885,106513.0,18338.0,884.0,17.556335892993957
62876.450671022234,106486.0,18316.0,875.0,17.56633380637504
62876.460668935615,106465.0,18314.0,879.0,17.576331719756126
62876.47066684899,106477.0,18347.0,907.0,17.586329633129935
62876.48066476237,106507.0,18344.0,908.0,17.59632754651102
62876.49066267575,106487.0,18310.0,888.0,17.606325459892105
62876.500660589125,106472.0,18313.0,876.0,17.616323373265914
62876.510658502506,106492.0,18335.0,904.0,17.626321286647
62876.52065641589,106446.0,18296.0,859.0,17.636319200028083
62876.53065432926,106488.0,18316.0,878.0,17.646317113401892
62876.54065224264,106467.0,18313.0,911.0,17.656315026782977
62876.55065015602,106457.0,18301.0,869.0,17.66631294016406
62876.5606480694,106506.0,18345.0,902.0,17.67631085353787
62876.57064598278,106503.0,18317.0,886.0,17.686308766918955
62876.58064389616,106476.0,18296.0,912.0,17.69630668030004
62876.59064180953,106466.0,18339.0,878.0,17.70630459367385
62876.600639722914,106454.0,18302.0,882.0,17.716302507054934
62876.610637636295,106468.0,18319.0,879.0,17.72630042043602
62876.62063554967,106475.0,18295.0,887.0,17.736298333809827
62876.63063346305,106492.0,18329.0,904.0,17.746296247190912
62876.64063137643,106469.0,18340.0,885.0,17.756294160571997
62876.65062928981,106464.0,18333.0,878.0,17.766292073953082
62876.660627203186,106487.0,18331.0,886.0,17.77628998732689
62876.67062511657,106470.0,18306.0,882.0,17.786287900707975
62876.68062302995,106486.0,18349.0,894.0,17.79628581408906
62876.69062094332,106454.0,18305.0,858.0,17.80628372746287
62876.7006188567,106479.0,18319.0,875.0,17.816281640843954
62876.710616770084,106474.0,18343.0,904.0,17.82627955422504
62876.72061468346,106450.0,18333.0,875.0,17.836277467598848
62876.73061259684,106481.0,18348.0,901.0,17.846275380979932
62876.74061051022,106479.0,18321.0,891.0,17.856273294361017
62876.750608423594,106458.0,18318.0,889.0,17.866271207734826
62876.760606336975,106464.0,18353.0,895.0,17.87626912111591
62876.770604250356,106499.0,18314.0,914.0,17.886267034496996
62876.78060216373,106476.0,18317.0,880.0,17.896264947870804
62876.79060007711,106437.0,18289.0,870.0,17.90626286125189
62876.80059799049,106486.0,18348.0,905.0,17.916260774632974
62876.810595903866,106450.0,18322.0,868.0,17.926258688006783
62876.82059381725,106478.0,18330.0,883.0,17.936256601387868
62876.83059173063,106502.0,18310.0,905.0,17.946254514768953
62876.840589644,106463.0,18304.0,872.0,17.95625242814276
62876.85058755738,106482.0,18338.0,905.0,17.966250341523846
62876.860585470764,106480.0,18324.0,883.0,17.97624825490493
62876.87058338414,106456.0,18319.0,863.0,17.98624616827874
62876.88058129752,106479.0,18318.0,867.0,17.996244081659825
62876.8905792109,106489.0,18343.0,912.0,18.00624199504091
62876.900577124274,106484.0,18327.0,883.0,18.01623990841472
62876.910575037655,106484.0,18320.0,854.0,18.026237821795803
62876.920572951036,106479.0,18286.0,876.0,18.036235735176888
62876.93057086441,106481.0,18331.0,886.0,18.046233648550697
62876.94056877779,106476.0,18328.0,883.0,18.05623156193178
62876.95056669117,106489.0,18328.0,883.0,18.066229475312866
62876.960564604546,106463.0,18311.0,892.0,18.076227388686675
62876.97056251793,106518.0,18349.0,884.0,18.08622530206776
62876.98056043131,106481.0,18327.0,877.0,18.096223215448845
62876.99055834468,106463.0,18337.0,913.0,18.106221128822654
62877.00055625806,106478.0,18333.0,877.0,18.11621904220374
62877.010554171444,106495.0,18305.0,891.0,18.126216955584823
62877.02055208482,106494.0,18328.0,883.0,18.136214868958632
62877.0305499982,106474.0,18332.0,894.0,18.146212782339717
62877.04054791158,106476.0,18305.0,886.0,18.1562106957208
62877.05054582495,106495.0,18334.0,878.0,18.16620860909461
62877.060543738335,106498.0,18329.0,887.0,18.176206522475695
62877.070541651716,106501.0,18335.0,864.0,18.18620443585678
62877.08053956509,106489.0,18337.0,860.0,18.19620234923059
62877.09053747847,106516.0,18332.0,913.0,18.206200262611674
62877.10053539185,106454.0,18304.0,868.0,18.21619817599276
62877.110533305226,106478.0,18306.0,882.0,18.226196089366567
62877.12053121861,106491.0,18327.0,905.0,18.236194002747652
62877.13052913199,106467.0,18333.0,880.0,18.246191916128737
62877.14052704536,106486.0,18326.0,880.0,18.256189829502546
62877.15052495874,106505.0,18362.0,899.0,18.26618774288363
62877.160522872124,106466.0,18343.0,880.0,18.276185656264715
62877.1705207855,106494.0,18334.0,883.0,18.286183569638524
62877.18051869888,106488.0,18323.0,883.0,18.29618148301961
62877.19051661226,106510.0,18351.0,882.0,18.306179396400694
62877.20051452563,106466.0,18322.0,859.0,18.316177309774503
62877.210512439015,106520.0,18350.0,867.0,18.326175223155587
62877.220510352396,106498.0,18319.0,868.0,18.336173136536672
62877.23050826578,106499.0,18318.0,928.0,18.346171049917757
62877.24050617915,106465.0,18306.0,863.0,18.356168963291566
62877.25050409253,106461.0,18287.0,892.0,18.36616687667265
62877.26050200591,106491.0,18328.0,899.0,18.376164790053735
62877.27049991929,106475.0,18306.0,892.0,18.386162703427544
62877.28049783267,106500.0,18352.0,870.0,18.39616061680863
62877.29049574605,106466.0,18329.0,870.0,18.406158530189714
62877.30049365942,106506.0,18317.0,905.0,18.416156443563523
62877.3104915728,106483.0,18335.0,881.0,18.426154356944608
62877.320489486185,106474.0,18305.0,869.0,18.436152270325692
62877.33048739956,106509.0,18317.0,904.0,18.4461501836995
62877.34048531294,106494.0,18321.0,908.0,18.456148097080586
62877.35048322632,106462.0,18339.0,876.0,18.46614601046167
62877.360481139694,106448.0,18304.0,853.0,18.47614392383548
62877.370479053076,106426.0,18331.0,885.0,18.486141837216564
62877.38047696646,106458.0,18320.0,862.0,18.49613975059765
62877.39047487983,106462.0,18315.0,890.0,18.506137663971458
62877.40047279321,106450.0,18340.0,889.0,18.516135577352543
62877.41047070659,106465.0,18320.0,900.0,18.526133490733628
62877.42046861997,106464.0,18307.0,897.0,18.536131404107437
62877.43046653335,106453.0,18312.0,880.0,18.54612931748852
62877.44046444673,106451.0,18288.0,879.0,18.556127230869606
62877.4504623601,106453.0,18323.0,875.0,18.566125144243415
62877.46046027348,106474.0,18335.0,898.0,18.5761230576245
62877.470458186865,106458.0,18322.0,872.0,18.586120971005585
62877.48045610024,106478.0,18336.0,904.0,18.596118884379393
62877.49045401362,106438.0,18298.0,913.0,18.606116797760478
62877.500451927,106484.0,18306.0,925.0,18.616114711141563
62877.510449840374,106453.0,18316.0,886.0,18.626112624515372
62877.520447753755,106429.0,18324.0,861.0,18.636110537896457
62877.53044566714,106437.0,18337.0,882.0,18.64610845127754
62877.54044358051,106451.0,18329.0,872.0,18.65610636465135
62877.55044149389,106461.0,18328.0,893.0,18.666104278032435
62877.56043940727,106479.0,18335.0,860.0,18.67610219141352
62877.570437320646,106483.0,18349.0,903.0,18.68610010478733
62877.58043523403,106470.0,18321.0,877.0,18.696098018168414
62877.59043314741,106459.0,18330.0,884.0,18.7060959315495
62877.60043106078,106479.0,18326.0,885.0,18.716093844923307
62877.61042897416,106467.0,18297.0,874.0,18.726091758304392
62877.620426887544,106484.0,18352.0,895.0,18.736089671685477
62877.63042480092,106441.0,18315.0,853.0,18.746087585059286
62877.6404227143,106445.0,18306.0,887.0,18.75608549844037
62877.65042062768,106421.0,18295.0,860.0,18.766083411821455
62877.660418541054,106441.0,18300.0,882.0,18.776081325195264
62877.670416454435,106473.0,18322.0,882.0,18.78607923857635
62877.68041436782,106472.0,18312.0,889.0,18.796077151957434
62877.69041228119,106443.0,18305.0,879.0,18.806075065331243
62877.70041019457,106441.0,18340.0,883.0,18.816072978712327
62877.71040810795,106472.0,18327.0,886.0,18.826070892093412
62877.720406021326,106471.0,18320.0,895.0,18.83606880546722
62877.73040393471,106475.0,18327.0,852.0,18.846066718848306
62877.74040184809,106457.0,18304.0,873.0,18.85606463222939
62877.75039976146,106474.0,18318.0,881.0,18.8660625456032
62877.76039767484,106454.0,18361.0,889.0,18.876060458984284
62877.770395588224,106488.0,18351.0,875.0,18.88605837236537
62877.7803935016,106444.0,18302.0,882.0,18.896056285739178
62877.79039141498,106476.0,18328.0,887.0,18.906054199120263
62877.80038932836,106501.0,18352.0,867.0,18.916052112501347
62877.81038724174,106439.0,18316.0,876.0,18.926050025882432
62877.820385155115,106494.0,18331.0,908.0,18.93604793925624
62877.830383068496,106466.0,18319.0,883.0,18.946045852637326
62877.84038098188,106467.0,18303.0,863.0,18.95604376601841
62877.85037889525,106484.0,18328.0,903.0,18.96604167939222
62877.86037680863,106446.0,18310.0,889.0,18.976039592773304
62877.87037472201,106484.0,18328.0,887.0,18.98603750615439
62877.88037263539,106481.0,18319.0,891.0,18.996035419528198
62877.89037054877,106451.0,18327.0,881.0,19.006033332909283
62877.90036846215,106462.0,18323.0,857.0,19.016031246290368
62877.91036637552,106460.0,18314.0,903.0,19.026029159664176
62877.920364288904,106471.0,18345.0,880.0,19.03602707304526
62877.930362202285,106456.0,18321.0,877.0,19.046024986426346
62877.94036011566,106493.0,18325.0,898.0,19.056022899800155
62877.95035802904,106473.0,18326.0,892.0,19.06602081318124
62877.96035594242,106487.0,18313.0,889.0,19.076018726562324
62877.970353855795,106446.0,18295.0,874.0,19.086016639936133
62877.980351769176,106475.0,18306.0,877.0,19.096014553317218
62877.99034968256,106503.0,18330.0,904.0,19.106012466698303
62878.00034759593,106474.0,18338.0,881.0,19.11601038007211
62878.01034550931,106460.0,18322.0,889.0,19.126008293453197
62878.02034342269,106502.0,18319.0,889.0,19.13600620683428
62878.03034133607,106441.0,18301.0,884.0,19.14600412020809
62878.04033924945,106470.0,18325.0,898.0,19.156002033589175
62878.05033716283,106463.0,18320.0,886.0,19.16599994697026
62878.0603350762,106443.0,18316.0,856.0,19.17599786034407
62878.070332989584,106466.0,18346.0,880.0,19.185995773725153
62878.080330902965,106485.0,18323.0,881.0,19.195993687106238
62878.09032881634,106472.0,18343.0,875.0,19.205991600480047
62878.10032672972,106494.0,18325.0,874.0,19.215989513861132
62878.1103246431,106485.0,18347.0,907.0,19.225987427242217
62878.120322556475,106488.0,18323.0,882.0,19.235985340616025
62878.130320469856,106477.0,18330.0,863.0,19.24598325399711
62878.14031838324,106503.0,18347.0,895.0,19.255981167378195
62878.15031629661,106467.0,18304.0,872.0,19.265979080752004
62878.16031420999,106470.0,18311.0,877.0,19.27597699413309
62878.17031212337,106494.0,18328.0,916.0,19.285974907514174
62878.18031003675,106487.0,18342.0,904.0,19.295972820887982
62878.19030795013,106470.0,18288.0,879.0,19.305970734269067
62878.20030586351,106475.0,18324.0,880.0,19.315968647650152
62878.21030377688,106494.0,18359.0,891.0,19.32596656102396
62878.220301690264,106438.0,18313.0,862.0,19.335964474405046
62878.230299603645,106488.0,18338.0,900.0,19.34596238778613
62878.24029751702,106467.0,18327.0,882.0,19.35596030115994
62878.2502954304,106437.0,18293.0,887.0,19.365958214541024
62878.26029334378,106476.0,18329.0,889.0,19.37595612792211
62878.270291257155,106429.0,18304.0,876.0,19.385954041295918
62878.280289170536,106471.0,18330.0,885.0,19.395951954677003
62878.29028708392,106442.0,18330.0,883.0,19.405949868058087
62878.30028499729,106430.0,18314.0,870.0,19.415947781431896
62878.31028291067,106475.0,18338.0,869.0,19.42594569481298
62878.32028082405,106470.0,18311.0,874.0,19.435943608194066
62878.33027873743,106473.0,18301.0,897.0,19.445941521567875
62878.34027665081,106455.0,18348.0,880.0,19.45593943494896
62878.35027456419,106484.0,18315.0,882.0,19.465937348330044
62878.36027247756,106461.0,18319.0,874.0,19.475935261703853
62878.370270390944,106461.0,18291.0,875.0,19.485933175084938
62878.380268304325,106435.0,18339.0,900.0,19.495931088466023
62878.390266217706,106452.0,18353.0,908.0,19.505929001847107
62878.40026413108,106468.0,18320.0,882.0,19.515926915220916
62878.41026204446,106455.0,18323.0,875.0,19.525924828602
62878.42025995784,106470.0,18322.0,855.0,19.535922741983086
62878.430257871216,106487.0,18342.0,905.0,19.545920655356895
62878.4402557846,106454.0,18319.0,890.0,19.55591856873798
62878.45025369798,106446.0,18332.0,867.0,19.565916482119064
62878.46025161135,106472.0,18336.0,900.0,19.575914395492873
62878.47024952473,106441.0,18341.0,861.0,19.585912308873958
62878.480247438114,106474.0,18327.0,889.0,19.595910222255043
62878.49024535149,106475.0,18357.0,871.0,19.60590813562885
62878.50024326487,106455.0,18306.0,861.0,19.615906049009936
62878.51024117825,106480.0,18345.0,908.0,19.62590396239102
62878.520239091624,106458.0,18332.0,879.0,19.63590187576483
62878.530237005005,106470.0,18312.0,882.0,19.645899789145915
62878.540234918386,106473.0,18290.0,873.0,19.655897702527
62878.55023283176,106476.0,18341.0,906.0,19.66589561590081
62878.56023074514,106437.0,18320.0,848.0,19.675893529281893
62878.57022865852,106423.0,18310.0,916.0,19.685891442662978
62878.580226571896,106475.0,18341.0,901.0,19.695889356036787
62878.59022448528,106465.0,18358.0,906.0,19.70588726941787
62878.60022239866,106468.0,18318.0,891.0,19.715885182798957
62878.61022031203,106463.0,18350.0,882.0,19.725883096172765
62878.62021822541,106465.0,18324.0,884.0,19.73588100955385
62878.630216138794,106469.0,18351.0,905.0,19.745878922934935
62878.64021405217,106475.0,18326.0,874.0,19.755876836308744
62878.65021196555,106469.0,18333.0,886.0,19.76587474968983
62878.66020987893,106489.0,18327.0,863.0,19.775872663070913
62878.670207792304,106463.0,18327.0,904.0,19.785870576444722
62878.680205705685,106491.0,18324.0,892.0,19.795868489825807
62878.690203619066,106469.0,18366.0,895.0,19.805866403206892
62878.70020153244,106446.0,18310.0,892.0,19.8158643165807
62878.71019944582,106472.0,18293.0,883.0,19.825862229961785
62878.7201973592,106496.0,18314.0,902.0,19.83586014334287
62878.730195272576,106467.0,18310.0,885.0,19.84585805671668
62878.74019318596,106440.0,18356.0,879.0,19.855855970097764
62878.75019109934,106495.0,18350.0,913.0,19.86585388347885
62878.76018901271,106452.0,18302.0,899.0,19.875851796852658
62878.77018692609,106481.0,18317.0,878.0,19.885849710233742
62878.780184839474,106491.0,18335.0,890.0,19.895847623614827
62878.79018275285,106475.0,18305.0,890.0,19.905845536988636
62878.80018066623,106455.0,18341.0,894.0,19.91584345036972
62878.81017857961,106475.0,18327.0,882.0,19.925841363750806
62878.82017649298,106460.0,18323.0,867.0,19.935839277124614
62878.830174406365,106467.0,18324.0,855.0,19.9458371905057
62878.840172319746,106477.0,18331.0,904.0,19.955835103886784
62878.85017023312,106479.0,18326.0,881.0,19.965833017260593
62878.8601681465,106464.0,18317.0,869.0,19.975830930641678
62878.87016605988,106500.0,18350.0,908.0,19.985828844022762
62878.880163973256,106470.0,18309.0,862.0,19.99582675739657
62878.89016188664,106480.0,18333.0,876.0,20.005824670777656
62878.90015980002,106464.0,18333.0,891.0,20.01582258415874
62878.91015771339,106497.0,18310.0,865.0,20.02582049753255
62878.92015562677,106505.0,18367.0,902.0,20.035818410913635
62878.930153540154,106484.0,18325.0,880.0,20.04581632429472
62878.94015145353,106478.0,18303.0,886.0,20.055814237668528
62878.95014936691,106488.0,18297.0,883.0,20.065812151049613
62878.96014728029,106527.0,18369.0,917.0,20.075810064430698
