timestamp,PPG_1,PPG_2,PPG_3,time_from_segment_start_sec
62858.88091995412,153880.0,86480.0,3876.0,0.0
62858.891013822176,153900.0,86480.0,3872.0,0.010093868055264466
62858.90110769023,153904.0,86497.0,3892.0,0.02018773611052893
62858.911201558294,153910.0,86509.0,3894.0,0.030281604173069354
62858.92129542635,153917.0,86512.0,3886.0,0.04037547222833382
62858.931389294405,153928.0,86511.0,3907.0,0.050469340283598285
62858.94148316246,153952.0,86522.0,3902.0,0.06056320833886275
62858.95157703052,153883.0,86502.0,3887.0,0.07065707640140317
62858.96167089858,153931.0,86514.0,3886.0,0.08075094445666764
62858.97176476663,153928.0,86493.0,3884.0,0.0908448125119321
62858.98185863469,153894.0,86484.0,3870.0,0.10093868056719657
62858.99195250275,153909.0,86487.0,3888.0,0.111032548629737
62859.002046370806,153898.0,86488.0,3881.0,0.12112641668500146
62859.01214023886,153923.0,86517.0,3872.0,0.13122028474026592
62859.02223410692,153885.0,86516.0,3900.0,0.1413141527955304
62859.03232797497,153919.0,86516.0,3875.0,0.15140802085079486
62859.042421843034,153954.0,86503.0,3912.0,0.16150188891333528
62859.05251571109,153917.0,86480.0,3880.0,0.17159575696859974
62859.062609579145,153914.0,86515.0,3914.0,0.1816896250238642
62859.0727034472,153919.0,86503.0,3894.0,0.19178349307912868
62859.08279731526,153900.0,86518.0,3908.0,0.2018773611416691
62859.09289118332,153906.0,86475.0,3877.0,0.21197122919693356
62859.10298505137,153960.0,86535.0,3904.0,0.22206509725219803
62859.11307891943,153925.0,86501.0,3886.0,0.2321589653074625
62859.12317278749,153941.0,86489.0,3882.0,0.24225283337000292
62859.133266655546,153941.0,86516.0,3915.0,0.2523467014252674
62859.1433605236,153986.0,86505.0,3922.0,0.26244056948053185
62859.15345439166,153966.0,86516.0,3889.0,0.2725344375357963
62859.16354825972,153947.0,86502.0,3882.0,0.28262830559833674
62859.173642127775,153993.0,86529.0,3912.0,0.2927221736536012
62859.18373599583,153997.0,86533.0,3894.0,0.30281604170886567
62859.193829863885,153984.0,86524.0,3906.0,0.31290990976413013
62859.20392373194,153971.0,86514.0,3900.0,0.3230037778193946
62859.2140176,153985.0,86518.0,3924.0,0.333097645881935
62859.22411146806,154015.0,86521.0,3915.0,0.3431915139371995
62859.23420533611,153991.0,86521.0,3899.0,0.35328538199246395
62859.24429920417,154031.0,86524.0,3926.0,0.3633792500477284
62859.25439307223,153992.0,86517.0,3909.0,0.37347311811026884
62859.26448694029,153988.0,86536.0,3895.0,0.3835669861655333
62859.27458080834,154008.0,86540.0,3914.0,0.3936608542207978
62859.2846746764,154008.0,86517.0,3896.0,0.40375472227606224
62859.29476854446,154049.0,86561.0,3929.0,0.41384859033860266
62859.304862412515,154022.0,86543.0,3932.0,0.4239424583938671
62859.31495628057,154034.0,86538.0,3914.0,0.4340363264491316
62859.325050148625,154040.0,86523.0,3894.0,0.44413019450439606
62859.33514401668,154062.0,86565.0,3927.0,0.4542240625596605
62859.34523788474,154013.0,86532.0,3888.0,0.46431793062220095
62859.3553317528,154022.0,86553.0,3942.0,0.4744117986774654
62859.365425620854,154029.0,86561.0,3928.0,0.4845056667327299
62859.37551948891,154055.0,86528.0,3915.0,0.49459953478799434
62859.38561335697,154065.0,86541.0,3915.0,0.5046934028505348
62859.39570722503,154063.0,86543.0,3936.0,0.5147872709057992
62859.40580109308,154067.0,86532.0,3932.0,0.5248811389610637
62859.41589496114,154050.0,86531.0,3908.0,0.5349750070163282
62859.4259888292,154099.0,86559.0,3921.0,0.5450688750788686
62859.436082697255,154069.0,86545.0,3909.0,0.555162743134133
62859.44617656531,154095.0,86542.0,3928.0,0.5652566111893975
62859.456270433366,154113.0,86564.0,3902.0,0.575350479244662
62859.46636430143,154067.0,86582.0,3919.0,0.5854443473072024
62859.47645816948,154109.0,86548.0,3921.0,0.5955382153624669
62859.48655203754,154097.0,86537.0,3956.0,0.6056320834177313
62859.496645905594,154111.0,86552.0,3914.0,0.6157259514729958
62859.50673977365,154096.0,86534.0,3909.0,0.6258198195282603
62859.51683364171,154141.0,86574.0,3924.0,0.6359136875908007
62859.52692750977,154139.0,86561.0,3938.0,0.6460075556460652
62859.53702137782,154117.0,86568.0,3929.0,0.6561014237013296
62859.54711524588,154154.0,86564.0,3935.0,0.6661952917565941
62859.55720911394,154142.0,86554.0,3955.0,0.6762891598191345
62859.567302981995,154130.0,86567.0,3944.0,0.686383027874399
62859.57739685005,154116.0,86578.0,3974.0,0.6964768959296634
62859.587490718106,154073.0,86534.0,3922.0,0.7065707639849279
62859.59758458617,154023.0,86546.0,3908.0,0.7166646320474683
62859.607678454224,154040.0,86551.0,3927.0,0.7267585001027328
62859.61777232228,153987.0,86509.0,3913.0,0.7368523681579973
62859.627866190334,153985.0,86536.0,3919.0,0.7469462362132617
62859.6379600584,153917.0,86492.0,3904.0,0.7570401042758022
62859.64805392645,153916.0,86497.0,3910.0,0.7671339723310666
62859.65814779451,153929.0,86520.0,3897.0,0.7772278403863311
62859.66824166256,153879.0,86507.0,3897.0,0.7873217084415955
62859.67833553062,153922.0,86520.0,3931.0,0.79741557649686
62859.68842939868,153898.0,86513.0,3897.0,0.8075094445594004
62859.698523266736,153919.0,86524.0,3893.0,0.8176033126146649
62859.70861713479,153887.0,86500.0,3871.0,0.8276971806699294
62859.718711002846,153878.0,86519.0,3912.0,0.8377910487251938
62859.72880487091,153902.0,86513.0,3897.0,0.8478849167877343
62859.738898738964,153881.0,86499.0,3898.0,0.8579787848429987
62859.74899260702,153923.0,86543.0,3912.0,0.8680726528982632
62859.759086475075,153862.0,86470.0,3885.0,0.8781665209535277
62859.76918034314,153902.0,86505.0,3891.0,0.8882603890160681
62859.77927421119,153872.0,86496.0,3891.0,0.8983542570713325
62859.78936807925,153893.0,86522.0,3900.0,0.908448125126597
62859.7994619473,153877.0,86537.0,3890.0,0.9185419931818615
62859.809555815365,153894.0,86514.0,3890.0,0.9286358612444019
62859.81964968342,153897.0,86497.0,3915.0,0.9387297292996664
62859.829743551476,153876.0,86495.0,3871.0,0.9488235973549308
62859.83983741953,153935.0,86532.0,3916.0,0.9589174654101953
62859.84993128759,153909.0,86517.0,3881.0,0.9690113334654598
62859.86002515565,153870.0,86515.0,3896.0,0.9791052015280002
62859.870119023704,153896.0,86543.0,3895.0,0.9891990695832646
62859.88021289176,153899.0,86514.0,3880.0,0.9992929376385291
62859.890306759815,153931.0,86510.0,3863.0,1.0093868056937936
62859.90040062788,153876.0,86521.0,3875.0,1.019480673756334
62859.91049449593,153923.0,86535.0,3914.0,1.0295745418115985
62859.92058836399,153901.0,86508.0,3881.0,1.039668409866863
62859.93068223204,153915.0,86514.0,3897.0,1.0497622779221274
62859.940776100106,153884.0,86537.0,3883.0,1.0598561459846678
62859.95086996816,153888.0,86505.0,3881.0,1.0699500140399323
62859.960963836216,153935.0,86533.0,3876.0,1.0800438820951968
62859.97105770427,153910.0,86507.0,3880.0,1.0901377501504612
62859.981151572334,153889.0,86522.0,3894.0,1.1002316182130016
62859.99124544039,153905.0,86514.0,3872.0,1.110325486268266
62860.001339308445,153926.0,86526.0,3907.0,1.1204193543235306
62860.0114331765,153903.0,86523.0,3879.0,1.130513222378795
62860.021527044555,153905.0,86490.0,3890.0,1.1406070904340595
62860.03162091262,153950.0,86533.0,3886.0,1.1507009584966
62860.04171478067,153925.0,86524.0,3910.0,1.1607948265518644
62860.05180864873,153923.0,86507.0,3884.0,1.1708886946071289
62860.06190251678,153946.0,86514.0,3900.0,1.1809825626623933
62860.071996384846,153954.0,86553.0,3894.0,1.1910764307249337
62860.0820902529,153933.0,86513.0,3881.0,1.2011702987801982
62860.09218412096,153979.0,86554.0,3871.0,1.2112641668354627
62860.10227798901,153975.0,86530.0,3906.0,1.2213580348907271
62860.112371857074,153960.0,86514.0,3893.0,1.2314519029532676
62860.12246572513,154000.0,86561.0,3935.0,1.241545771008532
62860.132559593185,153988.0,86535.0,3885.0,1.2516396390637965
62860.14265346124,153994.0,86536.0,3912.0,1.261733507119061
62860.152747329295,154006.0,86544.0,3925.0,1.2718273751743254
62860.16284119736,153972.0,86548.0,3925.0,1.2819212432368658
62860.17293506541,153998.0,86513.0,3886.0,1.2920151112921303
62860.18302893347,154004.0,86532.0,3918.0,1.3021089793473948
62860.193122801524,154028.0,86548.0,3920.0,1.3122028474026592
62860.203216669586,154005.0,86516.0,3907.0,1.3222967154651997
62860.21331053764,154013.0,86512.0,3914.0,1.3323905835204641
62860.2234044057,154020.0,86545.0,3913.0,1.3424844515757286
62860.23349827375,154043.0,86550.0,3936.0,1.352578319630993
62860.243592141815,154007.0,86546.0,3888.0,1.3626721876935335
62860.25368600987,154057.0,86570.0,3936.0,1.372766055748798
62860.263779877925,154048.0,86552.0,3919.0,1.3828599238040624
62860.27387374598,154047.0,86551.0,3909.0,1.3929537918593269
62860.28396761404,154066.0,86555.0,3921.0,1.4030476599218673
62860.2940614821,154058.0,86566.0,3945.0,1.4131415279771318
62860.30415535015,154054.0,86537.0,3925.0,1.4232353960323962
62860.31424921821,154023.0,86549.0,3924.0,1.4333292640876607
62860.324343086264,154066.0,86541.0,3922.0,1.4434231321429252
62860.33443695433,154082.0,86565.0,3907.0,1.4535170002054656
62860.34453082238,154068.0,86541.0,3922.0,1.46361086826073
62860.35462469044,154056.0,86578.0,3935.0,1.4737047363159945
62860.36471855849,154056.0,86537.0,3917.0,1.483798604371259
62860.374812426555,154053.0,86581.0,3930.0,1.4938924724337994
62860.38490629461,154095.0,86551.0,3935.0,1.5039863404890639
62860.395000162665,154117.0,86550.0,3944.0,1.5140802085443283
62860.40509403072,154097.0,86561.0,3909.0,1.5241740765995928
62860.41518789878,154128.0,86576.0,3953.0,1.5342679446621332
62860.42528176684,154073.0,86532.0,3928.0,1.5443618127173977
62860.435375634894,154088.0,86567.0,3919.0,1.5544556807726622
62860.44546950295,154118.0,86596.0,3961.0,1.5645495488279266
62860.45556337101,154108.0,86576.0,3918.0,1.574643416890467
62860.46565723907,154140.0,86581.0,3937.0,1.5847372849457315
62860.47575110712,154145.0,86576.0,3917.0,1.594831153000996
62860.48584497518,154152.0,86586.0,3949.0,1.6049250210562604
62860.49593884323,154130.0,86572.0,3918.0,1.615018889111525
62860.506032711295,154131.0,86573.0,3928.0,1.6251127571740653
62860.51612657935,154128.0,86588.0,3956.0,1.6352066252293298
62860.526220447406,154081.0,86553.0,3930.0,1.6453004932845943
62860.53631431546,154093.0,86586.0,3914.0,1.6553943613398587
62860.54640818352,154038.0,86558.0,3911.0,1.6654882294023992
62860.55650205158,153959.0,86525.0,3927.0,1.6755820974576636
62860.566595919634,153988.0,86554.0,3918.0,1.685675965512928
62860.57668978769,153961.0,86540.0,3936.0,1.6957698335681926
62860.58678365575,153907.0,86533.0,3894.0,1.705863701630733
62860.59687752381,153922.0,86507.0,3905.0,1.7159575696859974
62860.60697139186,153932.0,86548.0,3906.0,1.726051437741262
62860.61706525992,153904.0,86496.0,3889.0,1.7361453057965264
62860.62715912798,153925.0,86526.0,3910.0,1.7462391738590668
62860.637252996035,153892.0,86537.0,3899.0,1.7563330419143313
62860.64734686409,153878.0,86493.0,3896.0,1.7664269099695957
62860.657440732146,153883.0,86491.0,3885.0,1.7765207780248602
62860.6675346002,153921.0,86542.0,3905.0,1.7866146460801247
62860.677628468264,153903.0,86524.0,3907.0,1.796708514142665
62860.68772233632,153876.0,86505.0,3915.0,1.8068023821979295
62860.697816204374,153918.0,86534.0,3912.0,1.816896250253194
62860.70791007243,153884.0,86491.0,3896.0,1.8269901183084585
62860.71800394049,153910.0,86516.0,3900.0,1.837083986370999
62860.72809780855,153891.0,86512.0,3890.0,1.8471778544262634
62860.7381916766,153892.0,86503.0,3912.0,1.8572717224815278
62860.74828554466,153892.0,86524.0,3892.0,1.8673655905367923
62860.75837941272,153916.0,86525.0,3892.0,1.8774594585993327
62860.768473280776,153930.0,86519.0,3887.0,1.8875533266545972
62860.77856714883,153897.0,86485.0,3894.0,1.8976471947098617
62860.788661016886,153920.0,86517.0,3895.0,1.9077410627651261
62860.79875488495,153938.0,86530.0,3892.0,1.9178349308276665
62860.808848753004,153899.0,86537.0,3894.0,1.927928798882931
62860.81894262106,153898.0,86523.0,3875.0,1.9380226669381955
62860.829036489115,153907.0,86553.0,3900.0,1.94811653499346
62860.83913035717,153923.0,86511.0,3900.0,1.9582104030487244
62860.84922422523,153915.0,86520.0,3881.0,1.9683042711112648
62860.85931809329,153934.0,86532.0,3915.0,1.9783981391665293
62860.86941196134,153898.0,86536.0,3909.0,1.9884920072217938
62860.8795058294,153927.0,86520.0,3894.0,1.9985858752770582
62860.88959969746,153920.0,86541.0,3896.0,2.0086797433395986
62860.899693565516,153944.0,86522.0,3908.0,2.018773611394863
62860.90978743357,153931.0,86528.0,3888.0,2.0288674794501276
62860.91988130163,153941.0,86538.0,3896.0,2.038961347505392
62860.92997516969,153917.0,86537.0,3928.0,2.0490552155679325
62860.940069037744,153942.0,86522.0,3879.0,2.059149083623197
62860.9501629058,153952.0,86515.0,3912.0,2.0692429516784614
62860.960256773855,153947.0,86549.0,3865.0,2.079336819733726
62860.97035064191,153926.0,86528.0,3875.0,2.0894306877889903
62860.98044450997,153955.0,86530.0,3861.0,2.0995245558515307
62860.99053837803,153976.0,86541.0,3920.0,2.109618423906795
62861.00063224608,153957.0,86523.0,3903.0,2.1197122919620597
62861.01072611414,153976.0,86522.0,3890.0,2.129806160017324
62861.0208199822,154008.0,86542.0,3920.0,2.1399000280798646
62861.030913850256,153988.0,86502.0,3880.0,2.149993896135129
62861.04100771831,153988.0,86544.0,3906.0,2.1600877641903935
62861.05110158637,154029.0,86545.0,3896.0,2.170181632245658
62861.06119545443,153984.0,86527.0,3878.0,2.1802755003081984
62861.071289322485,154003.0,86543.0,3894.0,2.190369368363463
62861.08138319054,154003.0,86550.0,3910.0,2.2004632364187273
62861.091477058595,154010.0,86508.0,3905.0,2.210557104473992
62861.10157092666,153983.0,86533.0,3895.0,2.220650972536532
62861.11166479471,154034.0,86552.0,3917.0,2.2307448405917967
62861.12175866277,154034.0,86542.0,3902.0,2.240838708647061
62861.13185253082,154000.0,86528.0,3920.0,2.2509325767023256
62861.14194639888,154056.0,86578.0,3940.0,2.26102644475759
62861.15204026694,154017.0,86525.0,3890.0,2.2711203128201305
62861.162134135,154051.0,86545.0,3920.0,2.281214180875395
62861.17222800305,154045.0,86546.0,3910.0,2.2913080489306594
62861.18232187111,154059.0,86563.0,3935.0,2.301401916985924
62861.19241573917,154038.0,86540.0,3896.0,2.3114957850484643
62861.202509607225,154093.0,86556.0,3940.0,2.321589653103729
62861.21260347528,154063.0,86572.0,3925.0,2.3316835211589932
62861.222697343335,154033.0,86503.0,3918.0,2.3417773892142577
62861.2327912114,154081.0,86579.0,3927.0,2.351871257276798
62861.24288507945,154046.0,86549.0,3937.0,2.3619651253320626
62861.25297894751,154081.0,86556.0,3925.0,2.372058993387327
62861.263072815564,154071.0,86586.0,3915.0,2.3821528614425915
62861.273166683626,154105.0,86556.0,3918.0,2.392246729505132
62861.28326055168,154064.0,86544.0,3937.0,2.4023405975603964
62861.29335441974,154092.0,86569.0,3928.0,2.412434465615661
62861.30344828779,154087.0,86572.0,3947.0,2.4225283336709253
62861.31354215585,154088.0,86566.0,3926.0,2.43262220172619
62861.32363602391,154124.0,86589.0,3948.0,2.4427160697887302
62861.333729891965,154126.0,86577.0,3930.0,2.4528099378439947
62861.34382376002,154102.0,86557.0,3913.0,2.462903805899259
62861.353917628076,154139.0,86579.0,3923.0,2.4729976739545236
62861.36401149614,154140.0,86601.0,3970.0,2.483091542017064
62861.37410536419,154145.0,86568.0,3930.0,2.4931854100723285
62861.38419923225,154108.0,86563.0,3927.0,2.503279278127593
62861.394293100304,154148.0,86590.0,3949.0,2.5133731461828575
62861.40438696837,154146.0,86552.0,3928.0,2.523467014245398
62861.41448083642,154153.0,86574.0,3941.0,2.5335608823006623
62861.42457470448,154159.0,86584.0,3907.0,2.543654750355927
62861.43466857253,154179.0,86591.0,3963.0,2.5537486184111913
62861.444762440595,154165.0,86585.0,3941.0,2.5638424864737317
62861.45485630865,154180.0,86578.0,3935.0,2.573936354528996
62861.464950176705,154136.0,86545.0,3933.0,2.5840302225842606
62861.47504404476,154097.0,86569.0,3929.0,2.594124090639525
62861.485137912816,154112.0,86577.0,3908.0,2.6042179586947896
62861.49523178088,154071.0,86541.0,3941.0,2.61431182675733
62861.505325648934,154027.0,86526.0,3941.0,2.6244056948125944
62861.51541951699,153998.0,86539.0,3921.0,2.634499562867859
62861.525513385044,153983.0,86534.0,3925.0,2.6445934309231234
62861.53560725311,153958.0,86534.0,3912.0,2.654687298985664
62861.54570112116,153951.0,86534.0,3913.0,2.6647811670409283
62861.55579498922,153956.0,86548.0,3914.0,2.6748750350961927
62861.56588885727,153945.0,86540.0,3931.0,2.684968903151457
62861.575982725335,153943.0,86526.0,3893.0,2.6950627712139976
62861.58607659339,153944.0,86541.0,3902.0,2.705156639269262
62861.596170461446,153974.0,86536.0,3923.0,2.7152505073245266
62861.6062643295,153979.0,86523.0,3906.0,2.725344375379791
62861.61635819756,153951.0,86531.0,3912.0,2.7354382434423314
62861.62645206562,153991.0,86546.0,3934.0,2.745532111497596
62861.636545933674,153920.0,86534.0,3889.0,2.7556259795528604
62861.64663980173,153974.0,86518.0,3908.0,2.765719847608125
62861.656733669784,153964.0,86534.0,3913.0,2.7758137156633893
62861.66682753785,153958.0,86539.0,3875.0,2.7859075837259297
62861.6769214059,153966.0,86559.0,3925.0,2.796001451781194
62861.68701527396,153986.0,86559.0,3929.0,2.8060953198364587
62861.69710914201,153970.0,86532.0,3881.0,2.816189187891723
62861.707203010075,153937.0,86541.0,3914.0,2.8262830559542635
62861.71729687813,153991.0,86571.0,3920.0,2.836376924009528
62861.727390746186,153967.0,86531.0,3868.0,2.8464707920647925
62861.73748461424,153979.0,86546.0,3900.0,2.856564660120057
62861.747578482304,153969.0,86538.0,3900.0,2.8666585281825974
62861.75767235036,153926.0,86533.0,3872.0,2.876752396237862
62861.767766218414,153948.0,86519.0,3902.0,2.8868462642931263
62861.77786008647,153990.0,86536.0,3921.0,2.8969401323483908
62861.787953954525,153969.0,86545.0,3904.0,2.9070340004036552
62861.79804782259,153939.0,86526.0,3908.0,2.9171278684661957
62861.80814169064,154003.0,86549.0,3897.0,2.92722173652146
62861.8182355587,153938.0,86513.0,3895.0,2.9373156045767246
62861.82832942675,153967.0,86550.0,3902.0,2.947409472631989
62861.838423294816,153952.0,86562.0,3901.0,2.9575033406945295
62861.84851716287,153970.0,86516.0,3895.0,2.967597208749794
62861.858611030926,153973.0,86549.0,3863.0,2.9776910768050584
62861.86870489898,153976.0,86552.0,3901.0,2.987784944860323
62861.878798767044,153964.0,86551.0,3915.0,2.9978788129228633
62861.8888926351,153940.0,86519.0,3886.0,3.0079726809781278
62861.898986503154,153997.0,86579.0,3915.0,3.018066549033392
62861.90908037121,153990.0,86542.0,3902.0,3.0281604170886567
62861.91917423927,154004.0,86542.0,3899.0,3.038254285151197
62861.92926810733,154033.0,86571.0,3906.0,3.0483481532064616
62861.93936197538,154009.0,86533.0,3901.0,3.058442021261726
62861.94945584344,154008.0,86543.0,3903.0,3.0685358893169905
62861.95954971149,154018.0,86545.0,3896.0,3.078629757372255
62861.969643579556,154027.0,86530.0,3923.0,3.0887236254347954
62861.97973744761,154004.0,86534.0,3894.0,3.09881749349006
62861.98983131567,154029.0,86552.0,3909.0,3.1089113615453243
62861.99992518372,154056.0,86560.0,3895.0,3.119005229600589
62862.010019051784,154071.0,86562.0,3938.0,3.129099097663129
62862.02011291984,154040.0,86560.0,3917.0,3.1391929657183937
62862.030206787895,154025.0,86533.0,3945.0,3.149286833773658
62862.04030065595,154057.0,86543.0,3919.0,3.1593807018289226
62862.05039452401,154041.0,86527.0,3908.0,3.169474569891463
62862.06048839207,154060.0,86558.0,3929.0,3.1795684379467275
62862.07058226012,154060.0,86555.0,3913.0,3.189662306001992
62862.08067612818,154050.0,86572.0,3915.0,3.1997561740572564
62862.09076999624,154069.0,86573.0,3931.0,3.209850042119797
62862.100863864296,154058.0,86536.0,3908.0,3.2199439101750613
62862.11095773235,154087.0,86558.0,3914.0,3.230037778230326
62862.12105160041,154074.0,86567.0,3918.0,3.2401316462855903
62862.13114546846,154063.0,86557.0,3911.0,3.2502255143408547
62862.141239336524,154054.0,86557.0,3911.0,3.260319382403395
62862.15133320458,154088.0,86560.0,3925.0,3.2704132504586596
62862.161427072635,154092.0,86547.0,3964.0,3.280507118513924
62862.17152094069,154109.0,86566.0,3937.0,3.2906009865691885
62862.18161480875,154095.0,86560.0,3922.0,3.300694854631729
62862.19170867681,154095.0,86562.0,3929.0,3.3107887226869934
62862.20180254486,154111.0,86577.0,3906.0,3.320882590742258
62862.21189641292,154092.0,86565.0,3910.0,3.3309764587975224
62862.22199028098,154147.0,86571.0,3952.0,3.341070326860063
62862.23208414904,154114.0,86566.0,3933.0,3.3511641949153272
62862.24217801709,154136.0,86569.0,3943.0,3.3612580629705917
62862.25227188515,154118.0,86542.0,3926.0,3.371351931025856
62862.26236575321,154121.0,86557.0,3923.0,3.3814457990883966
62862.272459621265,154131.0,86570.0,3938.0,3.391539667143661
62862.28255348932,154140.0,86565.0,3937.0,3.4016335351989255
62862.292647357375,154152.0,86553.0,3950.0,3.41172740325419
62862.30274122543,154140.0,86557.0,3918.0,3.4218212713094545
62862.31283509349,154139.0,86570.0,3929.0,3.431915139371995
62862.32292896155,154140.0,86537.0,3940.0,3.4420090074272593
62862.3330228296,154115.0,86557.0,3947.0,3.452102875482524
62862.34311669766,154110.0,86587.0,3948.0,3.4621967435377883
62862.35321056572,154070.0,86567.0,3909.0,3.4722906116003287
62862.36330443378,154075.0,86552.0,3933.0,3.482384479655593
62862.37339830183,154032.0,86540.0,3916.0,3.4924783477108576
62862.38349216989,153991.0,86546.0,3906.0,3.502572215766122
62862.39358603795,154022.0,86558.0,3905.0,3.5126660838286625
62862.403679906005,153981.0,86530.0,3916.0,3.522759951883927
62862.41377377406,153943.0,86517.0,3926.0,3.5328538199391915
62862.423867642116,153944.0,86530.0,3909.0,3.542947687994456
62862.43396151018,153919.0,86498.0,3887.0,3.5530415560569963
62862.44405537823,153957.0,86530.0,3901.0,3.563135424112261
62862.45414924629,153940.0,86552.0,3909.0,3.5732292921675253
62862.464243114344,153963.0,86540.0,3911.0,3.5833231602227897
62862.4743369824,153957.0,86494.0,3902.0,3.593417028278054
62862.48443085046,153971.0,86528.0,3907.0,3.6035108963405946
62862.49452471852,153984.0,86528.0,3931.0,3.613604764395859
62862.50461858657,153965.0,86522.0,3877.0,3.6236986324511236
62862.51471245463,153995.0,86507.0,3900.0,3.633792500506388
62862.52480632269,153984.0,86543.0,3904.0,3.6438863685689284
62862.534900190745,153969.0,86533.0,3917.0,3.653980236624193
62862.5449940588,153977.0,86553.0,3912.0,3.6640741046794574
62862.555087926856,154023.0,86551.0,3935.0,3.674167972734722
62862.56518179492,154031.0,86554.0,3921.0,3.6842618407972623
62862.57527566297,154012.0,86558.0,3898.0,3.6943557088525267
62862.58536953103,153946.0,86541.0,3916.0,3.704449576907791
62862.595463399084,153997.0,86567.0,3920.0,3.7145434449630557
62862.60555726714,154009.0,86544.0,3916.0,3.72463731301832
62862.6156511352,153995.0,86516.0,3893.0,3.7347311810808606
62862.62574500326,154014.0,86549.0,3910.0,3.744825049136125
62862.63583887131,153983.0,86530.0,3894.0,3.7549189171913895
62862.64593273937,153994.0,86539.0,3904.0,3.765012785246654
62862.65602660743,153982.0,86569.0,3925.0,3.7751066533091944
62862.666120475486,154014.0,86551.0,3932.0,3.785200521364459
62862.67621434354,153948.0,86574.0,3907.0,3.7952943894197233
62862.686308211596,153995.0,86530.0,3899.0,3.8053882574749878
62862.69640207966,154005.0,86551.0,3908.0,3.815482125537528
62862.706495947714,153981.0,86539.0,3882.0,3.8255759935927927
62862.71658981577,153983.0,86542.0,3928.0,3.835669861648057
62862.726683683824,153995.0,86544.0,3909.0,3.8457637297033216
62862.73677755189,153984.0,86519.0,3876.0,3.855857597765862
62862.74687141994,154005.0,86514.0,3895.0,3.8659514658211265
62862.756965288,153973.0,86540.0,3881.0,3.876045333876391
62862.76705915605,154017.0,86543.0,3907.0,3.8861392019316554
62862.77715302411,153981.0,86544.0,3886.0,3.89623306998692
62862.78724689217,153994.0,86554.0,3908.0,3.9063269380494603
62862.797340760226,154017.0,86544.0,3895.0,3.9164208061047248
62862.80743462828,154038.0,86541.0,3903.0,3.9265146741599892
62862.817528496336,154050.0,86567.0,3918.0,3.9366085422152537
62862.8276223644,154030.0,86544.0,3909.0,3.946702410277794
62862.837716232454,154069.0,86576.0,3863.0,3.9567962783330586
62862.84781010051,154043.0,86538.0,3884.0,3.966890146388323
62862.857903968565,154059.0,86529.0,3931.0,3.9769840144435875
62862.86799783663,154039.0,86552.0,3902.0,3.987077882506128
62862.87809170468,154074.0,86530.0,3927.0,3.9971717505613924
62862.88818557274,154079.0,86556.0,3944.0,4.007265618616657
62862.89827944079,154051.0,86549.0,3925.0,4.017359486671921
62862.908373308856,154092.0,86577.0,3928.0,4.027453354734462
62862.91846717691,154071.0,86546.0,3909.0,4.037547222789726
62862.928561044966,154103.0,86564.0,3928.0,4.047641090844991
62862.93865491302,154079.0,86594.0,3924.0,4.057734958900255
62862.94874878108,154112.0,86556.0,3913.0,4.06782882695552
62862.95884264914,154094.0,86528.0,3923.0,4.07792269501806
62862.968936517194,154100.0,86568.0,3934.0,4.0880165630733245
62862.97903038525,154094.0,86568.0,3931.0,4.098110431128589
62862.989124253305,154060.0,86533.0,3925.0,4.108204299183853
62862.99921812137,154133.0,86585.0,3941.0,4.118298167246394
62863.00931198942,154089.0,86537.0,3924.0,4.128392035301658
62863.01940585748,154105.0,86570.0,3932.0,4.138485903356923
62863.02949972553,154119.0,86557.0,3930.0,4.148579771412187
62863.039593593596,154108.0,86556.0,3951.0,4.158673639474728
62863.04968746165,154108.0,86562.0,3922.0,4.168767507529992
62863.059781329706,154133.0,86565.0,3924.0,4.178861375585257
62863.06987519776,154173.0,86567.0,3941.0,4.188955243640521
62863.079969065824,154127.0,86563.0,3945.0,4.1990491117030615
62863.09006293388,154150.0,86576.0,3941.0,4.209142979758326
62863.100156801935,154153.0,86587.0,3945.0,4.21923684781359
62863.11025066999,154109.0,86587.0,3936.0,4.229330715868855
62863.120344538045,154130.0,86604.0,3937.0,4.239424583924119
62863.13043840611,154136.0,86573.0,3944.0,4.24951845198666
62863.14053227416,154132.0,86565.0,3935.0,4.259612320041924
62863.15062614222,154113.0,86565.0,3919.0,4.269706188097189
62863.16072001027,154124.0,86577.0,3953.0,4.279800056152453
62863.170813878336,154102.0,86576.0,3954.0,4.289893924214994
62863.18090774639,154057.0,86555.0,3931.0,4.299987792270258
62863.19100161445,154021.0,86560.0,3927.0,4.3100816603255225
62863.2010954825,153982.0,86546.0,3891.0,4.320175528380787
62863.211189350564,153986.0,86563.0,3881.0,4.330269396443327
62863.22128321862,153970.0,86529.0,3903.0,4.340363264498592
62863.231377086675,153911.0,86508.0,3919.0,4.350457132553856
62863.24147095473,153955.0,86522.0,3902.0,4.360551000609121
62863.25156482279,153946.0,86539.0,3915.0,4.370644868671661
62863.26165869085,153973.0,86528.0,3903.0,4.380738736726926
62863.2717525589,153954.0,86521.0,3884.0,4.39083260478219
62863.28184642696,153985.0,86552.0,3925.0,4.400926472837455
62863.291940295014,153944.0,86532.0,3878.0,4.411020340892719
62863.302034163076,153974.0,86536.0,3903.0,4.4211142089552595
62863.31212803113,153985.0,86530.0,3904.0,4.431208077010524
62863.32222189919,153992.0,86533.0,3922.0,4.4413019450657885
62863.33231576724,153961.0,86510.0,3863.0,4.451395813121053
62863.342409635305,154008.0,86537.0,3905.0,4.461489681183593
62863.35250350336,154014.0,86549.0,3901.0,4.471583549238858
62863.362597371415,154000.0,86526.0,3890.0,4.481677417294122
62863.37269123947,154012.0,86551.0,3921.0,4.491771285349387
62863.38278510753,153994.0,86525.0,3901.0,4.501865153411927
62863.39287897559,154030.0,86523.0,3909.0,4.511959021467192
62863.40297284364,154003.0,86552.0,3917.0,4.522052889522456
62863.4130667117,154035.0,86567.0,3916.0,4.532146757577721
62863.42316057976,154003.0,86534.0,3892.0,4.542240625640261
62863.43325444782,153999.0,86514.0,3927.0,4.5523344936955255
62863.44334831587,154034.0,86571.0,3932.0,4.56242836175079
62863.45344218393,153994.0,86525.0,3919.0,4.572522229806054
62863.46353605198,154006.0,86537.0,3903.0,4.582616097861319
62863.473629920045,153988.0,86535.0,3903.0,4.592709965923859
62863.4837237881,154000.0,86546.0,3903.0,4.602803833979124
62863.493817656155,154016.0,86562.0,3934.0,4.612897702034388
62863.50391152421,154035.0,86556.0,3951.0,4.622991570089653
62863.51400539227,153999.0,86548.0,3904.0,4.633085438152193
62863.52409926033,153988.0,86528.0,3900.0,4.643179306207458
62863.534193128384,154009.0,86522.0,3897.0,4.653273174262722
62863.54428699644,153987.0,86519.0,3920.0,4.6633670423179865
62863.5543808645,154016.0,86538.0,3905.0,4.673460910380527
62863.56447473256,154011.0,86537.0,3912.0,4.683554778435791
62863.57456860061,154036.0,86553.0,3925.0,4.693648646491056
62863.58466246867,154017.0,86535.0,3886.0,4.70374251454632
62863.59475633672,154031.0,86548.0,3911.0,4.713836382601585
62863.604850204785,154034.0,86517.0,3905.0,4.723930250664125
62863.61494407284,154027.0,86529.0,3905.0,4.73402411871939
62863.625037940896,154035.0,86579.0,3916.0,4.744117986774654
62863.63513180895,154077.0,86567.0,3922.0,4.754211854829919
62863.64522567701,154063.0,86533.0,3931.0,4.764305722892459
62863.65531954507,154054.0,86535.0,3890.0,4.7743995909477235
62863.665413413124,154079.0,86563.0,3940.0,4.784493459002988
62863.67550728118,154076.0,86545.0,3923.0,4.794587327058252
62863.68560114924,154063.0,86561.0,3920.0,4.804681195120793
62863.6956950173,154067.0,86579.0,3926.0,4.814775063176057
62863.70578888535,154060.0,86549.0,3891.0,4.824868931231322
62863.71588275341,154094.0,86560.0,3919.0,4.834962799286586
62863.72597662147,154088.0,86560.0,3904.0,4.845056667349127
62863.736070489525,154055.0,86558.0,3919.0,4.855150535404391
62863.74616435758,154095.0,86538.0,3910.0,4.865244403459656
62863.756258225636,154099.0,86554.0,3927.0,4.87533827151492
62863.76635209369,154100.0,86596.0,3934.0,4.8854321395701845
62863.776445961754,154098.0,86557.0,3915.0,4.895526007632725
62863.78653982981,154125.0,86574.0,3912.0,4.905619875687989
62863.796633697864,154106.0,86557.0,3920.0,4.915713743743254
62863.80672756592,154090.0,86559.0,3905.0,4.925807611798518
62863.81682143398,154086.0,86543.0,3901.0,4.935901479861059
62863.82691530204,154145.0,86597.0,3943.0,4.945995347916323
62863.83700917009,154137.0,86568.0,3929.0,4.956089215971588
62863.84710303815,154129.0,86545.0,3903.0,4.966183084026852
62863.85719690621,154161.0,86581.0,3906.0,4.976276952089393
62863.867290774266,154133.0,86573.0,3967.0,4.986370820144657
62863.87738464232,154152.0,86566.0,3934.0,4.9964646881999215
62863.887478510376,154140.0,86558.0,3924.0,5.006558556255186
62863.89757237844,154145.0,86549.0,3937.0,5.016652424317726
62863.907666246494,154111.0,86542.0,3952.0,5.026746292372991
62863.91776011455,154095.0,86564.0,3930.0,5.036840160428255
62863.927853982605,154089.0,86570.0,3917.0,5.04693402848352
62863.93794785066,154032.0,86537.0,3934.0,5.057027896538784
62863.94804171872,154040.0,86573.0,3944.0,5.067121764601325
62863.95813558678,153993.0,86537.0,3921.0,5.077215632656589
62863.96822945483,153995.0,86511.0,3906.0,5.087309500711854
62863.97832332289,153937.0,86509.0,3879.0,5.097403368767118
62863.98841719095,153976.0,86557.0,3902.0,5.1074972368296585
62863.998511059006,153946.0,86520.0,3872.0,5.117591104884923
62864.00860492706,153935.0,86495.0,3923.0,5.127684972940187
62864.01869879512,153971.0,86549.0,3895.0,5.137778840995452
62864.02879266318,153926.0,86508.0,3900.0,5.147872709057992
62864.038886531234,153919.0,86518.0,3885.0,5.157966577113257
62864.04898039929,153917.0,86502.0,3888.0,5.168060445168521
62864.059074267345,153964.0,86549.0,3910.0,5.178154313223786
62864.06916813541,153925.0,86524.0,3877.0,5.188248181286326
62864.07926200346,153949.0,86538.0,3883.0,5.198342049341591
62864.08935587152,153953.0,86557.0,3890.0,5.208435917396855
62864.09944973957,153921.0,86506.0,3898.0,5.2185297854521195
62864.10954360763,153971.0,86545.0,3886.0,5.228623653507384
62864.11963747569,153953.0,86552.0,3904.0,5.238717521569924
62864.129731343746,153967.0,86543.0,3889.0,5.248811389625189
62864.1398252118,153919.0,86534.0,3898.0,5.258905257680453
62864.14991907986,153984.0,86554.0,3893.0,5.268999125735718
62864.16001294792,153955.0,86523.0,3897.0,5.279092993798258
62864.170106815975,153934.0,86506.0,3863.0,5.289186861853523
62864.18020068403,153954.0,86527.0,3885.0,5.299280729908787
62864.190294552085,153925.0,86515.0,3881.0,5.309374597964052
62864.20038842015,153921.0,86523.0,3868.0,5.319468466026592
62864.2104822882,153957.0,86537.0,3883.0,5.3295623340818565
62864.22057615626,153960.0,86510.0,3902.0,5.339656202137121
62864.23067002431,153922.0,86513.0,3881.0,5.3497500701923855
62864.240763892376,153964.0,86531.0,3886.0,5.359843938254926
62864.25085776043,153942.0,86532.0,3894.0,5.36993780631019
62864.26095162849,153926.0,86553.0,3894.0,5.380031674365455
62864.27104549654,153941.0,86548.0,3900.0,5.390125542420719
62864.2811393646,153911.0,86513.0,3847.0,5.400219410475984
62864.29123323266,153957.0,86530.0,3882.0,5.410313278538524
62864.301327100715,153950.0,86546.0,3878.0,5.420407146593789
62864.31142096877,153943.0,86514.0,3904.0,5.430501014649053
62864.321514836825,153928.0,86509.0,3868.0,5.440594882704318
62864.33160870489,153978.0,86541.0,3888.0,5.450688750766858
62864.34170257294,153952.0,86531.0,3876.0,5.4607826188221225
62864.351796441,153974.0,86545.0,3877.0,5.470876486877387
62864.361890309054,153973.0,86521.0,3864.0,5.480970354932651
62864.371984177116,153978.0,86537.0,3892.0,5.491064222995192
62864.38207804517,153987.0,86555.0,3904.0,5.501158091050456
62864.39217191323,153962.0,86502.0,3858.0,5.511251959105721
62864.40226578128,154016.0,86568.0,3921.0,5.521345827160985
62864.41235964934,154004.0,86547.0,3894.0,5.53143969521625
62864.4224535174,154005.0,86519.0,3874.0,5.54153356327879
62864.432547385455,154012.0,86534.0,3875.0,5.551627431334055
62864.44264125351,154024.0,86575.0,3910.0,5.561721299389319
62864.452735121566,154011.0,86537.0,3901.0,5.5718151674445835
62864.46282898963,153997.0,86542.0,3869.0,5.581909035507124
62864.47292285768,154053.0,86578.0,3912.0,5.592002903562388
62864.48301672574,154013.0,86553.0,3890.0,5.602096771617653
62864.493110593794,154047.0,86556.0,3891.0,5.612190639672917
62864.50320446186,154048.0,86572.0,3908.0,5.622284507735458
62864.51329832991,154043.0,86537.0,3890.0,5.632378375790722
62864.52339219797,154076.0,86561.0,3920.0,5.642472243845987
62864.53348606602,154055.0,86542.0,3898.0,5.652566111901251
62864.543579934085,154060.0,86558.0,3903.0,5.662659979963792
62864.55367380214,154038.0,86559.0,3874.0,5.672753848019056
62864.563767670195,154077.0,86571.0,3887.0,5.6828477160743205
62864.57386153825,154067.0,86532.0,3949.0,5.692941584129585
62864.583955406306,154050.0,86529.0,3917.0,5.703035452184849
62864.59404927437,154057.0,86535.0,3900.0,5.71312932024739
62864.604143142424,154055.0,86535.0,3911.0,5.723223188302654
62864.61423701048,154067.0,86543.0,3938.0,5.733317056357919
62864.624330878534,154080.0,86571.0,3909.0,5.743410924413183
62864.6344247466,154109.0,86570.0,3912.0,5.753504792475724
62864.64451861465,154090.0,86534.0,3895.0,5.763598660530988
62864.65461248271,154089.0,86554.0,3922.0,5.773692528586253
62864.66470635076,154090.0,86551.0,3914.0,5.783786396641517
62864.674800218825,154124.0,86565.0,3911.0,5.7938802647040575
62864.68489408688,154083.0,86546.0,3894.0,5.803974132759322
62864.694987954936,154125.0,86586.0,3934.0,5.814068000814586
62864.70508182299,154100.0,86541.0,3904.0,5.824161868869851
62864.71517569105,154079.0,86556.0,3913.0,5.834255736932391
62864.72526955911,154105.0,86569.0,3921.0,5.844349604987656
62864.735363427164,154073.0,86544.0,3918.0,5.85444347304292
62864.74545729522,154086.0,86569.0,3908.0,5.864537341098185
62864.755551163275,154065.0,86562.0,3934.0,5.874631209153449
62864.76564503134,154027.0,86549.0,3921.0,5.88472507721599
62864.77573889939,153954.0,86532.0,3882.0,5.894818945271254
62864.78583276745,153954.0,86532.0,3898.0,5.9049128133265185
62864.7959266355,153926.0,86513.0,3902.0,5.915006681381783
62864.806020503565,153915.0,86511.0,3872.0,5.925100549444323
62864.81611437162,153902.0,86544.0,3899.0,5.935194417499588
62864.826208239676,153881.0,86514.0,3877.0,5.945288285554852
62864.83630210773,153858.0,86527.0,3889.0,5.955382153610117
62864.846395975794,153831.0,86489.0,3849.0,5.965476021672657
62864.85648984385,153893.0,86509.0,3884.0,5.975569889727922
62864.866583711904,153880.0,86518.0,3862.0,5.985663757783186
62864.87667757996,153868.0,86495.0,3858.0,5.995757625838451
62864.88677144802,153893.0,86512.0,3867.0,6.005851493900991
62864.89686531608,153846.0,86510.0,3882.0,6.0159453619562555
62864.90695918413,153881.0,86519.0,3871.0,6.02603923001152
62864.91705305219,153873.0,86488.0,3841.0,6.036133098066784
62864.92714692024,153866.0,86511.0,3847.0,6.046226966122049
62864.937240788306,153848.0,86487.0,3859.0,6.056320834184589
62864.94733465636,153880.0,86507.0,3865.0,6.066414702239854
62864.957428524416,153855.0,86517.0,3890.0,6.076508570295118
62864.96752239247,153839.0,86493.0,3823.0,6.086602438350383
62864.977616260534,153830.0,86525.0,3844.0,6.096696306412923
62864.98771012859,153873.0,86508.0,3845.0,6.106790174468188
62864.997803996645,153888.0,86519.0,3871.0,6.116884042523452
62865.0078978647,153894.0,86546.0,3867.0,6.1269779105787165
62865.01799173276,153895.0,86529.0,3877.0,6.137071778641257
62865.02808560082,153889.0,86520.0,3853.0,6.147165646696521
62865.03817946887,153851.0,86505.0,3838.0,6.157259514751786
62865.04827333693,153857.0,86526.0,3870.0,6.16735338280705
62865.05836720499,153893.0,86521.0,3883.0,6.177447250869591
62865.068461073046,153880.0,86516.0,3856.0,6.187541118924855
62865.0785549411,153855.0,86498.0,3851.0,6.19763498698012
62865.08864880916,153884.0,86530.0,3845.0,6.207728855035384
62865.09874267721,153864.0,86487.0,3847.0,6.217822723090649
62865.108836545274,153873.0,86525.0,3861.0,6.227916591153189
62865.11893041333,153852.0,86530.0,3865.0,6.2380104592084535
62865.129024281385,153850.0,86480.0,3849.0,6.248104327263718
62865.13911814944,153872.0,86522.0,3824.0,6.2581981953189825
62865.1492120175,153878.0,86510.0,3858.0,6.268292063381523
62865.15930588556,153862.0,86507.0,3861.0,6.278385931436787
62865.16939975361,153855.0,86497.0,3834.0,6.288479799492052
62865.17949362167,153871.0,86497.0,3845.0,6.298573667547316
62865.18958748973,153896.0,86521.0,3842.0,6.308667535609857
62865.199681357786,153886.0,86519.0,3841.0,6.318761403665121
62865.20977522584,153874.0,86517.0,3851.0,6.328855271720386
62865.2198690939,153889.0,86501.0,3849.0,6.33894913977565
62865.22996296195,153880.0,86514.0,3846.0,6.349043007830915
62865.240056830015,153912.0,86517.0,3859.0,6.359136875893455
62865.25015069807,153899.0,86498.0,3857.0,6.3692307439487195
62865.260244566125,153872.0,86501.0,3836.0,6.379324612003984
62865.27033843418,153911.0,86518.0,3867.0,6.389418480059248
62865.28043230224,153911.0,86521.0,3862.0,6.399512348121789
62865.2905261703,153900.0,86517.0,3850.0,6.409606216177053
62865.30062003835,153927.0,86531.0,3852.0,6.419700084232318
62865.31071390641,153943.0,86551.0,3886.0,6.429793952287582
62865.32080777447,153929.0,86528.0,3868.0,6.439887820350123
62865.33090164253,153920.0,86502.0,3843.0,6.449981688405387
62865.34099551058,153907.0,86519.0,3856.0,6.460075556460652
62865.35108937864,153940.0,86528.0,3846.0,6.470169424515916
62865.3611832467,153952.0,86530.0,3873.0,6.4802632925784565
62865.371277114755,153979.0,86510.0,3911.0,6.490357160633721
62865.38137098281,153934.0,86490.0,3873.0,6.500451028688985
62865.391464850865,153907.0,86520.0,3838.0,6.51054489674425
62865.40155871892,153957.0,86539.0,3869.0,6.520638764799514
62865.41165258698,153990.0,86559.0,3859.0,6.530732632862055
62865.42174645504,153988.0,86537.0,3903.0,6.540826500917319
62865.431840323094,153966.0,86533.0,3854.0,6.550920368972584
62865.44193419115,153982.0,86525.0,3874.0,6.561014237027848
62865.45202805921,153984.0,86528.0,3858.0,6.571108105090389
62865.46212192727,153986.0,86520.0,3869.0,6.581201973145653
62865.47221579532,153985.0,86543.0,3894.0,6.5912958412009175
62865.48230966338,153987.0,86538.0,3872.0,6.601389709256182
62865.49240353144,153986.0,86537.0,3879.0,6.611483577318722
62865.502497399495,154021.0,86569.0,3896.0,6.621577445373987
62865.51259126755,153958.0,86490.0,3880.0,6.631671313429251
62865.522685135606,154011.0,86542.0,3877.0,6.641765181484516
62865.53277900367,154016.0,86558.0,3895.0,6.651859049547056
62865.54287287172,154039.0,86566.0,3859.0,6.661952917602321
62865.55296673978,153994.0,86572.0,3885.0,6.672046785657585
62865.563060607834,154037.0,86551.0,3878.0,6.68214065371285
62865.57315447589,154037.0,86539.0,3897.0,6.692234521768114
62865.58324834395,154040.0,86531.0,3908.0,6.7023283898306545
62865.59334221201,154024.0,86520.0,3881.0,6.712422257885919
62865.60343608006,154031.0,86533.0,3883.0,6.722516125941183
62865.61352994812,154057.0,86571.0,3890.0,6.732609993996448
62865.62362381618,153979.0,86561.0,3895.0,6.742703862058988
62865.633717684235,153982.0,86546.0,3905.0,6.752797730114253
62865.64381155229,153938.0,86519.0,3862.0,6.762891598169517
62865.653905420346,153922.0,86530.0,3853.0,6.772985466224782
62865.66399928841,153875.0,86499.0,3860.0,6.783079334287322
62865.674093156464,153860.0,86521.0,3852.0,6.793173202342587
62865.68418702452,153837.0,86508.0,3830.0,6.803267070397851
62865.694280892574,153802.0,86488.0,3868.0,6.8133609384531155
62865.70437476064,153833.0,86507.0,3853.0,6.823454806515656
62865.71446862869,153821.0,86499.0,3851.0,6.83354867457092
62865.72456249675,153807.0,86501.0,3862.0,6.843642542626185
62865.7346563648,153803.0,86506.0,3840.0,6.853736410681449
62865.74475023286,153838.0,86527.0,3824.0,6.863830278736714
62865.75484410092,153833.0,86523.0,3857.0,6.873924146799254
62865.764937968976,153780.0,86499.0,3818.0,6.884018014854519
62865.77503183703,153808.0,86475.0,3828.0,6.894111882909783
62865.785125705086,153805.0,86539.0,3845.0,6.904205750965048
62865.79521957315,153837.0,86509.0,3846.0,6.914299619027588
62865.805313441204,153823.0,86513.0,3850.0,6.9243934870828525
62865.81540730926,153820.0,86492.0,3834.0,6.934487355138117
62865.825501177314,153807.0,86491.0,3828.0,6.9445812231933814
62865.83559504538,153774.0,86493.0,3811.0,6.954675091255922
62865.84568891343,153792.0,86495.0,3828.0,6.964768959311186
62865.85578278149,153806.0,86500.0,3834.0,6.974862827366451
62865.86587664954,153780.0,86489.0,3867.0,6.984956695421715
62865.875970517605,153811.0,86501.0,3826.0,6.995050563484256
62865.88606438566,153830.0,86517.0,3828.0,7.00514443153952
62865.896158253716,153805.0,86500.0,3839.0,7.015238299594785
62865.90625212177,153845.0,86509.0,3840.0,7.025332167650049
62865.91634598983,153779.0,86479.0,3843.0,7.0354260357053136
62865.92643985789,153816.0,86505.0,3816.0,7.045519903767854
62865.936533725944,153804.0,86500.0,3821.0,7.055613771823118
62865.946627594,153786.0,86488.0,3825.0,7.065707639878383
62865.956721462055,153776.0,86485.0,3844.0,7.075801507933647
62865.96681533012,153786.0,86499.0,3814.0,7.085895375996188
62865.97690919817,153800.0,86495.0,3829.0,7.095989244051452
62865.98700306623,153822.0,86511.0,3850.0,7.106083112106717
62865.99709693428,153839.0,86499.0,3844.0,7.116176980161981
62866.007190802346,153770.0,86495.0,3837.0,7.126270848224522
62866.0172846704,153809.0,86495.0,3815.0,7.136364716279786
62866.027378538456,153780.0,86503.0,3818.0,7.1464585843350505
62866.03747240651,153804.0,86494.0,3819.0,7.156552452390315
62866.04756627457,153827.0,86513.0,3826.0,7.1666463204455795
62866.05766014263,153818.0,86505.0,3832.0,7.17674018850812
62866.067754010684,153796.0,86487.0,3820.0,7.186834056563384
62866.07784787874,153869.0,86505.0,3818.0,7.196927924618649
62866.087941746795,153823.0,86528.0,3834.0,7.207021792673913
62866.09803561486,153845.0,86506.0,3834.0,7.217115660736454
62866.10812948291,153867.0,86518.0,3855.0,7.227209528791718
62866.11822335097,153854.0,86533.0,3809.0,7.237303396846983
62866.12831721902,153854.0,86525.0,3852.0,7.247397264902247
62866.138411087086,153859.0,86508.0,3844.0,7.2574911329647875
62866.14850495514,153840.0,86499.0,3808.0,7.267585001020052
62866.1585988232,153890.0,86497.0,3845.0,7.2776788690753165
62866.16869269125,153858.0,86515.0,3826.0,7.287772737130581
62866.178786559314,153908.0,86526.0,3838.0,7.297866605193121
62866.18888042737,153917.0,86546.0,3835.0,7.307960473248386
62866.198974295425,153894.0,86515.0,3835.0,7.31805434130365
62866.20906816348,153867.0,86491.0,3828.0,7.328148209358915
62866.219162031535,153897.0,86522.0,3844.0,7.338242077414179
62866.2292558996,153894.0,86552.0,3854.0,7.34833594547672
62866.23934976765,153872.0,86517.0,3828.0,7.358429813531984
62866.24944363571,153944.0,86546.0,3828.0,7.368523681587249
62866.25953750376,153915.0,86531.0,3832.0,7.378617549642513
62866.269631371826,153880.0,86545.0,3856.0,7.3887114177050535
62866.27972523988,153951.0,86544.0,3868.0,7.398805285760318
62866.28981910794,153927.0,86524.0,3829.0,7.408899153815582
62866.29991297599,153909.0,86532.0,3831.0,7.418993021870847
62866.310006844054,153939.0,86527.0,3843.0,7.429086889933387
62866.32010071211,153964.0,86538.0,3833.0,7.439180757988652
62866.330194580165,153932.0,86535.0,3884.0,7.449274626043916
62866.34028844822,153943.0,86527.0,3838.0,7.459368494099181
62866.35038231628,153955.0,86542.0,3866.0,7.469462362161721
62866.36047618434,153966.0,86561.0,3858.0,7.479556230216986
62866.37057005239,153930.0,86510.0,3849.0,7.48965009827225
62866.38066392045,153952.0,86517.0,3843.0,7.4997439663275145
62866.390757788504,153976.0,86537.0,3845.0,7.509837834382779
62866.40085165657,153953.0,86534.0,3858.0,7.519931702445319
62866.41094552462,153993.0,86547.0,3864.0,7.530025570500584
62866.42103939268,154003.0,86532.0,3896.0,7.540119438555848
62866.43113326073,153992.0,86548.0,3861.0,7.550213306611113
62866.441227128795,154008.0,86543.0,3873.0,7.560307174673653
62866.45132099685,153990.0,86519.0,3880.0,7.570401042728918
62866.461414864905,154013.0,86581.0,3894.0,7.580494910784182
62866.47150873296,154005.0,86549.0,3872.0,7.590588778839447
62866.48160260102,154041.0,86554.0,3864.0,7.600682646901987
62866.49169646908,154009.0,86529.0,3875.0,7.6107765149572515
62866.50179033713,154032.0,86536.0,3864.0,7.620870383012516
62866.51188420519,154022.0,86563.0,3874.0,7.63096425106778
62866.52197807325,154020.0,86551.0,3876.0,7.641058119130321
62866.53207194131,153999.0,86549.0,3848.0,7.651151987185585
62866.54216580936,154032.0,86569.0,3891.0,7.66124585524085
62866.55225967742,153988.0,86553.0,3871.0,7.671339723296114
62866.56235354547,153954.0,86530.0,3865.0,7.681433591351379
62866.572447413535,153934.0,86529.0,3856.0,7.691527459413919
62866.58254128159,153884.0,86522.0,3851.0,7.701621327469184
62866.592635149646,153856.0,86519.0,3852.0,7.711715195524448
62866.6027290177,153817.0,86507.0,3845.0,7.7218090635797125
62866.61282288576,153854.0,86514.0,3854.0,7.731902931642253
62866.62291675382,153781.0,86483.0,3837.0,7.741996799697517
62866.633010621874,153797.0,86519.0,3834.0,7.752090667752782
62866.64310448993,153783.0,86478.0,3829.0,7.762184535808046
62866.65319835799,153799.0,86528.0,3858.0,7.772278403870587
62866.66329222605,153756.0,86516.0,3836.0,7.782372271925851
62866.6733860941,153810.0,86507.0,3827.0,7.792466139981116
62866.68347996216,153816.0,86536.0,3858.0,7.80256000803638
62866.69357383022,153809.0,86498.0,3820.0,7.812653876098921
62866.703667698275,153821.0,86504.0,3862.0,7.822747744154185
62866.71376156633,153799.0,86503.0,3823.0,7.8328416122094495
62866.723855434386,153781.0,86504.0,3843.0,7.842935480264714
62866.73394930244,153788.0,86534.0,3834.0,7.8530293483199785
62866.7440431705,153796.0,86516.0,3811.0,7.863123216382519
62866.75413703856,153805.0,86518.0,3822.0,7.873217084437783
62866.764230906614,153814.0,86506.0,3807.0,7.883310952493048
62866.77432477467,153821.0,86533.0,3850.0,7.893404820548312
62866.78441864273,153820.0,86532.0,3824.0,7.903498688610853
62866.79451251079,153822.0,86517.0,3830.0,7.913592556666117
62866.80460637884,153800.0,86487.0,3827.0,7.923686424721382
62866.8147002469,153798.0,86502.0,3810.0,7.933780292776646
62866.82479411496,153819.0,86515.0,3815.0,7.9438741608391865
62866.834887983016,153816.0,86515.0,3844.0,7.953968028894451
62866.84498185107,153805.0,86511.0,3817.0,7.9640618969497154
62866.855075719126,153792.0,86530.0,3821.0,7.97415576500498
62866.86516958718,153852.0,86546.0,3834.0,7.984249633060244
62866.875263455244,153830.0,86526.0,3826.0,7.994343501122785
62866.8853573233,153812.0,86504.0,3832.0,8.00443736917805
62866.895451191354,153826.0,86519.0,3815.0,8.014531237233314
62866.90554505941,153838.0,86513.0,3842.0,8.024625105288578
62866.91563892747,153848.0,86522.0,3826.0,8.034718973351119
62866.92573279553,153855.0,86515.0,3809.0,8.044812841406383
62866.93582666358,153874.0,86543.0,3825.0,8.054906709461648
62866.94592053164,153861.0,86532.0,3864.0,8.065000577516912
62866.9560143997,153880.0,86541.0,3829.0,8.075094445579452
62866.966108267756,153893.0,86530.0,3866.0,8.085188313634717
62866.97620213581,153885.0,86547.0,3863.0,8.095282181689981
62866.986296003866,153887.0,86508.0,3821.0,8.105376049745246
62866.99638987193,153884.0,86534.0,3831.0,8.115469917807786
62867.006483739984,153866.0,86546.0,3836.0,8.12556378586305
62867.01657760804,153880.0,86530.0,3820.0,8.135657653918315
62867.026671476095,153896.0,86551.0,3848.0,8.14575152197358
62867.03676534415,153892.0,86547.0,3845.0,8.155845390028844
62867.04685921221,153906.0,86513.0,3840.0,8.165939258091385
62867.05695308027,153901.0,86522.0,3841.0,8.176033126146649
62867.06704694832,153941.0,86554.0,3868.0,8.186126994201913
62867.07714081638,153916.0,86532.0,3857.0,8.196220862257178
62867.08723468444,153901.0,86532.0,3846.0,8.206314730319718
62867.097328552496,153933.0,86577.0,3857.0,8.216408598374983
62867.10742242055,153907.0,86524.0,3844.0,8.226502466430247
62867.11751628861,153932.0,86548.0,3850.0,8.236596334485512
62867.12761015667,153906.0,86531.0,3850.0,8.246690202548052
62867.137704024724,153952.0,86584.0,3875.0,8.256784070603317
62867.14779789278,153924.0,86531.0,3846.0,8.266877938658581
62867.157891760835,153947.0,86539.0,3852.0,8.276971806713846
62867.1679856289,153977.0,86562.0,3861.0,8.287065674776386
62867.17807949695,153927.0,86526.0,3876.0,8.29715954283165
62867.18817336501,153976.0,86564.0,3878.0,8.307253410886915
62867.19826723306,153962.0,86559.0,3862.0,8.31734727894218
62867.20836110112,153951.0,86581.0,3872.0,8.327441146997444
62867.21845496918,153943.0,86547.0,3851.0,8.337535015059984
62867.228548837236,153990.0,86578.0,3879.0,8.347628883115249
62867.23864270529,153974.0,86558.0,3854.0,8.357722751170513
62867.24873657335,153956.0,86544.0,3869.0,8.367816619225778
62867.25883044141,153994.0,86547.0,3858.0,8.377910487288318
62867.268924309465,153982.0,86579.0,3878.0,8.388004355343583
62867.27901817752,154015.0,86584.0,3858.0,8.398098223398847
62867.289112045575,153987.0,86579.0,3887.0,8.408192091454112
62867.29920591364,154015.0,86589.0,3877.0,8.418285959516652
62867.30929978169,154007.0,86558.0,3852.0,8.428379827571916
62867.31939364975,154009.0,86578.0,3901.0,8.43847369562718
62867.3294875178,154007.0,86579.0,3867.0,8.448567563682445
62867.339581385866,153968.0,86542.0,3857.0,8.458661431744986
62867.34967525392,153950.0,86560.0,3867.0,8.46875529980025
62867.35976912198,153966.0,86562.0,3871.0,8.478849167855515
62867.36986299003,153910.0,86547.0,3867.0,8.48894303591078
62867.37995685809,153904.0,86544.0,3834.0,8.499036903966044
62867.39005072615,153899.0,86544.0,3851.0,8.509130772028584
62867.400144594205,153819.0,86515.0,3838.0,8.519224640083848
62867.41023846226,153832.0,86542.0,3846.0,8.529318508139113
62867.420332330315,153844.0,86556.0,3861.0,8.539412376194377
62867.43042619838,153804.0,86543.0,3835.0,8.549506244256918
62867.44052006643,153814.0,86528.0,3820.0,8.559600112312182
62867.45061393449,153812.0,86521.0,3835.0,8.569693980367447
62867.460707802544,153819.0,86554.0,3859.0,8.579787848422711
62867.470801670606,153810.0,86516.0,3828.0,8.589881716485252
62867.48089553866,153816.0,86546.0,3869.0,8.599975584540516
62867.49098940672,153839.0,86541.0,3837.0,8.61006945259578
62867.50108327477,153826.0,86541.0,3820.0,8.620163320651045
62867.511177142835,153868.0,86549.0,3823.0,8.630257188713585
62867.52127101089,153861.0,86559.0,3853.0,8.64035105676885
62867.531364878945,153852.0,86547.0,3847.0,8.650444924824114
62867.541458747,153847.0,86552.0,3837.0,8.660538792879379
62867.551552615056,153841.0,86560.0,3849.0,8.670632660934643
62867.56164648312,153801.0,86536.0,3829.0,8.680726528997184
62867.57174035117,153846.0,86547.0,3846.0,8.690820397052448
62867.58183421923,153841.0,86541.0,3811.0,8.700914265107713
62867.591928087284,153876.0,86562.0,3849.0,8.711008133162977
62867.60202195535,153882.0,86550.0,3843.0,8.721102001225518
62867.6121158234,153850.0,86554.0,3841.0,8.731195869280782
62867.62220969146,153885.0,86549.0,3844.0,8.741289737336047
62867.63230355951,153835.0,86538.0,3827.0,8.751383605391311
62867.642397427575,153887.0,86540.0,3840.0,8.761477473453851
62867.65249129563,153864.0,86542.0,3841.0,8.771571341509116
62867.662585163685,153835.0,86549.0,3878.0,8.78166520956438
62867.67267903174,153852.0,86533.0,3842.0,8.791759077619645
62867.682772899796,153868.0,86565.0,3866.0,8.80185294567491
62867.69286676786,153829.0,86528.0,3827.0,8.81194681373745
62867.702960635914,153837.0,86554.0,3845.0,8.822040681792714
62867.71305450397,153839.0,86556.0,3851.0,8.832134549847979
62867.723148372024,153832.0,86545.0,3825.0,8.842228417903243
62867.73324224009,153866.0,86533.0,3844.0,8.852322285965784
62867.74333610814,153867.0,86547.0,3847.0,8.862416154021048
62867.7534299762,153892.0,86556.0,3861.0,8.872510022076312
62867.76352384425,153843.0,86537.0,3834.0,8.882603890131577
62867.773617712315,153875.0,86548.0,3853.0,8.892697758194117
62867.78371158037,153921.0,86570.0,3846.0,8.902791626249382
62867.793805448426,153878.0,86518.0,3844.0,8.912885494304646
62867.80389931648,153917.0,86562.0,3865.0,8.92297936235991
62867.81399318454,153914.0,86553.0,3857.0,8.933073230422451
62867.8240870526,153853.0,86511.0,3823.0,8.943167098477716
62867.834180920654,153899.0,86525.0,3842.0,8.95326096653298
62867.84427478871,153918.0,86595.0,3868.0,8.963354834588245
62867.854368656765,153913.0,86561.0,3822.0,8.973448702643509
62867.86446252483,153903.0,86552.0,3869.0,8.98354257070605
62867.87455639288,153929.0,86580.0,3883.0,8.993636438761314
62867.88465026094,153945.0,86555.0,3873.0,9.003730306816578
62867.89474412899,153942.0,86566.0,3892.0,9.013824174871843
62867.904837997055,153940.0,86563.0,3866.0,9.023918042934383
62867.91493186511,153977.0,86579.0,3878.0,9.034011910989648
62867.925025733166,153926.0,86590.0,3855.0,9.044105779044912
62867.93511960122,153966.0,86566.0,3886.0,9.054199647100177
62867.945213469284,153960.0,86599.0,3860.0,9.064293515162717
62867.95530733734,153915.0,86526.0,3866.0,9.074387383217982
62867.965401205394,153960.0,86548.0,3861.0,9.084481251273246
62867.97549507345,153944.0,86554.0,3876.0,9.09457511932851
62867.98558894151,153962.0,86584.0,3865.0,9.104668987391051
62867.99568280957,153955.0,86577.0,3869.0,9.114762855446315
62868.00577667762,153966.0,86569.0,3863.0,9.12485672350158
62868.01587054568,153976.0,86571.0,3853.0,9.134950591556844
62868.02596441373,153985.0,86586.0,3879.0,9.145044459612109
62868.036058281796,153988.0,86570.0,3878.0,9.15513832767465
62868.04615214985,153991.0,86600.0,3889.0,9.165232195729914
62868.056246017906,153962.0,86590.0,3846.0,9.175326063785178
62868.06633988596,154001.0,86589.0,3880.0,9.185419931840443
62868.076433754024,154036.0,86589.0,3885.0,9.195513799902983
62868.08652762208,153990.0,86559.0,3878.0,9.205607667958247
62868.096621490135,154022.0,86586.0,3872.0,9.215701536013512
62868.10671535819,154011.0,86585.0,3883.0,9.225795404068776
62868.11680922625,153989.0,86578.0,3857.0,9.235889272131317
62868.12690309431,154026.0,86606.0,3916.0,9.245983140186581
62868.13699696236,154049.0,86605.0,3905.0,9.256077008241846
62868.14709083042,154021.0,86582.0,3885.0,9.26617087629711
62868.15718469848,153985.0,86568.0,3870.0,9.27626474435965
62868.167278566536,154004.0,86602.0,3898.0,9.286358612414915
62868.17737243459,153937.0,86553.0,3865.0,9.29645248047018
62868.18746630265,153928.0,86565.0,3869.0,9.306546348525444
62868.1975601707,153881.0,86560.0,3883.0,9.316640216580709
62868.207654038764,153861.0,86541.0,3839.0,9.326734084643249
62868.21774790682,153874.0,86560.0,3855.0,9.336827952698513
62868.227841774875,153880.0,86550.0,3876.0,9.346921820753778
62868.23793564293,153849.0,86533.0,3904.0,9.357015688809042
62868.24802951099,153824.0,86534.0,3848.0,9.367109556871583
62868.25812337905,153852.0,86559.0,3862.0,9.377203424926847
62868.2682172471,153865.0,86558.0,3861.0,9.387297292982112
62868.27831111516,153891.0,86551.0,3876.0,9.397391161037376
62868.28840498322,153860.0,86551.0,3862.0,9.407485029099917
62868.298498851276,153879.0,86553.0,3879.0,9.417578897155181
62868.30859271933,153875.0,86561.0,3858.0,9.427672765210446
62868.31868658739,153879.0,86532.0,3834.0,9.43776663326571
62868.32878045545,153873.0,86553.0,3860.0,9.44786050132825
62868.338874323505,153874.0,86556.0,3850.0,9.457954369383515
62868.34896819156,153886.0,86566.0,3868.0,9.46804823743878
62868.359062059615,153918.0,86552.0,3850.0,9.478142105494044
62868.36915592767,153876.0,86542.0,3870.0,9.488235973549308
62868.37924979573,153883.0,86561.0,3852.0,9.498329841611849
62868.38934366379,153905.0,86565.0,3846.0,9.508423709667113
62868.39943753184,153915.0,86604.0,3858.0,9.518517577722378
62868.4095313999,153889.0,86552.0,3831.0,9.528611445777642
62868.41962526796,153926.0,86583.0,3838.0,9.538705313840182
62868.42971913602,153925.0,86567.0,3852.0,9.548799181895447
62868.43981300407,153906.0,86556.0,3880.0,9.558893049950711
62868.44990687213,153888.0,86560.0,3847.0,9.568986918005976
62868.46000074019,153926.0,86591.0,3887.0,9.579080786068516
62868.470094608245,153891.0,86560.0,3834.0,9.58917465412378
62868.4801884763,153911.0,86571.0,3862.0,9.599268522179045
62868.490282344355,153873.0,86554.0,3871.0,9.60936239023431
62868.50037621241,153878.0,86550.0,3873.0,9.619456258289574
62868.51047008047,153894.0,86563.0,3882.0,9.629550126352115
62868.52056394853,153902.0,86582.0,3858.0,9.639643994407379
62868.530657816584,153906.0,86559.0,3848.0,9.649737862462644
62868.54075168464,153919.0,86545.0,3849.0,9.659831730517908
62868.5508455527,153929.0,86589.0,3846.0,9.669925598580448
62868.56093942076,153911.0,86578.0,3857.0,9.680019466635713
62868.57103328881,153932.0,86545.0,3901.0,9.690113334690977
62868.58112715687,153952.0,86604.0,3875.0,9.700207202746242
62868.59122102493,153973.0,86573.0,3875.0,9.710301070808782
62868.601314892985,153947.0,86582.0,3871.0,9.720394938864047
62868.61140876104,153943.0,86583.0,3845.0,9.730488806919311
62868.621502629096,153975.0,86611.0,3889.0,9.740582674974576
62868.63159649716,153977.0,86566.0,3919.0,9.750676543037116
62868.64169036521,153948.0,86570.0,3869.0,9.76077041109238
62868.65178423327,153963.0,86559.0,3876.0,9.770864279147645
62868.661878101324,154000.0,86591.0,3880.0,9.78095814720291
62868.67197196938,153955.0,86591.0,3869.0,9.791052015258174
62868.68206583744,153984.0,86588.0,3874.0,9.801145883320714
62868.6921597055,153977.0,86604.0,3881.0,9.811239751375979
62868.70225357355,153976.0,86576.0,3847.0,9.821333619431243
62868.71234744161,154007.0,86597.0,3900.0,9.831427487486508
62868.72244130967,153996.0,86600.0,3879.0,9.841521355549048
62868.732535177725,154017.0,86611.0,3877.0,9.851615223604313
62868.74262904578,154033.0,86600.0,3897.0,9.861709091659577
62868.752722913836,154017.0,86601.0,3867.0,9.871802959714842
62868.7628167819,153971.0,86582.0,3875.0,9.881896827777382
62868.772910649954,153982.0,86593.0,3880.0,9.891990695832646
62868.78300451801,154019.0,86575.0,3910.0,9.902084563887911
62868.793098386064,154006.0,86614.0,3888.0,9.912178431943175
62868.80319225413,154033.0,86595.0,3874.0,9.922272300005716
62868.81328612218,153998.0,86573.0,3879.0,9.93236616806098
62868.82337999024,153997.0,86583.0,3868.0,9.942460036116245
62868.83347385829,154050.0,86617.0,3905.0,9.95255390417151
62868.84356772635,154037.0,86590.0,3886.0,9.962647772226774
62868.85366159441,154069.0,86594.0,3906.0,9.972741640289314
62868.863755462466,154068.0,86603.0,3894.0,9.982835508344579
62868.87384933052,154053.0,86613.0,3908.0,9.992929376399843
62868.883943198576,154071.0,86616.0,3892.0,10.003023244455107
62868.89403706664,154056.0,86637.0,3896.0,10.013117112517648
62868.904130934694,154045.0,86580.0,3867.0,10.023210980572912
62868.91422480275,154041.0,86597.0,3877.0,10.033304848628177
62868.924318670804,154069.0,86598.0,3902.0,10.043398716683441
62868.93441253887,154044.0,86588.0,3892.0,10.053492584745982
62868.94450640692,154040.0,86612.0,3904.0,10.063586452801246
62868.95460027498,154025.0,86601.0,3878.0,10.07368032085651
62868.96469414303,153989.0,86584.0,3859.0,10.083774188911775
62868.974788011095,153943.0,86565.0,3903.0,10.093868056974316
62868.98488187915,153904.0,86566.0,3865.0,10.10396192502958
62868.994975747206,153919.0,86551.0,3892.0,10.114055793084844
62869.00506961526,153906.0,86573.0,3870.0,10.124149661140109
62869.01516348332,153883.0,86554.0,3873.0,10.134243529195373
62869.02525735138,153849.0,86566.0,3845.0,10.144337397257914
62869.035351219434,153846.0,86539.0,3873.0,10.154431265313178
62869.04544508749,153890.0,86568.0,3895.0,10.164525133368443
62869.055538955545,153877.0,86568.0,3867.0,10.174619001423707
62869.06563282361,153863.0,86574.0,3859.0,10.184712869486248
62869.07572669166,153874.0,86548.0,3856.0,10.194806737541512
62869.08582055972,153897.0,86544.0,3894.0,10.204900605596777
62869.09591442777,153881.0,86559.0,3861.0,10.214994473652041
62869.106008295836,153870.0,86548.0,3865.0,10.225088341714581
62869.11610216389,153897.0,86582.0,3868.0,10.235182209769846
62869.126196031946,153917.0,86589.0,3849.0,10.24527607782511
62869.1362899,153884.0,86574.0,3866.0,10.255369945880375
62869.146383768064,153855.0,86582.0,3855.0,10.265463813942915
62869.15647763612,153872.0,86555.0,3866.0,10.27555768199818
62869.166571504174,153891.0,86608.0,3871.0,10.285651550053444
62869.17666537223,153883.0,86563.0,3870.0,10.295745418108709
62869.186759240285,153898.0,86577.0,3848.0,10.305839286163973
62869.19685310835,153900.0,86549.0,3866.0,10.315933154226514
62869.2069469764,153901.0,86560.0,3853.0,10.326027022281778
62869.21704084446,153906.0,86573.0,3861.0,10.336120890337043
62869.22713471251,153923.0,86565.0,3893.0,10.346214758392307
62869.237228580576,153891.0,86593.0,3857.0,10.356308626454847
62869.24732244863,153894.0,86610.0,3895.0,10.366402494510112
62869.25741631669,153899.0,86572.0,3865.0,10.376496362565376
62869.26751018474,153886.0,86561.0,3848.0,10.38659023062064
62869.277604052804,153910.0,86556.0,3896.0,10.396684098683181
62869.28769792086,153874.0,86550.0,3851.0,10.406777966738446
62869.297791788915,153880.0,86577.0,3867.0,10.41687183479371
62869.30788565697,153886.0,86589.0,3871.0,10.426965702848975
62869.31797952503,153907.0,86585.0,3849.0,10.437059570911515
62869.32807339309,153936.0,86591.0,3889.0,10.44715343896678
62869.33816726114,153915.0,86583.0,3867.0,10.457247307022044
62869.3482611292,153899.0,86566.0,3852.0,10.467341175077308
62869.35835499725,153897.0,86552.0,3870.0,10.477435043132573
62869.368448865316,153903.0,86605.0,3879.0,10.487528911195113
62869.37854273337,153935.0,86586.0,3873.0,10.497622779250378
62869.38863660143,153963.0,86570.0,3878.0,10.507716647305642
62869.39873046948,153956.0,86596.0,3872.0,10.517810515360907
62869.408824337545,153966.0,86615.0,3889.0,10.527904383423447
62869.4189182056,153949.0,86585.0,3869.0,10.537998251478712
62869.429012073655,153984.0,86621.0,3912.0,10.548092119533976
62869.43910594171,153939.0,86615.0,3873.0,10.55818598758924
62869.44919980977,153978.0,86577.0,3873.0,10.568279855651781
62869.45929367783,153973.0,86602.0,3873.0,10.578373723707045
62869.46938754588,153971.0,86593.0,3859.0,10.58846759176231
62869.47948141394,153997.0,86611.0,3902.0,10.598561459817574
62869.489575281994,153975.0,86597.0,3870.0,10.608655327872839
62869.49966915006,153978.0,86601.0,3885.0,10.61874919593538
62869.50976301811,154025.0,86613.0,3870.0,10.628843063990644
62869.51985688617,153981.0,86602.0,3882.0,10.638936932045908
62869.52995075422,153973.0,86568.0,3873.0,10.649030800101173
62869.540044622285,154009.0,86586.0,3878.0,10.659124668163713
62869.55013849034,153987.0,86616.0,3891.0,10.669218536218978
62869.560232358395,154042.0,86614.0,3884.0,10.679312404274242
62869.57032622645,154022.0,86593.0,3890.0,10.689406272329506
62869.58042009451,153973.0,86606.0,3879.0,10.699500140392047
62869.59051396257,154020.0,86568.0,3888.0,10.709594008447311
62869.60060783062,154004.0,86638.0,3906.0,10.719687876502576
62869.61070169868,154014.0,86588.0,3863.0,10.72978174455784
62869.62079556674,154048.0,86600.0,3896.0,10.73987561262038
62869.6308894348,154042.0,86610.0,3892.0,10.749969480675645
62869.64098330285,154073.0,86586.0,3882.0,10.76006334873091
62869.65107717091,154060.0,86632.0,3914.0,10.770157216786174
62869.66117103896,154081.0,86642.0,3903.0,10.780251084841439
62869.671264907025,154068.0,86614.0,3887.0,10.790344952903979
62869.68135877508,154047.0,86602.0,3890.0,10.800438820959243
62869.691452643136,154085.0,86618.0,3909.0,10.810532689014508
62869.70154651119,154070.0,86564.0,3899.0,10.820626557069772
62869.71164037925,154081.0,86614.0,3905.0,10.830720425132313
62869.72173424731,154077.0,86593.0,3911.0,10.840814293187577
62869.731828115364,154079.0,86603.0,3901.0,10.850908161242842
62869.74192198342,154061.0,86601.0,3890.0,10.861002029298106
62869.75201585148,154095.0,86612.0,3908.0,10.871095897360647
62869.76210971954,154118.0,86633.0,3936.0,10.881189765415911
62869.77220358759,154066.0,86596.0,3896.0,10.891283633471176
62869.78229745565,154078.0,86607.0,3905.0,10.90137750152644
62869.79239132371,154044.0,86619.0,3899.0,10.91147136958898
62869.802485191765,153976.0,86597.0,3898.0,10.921565237644245
62869.81257905982,153975.0,86570.0,3882.0,10.93165910569951
62869.822672927876,153970.0,86604.0,3899.0,10.941752973754774
62869.83276679593,153915.0,86569.0,3856.0,10.951846841810038
62869.84286066399,153876.0,86567.0,3866.0,10.961940709872579
62869.85295453205,153887.0,86580.0,3892.0,10.972034577927843
62869.863048400104,153863.0,86557.0,3884.0,10.982128445983108
62869.87314226816,153881.0,86580.0,3871.0,10.992222314038372
62869.88323613622,153855.0,86578.0,3856.0,11.002316182100913
62869.89333000428,153899.0,86581.0,3883.0,11.012410050156177
62869.90342387233,153853.0,86570.0,3853.0,11.022503918211441
62869.91351774039,153877.0,86570.0,3868.0,11.032597786266706
62869.92361160845,153875.0,86553.0,3884.0,11.042691654329246
62869.933705476506,153858.0,86562.0,3859.0,11.05278552238451
62869.94379934456,153871.0,86597.0,3878.0,11.062879390439775
62869.953893212616,153880.0,86574.0,3864.0,11.07297325849504
62869.96398708068,153882.0,86578.0,3842.0,11.08306712655758
62869.974080948734,153880.0,86580.0,3852.0,11.093160994612845
62869.98417481679,153888.0,86578.0,3876.0,11.10325486266811
62869.994268684844,153878.0,86562.0,3864.0,11.113348730723374
62870.0043625529,153851.0,86570.0,3865.0,11.123442598778638
62870.01445642096,153857.0,86589.0,3868.0,11.133536466841178
62870.02455028902,153865.0,86570.0,3871.0,11.143630334896443
62870.03464415707,153886.0,86595.0,3857.0,11.153724202951707
62870.04473802513,153923.0,86599.0,3842.0,11.163818071006972
62870.05483189319,153891.0,86588.0,3888.0,11.173911939069512
62870.064925761246,153879.0,86558.0,3848.0,11.184005807124777
62870.0750196293,153895.0,86589.0,3870.0,11.194099675180041
62870.085113497356,153911.0,86600.0,3883.0,11.204193543235306
62870.09520736542,153871.0,86567.0,3831.0,11.214287411297846
62870.105301233474,153911.0,86574.0,3857.0,11.22438127935311
62870.11539510153,153884.0,86581.0,3884.0,11.234475147408375
62870.125488969585,153880.0,86576.0,3877.0,11.24456901546364
62870.13558283765,153875.0,86568.0,3856.0,11.25466288352618
62870.1456767057,153905.0,86591.0,3879.0,11.264756751581444
62870.15577057376,153899.0,86588.0,3851.0,11.274850619636709
62870.16586444181,153916.0,86569.0,3860.0,11.284944487691973
62870.17595830987,153928.0,86618.0,3836.0,11.295038355747238
62870.18605217793,153924.0,86596.0,3887.0,11.305132223809778
62870.196146045986,153891.0,86559.0,3851.0,11.315226091865043
62870.20623991404,153915.0,86586.0,3865.0,11.325319959920307
62870.2163337821,153935.0,86606.0,3865.0,11.335413827975572
62870.22642765016,153904.0,86559.0,3856.0,11.345507696038112
62870.236521518214,153907.0,86575.0,3812.0,11.355601564093377
62870.24661538627,153928.0,86595.0,3868.0,11.365695432148641
62870.256709254325,153929.0,86582.0,3909.0,11.375789300203905
62870.26680312239,153949.0,86584.0,3870.0,11.385883168266446
62870.27689699044,153970.0,86575.0,3885.0,11.39597703632171
62870.2869908585,153963.0,86592.0,3873.0,11.406070904376975
62870.29708472655,153937.0,86570.0,3859.0,11.41616477243224
62870.30717859461,153946.0,86567.0,3853.0,11.426258640487504
62870.31727246267,153959.0,86582.0,3857.0,11.436352508550044
62870.32736633073,153970.0,86582.0,3875.0,11.446446376605309
62870.33746019878,153976.0,86601.0,3878.0,11.456540244660573
62870.34755406684,153986.0,86579.0,3869.0,11.466634112715838
62870.3576479349,153982.0,86564.0,3871.0,11.476727980778378
62870.367741802955,153985.0,86593.0,3886.0,11.486821848833642
62870.37783567101,154004.0,86626.0,3895.0,11.496915716888907
62870.387929539065,153959.0,86606.0,3877.0,11.507009584944171
62870.39802340713,154023.0,86634.0,3897.0,11.517103453006712
62870.40811727518,154004.0,86617.0,3880.0,11.527197321061976
62870.41821114324,154000.0,86589.0,3869.0,11.53729118911724
62870.42830501129,154022.0,86595.0,3891.0,11.547385057172505
62870.438398879356,153991.0,86596.0,3894.0,11.557478925235046
62870.44849274741,154016.0,86616.0,3894.0,11.56757279329031
62870.45858661547,154002.0,86611.0,3890.0,11.577666661345575
62870.46868048352,154037.0,86616.0,3923.0,11.587760529400839
62870.47877435158,154007.0,86613.0,3897.0,11.597854397456103
62870.48886821964,154029.0,86609.0,3894.0,11.607948265518644
62870.498962087695,154020.0,86617.0,3887.0,11.618042133573908
62870.50905595575,154006.0,86588.0,3887.0,11.628136001629173
62870.519149823805,154007.0,86608.0,3886.0,11.638229869684437
62870.52924369187,154060.0,86618.0,3889.0,11.648323737746978
62870.53933755992,154078.0,86628.0,3913.0,11.658417605802242
62870.54943142798,154066.0,86614.0,3881.0,11.668511473857507
62870.559525296034,154092.0,86628.0,3898.0,11.678605341912771
62870.5696191641,154066.0,86625.0,3894.0,11.688699209975312
62870.57971303215,154051.0,86629.0,3888.0,11.698793078030576
62870.58980690021,154090.0,86658.0,3929.0,11.70888694608584
62870.59990076826,154079.0,86617.0,3884.0,11.718980814141105
62870.609994636325,154096.0,86635.0,3906.0,11.729074682203645
62870.62008850438,154108.0,86620.0,3883.0,11.73916855025891
62870.630182372435,154097.0,86630.0,3904.0,11.749262418314174
62870.64027624049,154078.0,86607.0,3896.0,11.759356286369439
62870.650370108546,154102.0,86621.0,3905.0,11.769450154424703
62870.66046397661,154091.0,86649.0,3915.0,11.779544022487244
62870.67055784466,154104.0,86630.0,3896.0,11.789637890542508
62870.68065171272,154086.0,86620.0,3892.0,11.799731758597773
62870.690745580774,154044.0,86609.0,3936.0,11.809825626653037
62870.70083944884,154007.0,86615.0,3912.0,11.819919494715577
62870.71093331689,153986.0,86619.0,3895.0,11.830013362770842
62870.72102718495,153973.0,86595.0,3920.0,11.840107230826106
62870.731121053,153946.0,86589.0,3870.0,11.85020109888137
62870.741214921065,153929.0,86603.0,3883.0,11.860294966943911
62870.75130878912,153913.0,86583.0,3858.0,11.870388834999176
62870.761402657175,153926.0,86603.0,3903.0,11.88048270305444
62870.77149652523,153841.0,86539.0,3854.0,11.890576571109705
62870.78159039329,153886.0,86581.0,3878.0,11.900670439172245
62870.79168426135,153908.0,86572.0,3866.0,11.91076430722751
62870.801778129404,153879.0,86584.0,3851.0,11.920858175282774
62870.81187199746,153924.0,86605.0,3861.0,11.930952043338038
62870.821965865514,153904.0,86584.0,3870.0,11.941045911393303
62870.83205973358,153914.0,86575.0,3898.0,11.951139779455843
62870.84215360163,153906.0,86585.0,3862.0,11.961233647511108
62870.85224746969,153937.0,86599.0,3894.0,11.971327515566372
62870.86234133774,153901.0,86590.0,3867.0,11.981421383621637
62870.872435205805,153879.0,86555.0,3847.0,11.991515251684177
62870.88252907386,153934.0,86607.0,3880.0,12.001609119739442
62870.892622941916,153896.0,86562.0,3858.0,12.011702987794706
62870.90271680997,153888.0,86579.0,3867.0,12.02179685584997
62870.91281067803,153927.0,86589.0,3875.0,12.031890723912511
62870.92290454609,153915.0,86598.0,3883.0,12.041984591967775
62870.932998414144,153856.0,86577.0,3857.0,12.05207846002304
62870.9430922822,153911.0,86596.0,3864.0,12.062172328078304
62870.95318615026,153936.0,86612.0,3881.0,12.072266196140845
62870.96328001832,153911.0,86575.0,3853.0,12.08236006419611
62870.97337388637,153930.0,86614.0,3894.0,12.092453932251374
62870.98346775443,153920.0,86593.0,3860.0,12.102547800306638
62870.99356162248,153885.0,86560.0,3872.0,12.112641668361903
62871.003655490545,153886.0,86574.0,3845.0,12.122735536424443
62871.0137493586,153904.0,86573.0,3878.0,12.132829404479708
62871.023843226656,153922.0,86591.0,3873.0,12.142923272534972
62871.03393709471,153887.0,86559.0,3880.0,12.153017140590237
62871.044030962774,153911.0,86606.0,3880.0,12.163111008652777
62871.05412483083,153893.0,86575.0,3889.0,12.173204876708041
62871.064218698884,153915.0,86588.0,3871.0,12.183298744763306
62871.07431256694,153899.0,86581.0,3859.0,12.19339261281857
62871.084406435,153901.0,86588.0,3874.0,12.20348648088111
62871.09450030306,153881.0,86599.0,3865.0,12.213580348936375
62871.10459417111,153933.0,86598.0,3877.0,12.22367421699164
62871.11468803917,153963.0,86605.0,3858.0,12.233768085046904
62871.12478190722,153935.0,86574.0,3882.0,12.243861953102169
62871.134875775286,153939.0,86596.0,3878.0,12.253955821164709
62871.14496964334,153948.0,86595.0,3880.0,12.264049689219974
62871.155063511396,153975.0,86636.0,3898.0,12.274143557275238
62871.16515737945,153943.0,86596.0,3851.0,12.284237425330502
62871.175251247514,153987.0,86623.0,3889.0,12.294331293393043
62871.18534511557,153967.0,86604.0,3867.0,12.304425161448307
62871.195438983625,153962.0,86570.0,3876.0,12.314519029503572
62871.20553285168,154006.0,86628.0,3902.0,12.324612897558836
62871.21562671974,153970.0,86610.0,3856.0,12.334706765621377
62871.2257205878,153992.0,86610.0,3868.0,12.344800633676641
62871.23581445585,153976.0,86594.0,3894.0,12.354894501731906
62871.24590832391,153980.0,86602.0,3865.0,12.36498836978717
62871.25600219197,153993.0,86603.0,3882.0,12.37508223784971
62871.266096060026,154009.0,86610.0,3882.0,12.385176105904975
62871.27618992808,154000.0,86627.0,3883.0,12.39526997396024
62871.28628379614,153979.0,86582.0,3880.0,12.405363842015504
62871.29637766419,154034.0,86640.0,3903.0,12.415457710070768
62871.306471532254,154023.0,86633.0,3898.0,12.425551578133309
62871.31656540031,154021.0,86603.0,3891.0,12.435645446188573
62871.326659268365,154038.0,86631.0,3880.0,12.445739314243838
62871.33675313642,154054.0,86636.0,3883.0,12.455833182299102
62871.34684700448,154013.0,86610.0,3901.0,12.465927050361643
62871.35694087254,154038.0,86631.0,3894.0,12.476020918416907
62871.36703474059,154011.0,86621.0,3894.0,12.486114786472172
62871.37712860865,154072.0,86623.0,3883.0,12.496208654527436
62871.38722247671,154053.0,86626.0,3886.0,12.506302522589976
62871.397316344766,154055.0,86623.0,3904.0,12.516396390645241
62871.40741021282,154065.0,86617.0,3908.0,12.526490258700505
62871.41750408088,154067.0,86635.0,3898.0,12.53658412675577
62871.42759794894,154055.0,86651.0,3908.0,12.54667799481831
62871.437691816995,154105.0,86656.0,3922.0,12.556771862873575
62871.44778568505,154063.0,86617.0,3888.0,12.56686573092884
62871.457879553105,154074.0,86628.0,3878.0,12.576959598984104
62871.46797342116,154077.0,86633.0,3932.0,12.587053467039368
62871.47806728922,154089.0,86632.0,3905.0,12.597147335101909
62871.48816115728,154109.0,86625.0,3901.0,12.607241203157173
62871.49825502533,154106.0,86648.0,3930.0,12.617335071212437
62871.50834889339,154081.0,86618.0,3884.0,12.627428939267702
62871.51844276145,154122.0,86648.0,3907.0,12.637522807330242
62871.52853662951,154130.0,86663.0,3919.0,12.647616675385507
62871.53863049756,154146.0,86653.0,3922.0,12.657710543440771
62871.54872436562,154119.0,86666.0,3907.0,12.667804411496036
62871.55881823368,154129.0,86636.0,3911.0,12.677898279558576
62871.568912101735,154136.0,86669.0,3912.0,12.68799214761384
62871.57900596979,154124.0,86602.0,3913.0,12.698086015669105
62871.589099837845,154163.0,86670.0,3889.0,12.70817988372437
62871.59919370591,154155.0,86642.0,3922.0,12.71827375178691
62871.60928757396,154129.0,86648.0,3906.0,12.728367619842174
62871.61938144202,154142.0,86671.0,3931.0,12.738461487897439
62871.629475310074,154129.0,86649.0,3925.0,12.748555355952703
62871.63956917813,154089.0,86635.0,3906.0,12.758649224007968
62871.64966304619,154040.0,86608.0,3877.0,12.768743092070508
62871.65975691425,154051.0,86627.0,3881.0,12.778836960125773
62871.6698507823,154001.0,86605.0,3892.0,12.788930828181037
62871.67994465036,153980.0,86614.0,3890.0,12.799024696236302
62871.69003851842,153961.0,86575.0,3899.0,12.809118564298842
62871.700132386475,153954.0,86551.0,3881.0,12.819212432354107
62871.71022625453,153918.0,86565.0,3883.0,12.829306300409371
62871.720320122586,153941.0,86595.0,3889.0,12.839400168464635
62871.73041399065,153977.0,86628.0,3904.0,12.849494036527176
62871.7405078587,153934.0,86587.0,3851.0,12.85958790458244
62871.75060172676,153949.0,86608.0,3870.0,12.869681772637705
62871.760695594814,153968.0,86598.0,3882.0,12.87977564069297
62871.77078946288,153973.0,86595.0,3876.0,12.88986950875551
62871.78088333093,153936.0,86591.0,3862.0,12.899963376810774
62871.79097719899,153991.0,86624.0,3885.0,12.910057244866039
62871.80107106704,153962.0,86607.0,3883.0,12.920151112921303
62871.8111649351,153936.0,86633.0,3873.0,12.930244980976568
62871.82125880316,153965.0,86638.0,3880.0,12.940338849039108
62871.831352671215,153959.0,86599.0,3865.0,12.950432717094372
62871.84144653927,153937.0,86581.0,3848.0,12.960526585149637
62871.851540407326,153955.0,86607.0,3876.0,12.970620453204901
62871.86163427539,153978.0,86621.0,3896.0,12.980714321267442
62871.871728143444,153994.0,86622.0,3866.0,12.990808189322706
62871.8818220115,153993.0,86610.0,3897.0,13.00090205737797
62871.891915879554,153975.0,86593.0,3871.0,13.010995925433235
62871.90200974762,153972.0,86603.0,3867.0,13.021089793495776
62871.91210361567,153996.0,86631.0,3892.0,13.03118366155104
62871.92219748373,153951.0,86588.0,3859.0,13.041277529606305
62871.93229135178,153977.0,86606.0,3881.0,13.051371397661569
62871.94238521984,153964.0,86605.0,3878.0,13.061465265716834
62871.9524790879,153992.0,86610.0,3870.0,13.071559133779374
62871.962572955956,153946.0,86587.0,3879.0,13.081653001834638
62871.97266682401,153964.0,86604.0,3873.0,13.091746869889903
62871.982760692066,153962.0,86600.0,3874.0,13.101840737945167
62871.99285456013,153965.0,86622.0,3885.0,13.111934606007708
62872.002948428184,153977.0,86645.0,3883.0,13.122028474062972
62872.01304229624,153984.0,86617.0,3879.0,13.132122342118237
62872.023136164295,154019.0,86617.0,3888.0,13.142216210173501
62872.03323003236,154008.0,86627.0,3913.0,13.152310078236042
62872.04332390041,154020.0,86623.0,3895.0,13.162403946291306
62872.05341776847,154000.0,86620.0,3876.0,13.17249781434657
62872.06351163652,154032.0,86633.0,3870.0,13.182591682401835
62872.073605504585,153994.0,86597.0,3857.0,13.192685550464375
62872.08369937264,154042.0,86651.0,3884.0,13.20277941851964
62872.093793240696,154005.0,86619.0,3893.0,13.212873286574904
62872.10388710875,154012.0,86638.0,3875.0,13.222967154630169
62872.11398097681,154015.0,86610.0,3864.0,13.233061022685433
62872.12407484487,154012.0,86598.0,3872.0,13.243154890747974
62872.134168712924,154053.0,86632.0,3884.0,13.253248758803238
62872.14426258098,154026.0,86653.0,3889.0,13.263342626858503
62872.154356449035,154072.0,86639.0,3907.0,13.273436494913767
62872.1644503171,154068.0,86655.0,3874.0,13.283530362976308
62872.17454418515,154057.0,86633.0,3885.0,13.293624231031572
62872.18463805321,154071.0,86617.0,3888.0,13.303718099086836
62872.19473192126,154053.0,86650.0,3905.0,13.313811967142101
62872.204825789326,154060.0,86632.0,3874.0,13.323905835204641
62872.21491965738,154076.0,86643.0,3902.0,13.333999703259906
62872.225013525436,154058.0,86614.0,3889.0,13.34409357131517
62872.23510739349,154108.0,86655.0,3927.0,13.354187439370435
62872.245201261554,154070.0,86612.0,3932.0,13.364281307432975
62872.25529512961,154100.0,86630.0,3892.0,13.37437517548824
62872.265388997665,154070.0,86647.0,3913.0,13.384469043543504
62872.27548286572,154092.0,86662.0,3916.0,13.394562911598769
62872.285576733775,154090.0,86638.0,3887.0,13.404656779654033
62872.29567060184,154103.0,86654.0,3905.0,13.414750647716573
62872.30576446989,154096.0,86636.0,3909.0,13.424844515771838
62872.31585833795,154100.0,86641.0,3893.0,13.434938383827102
62872.325952206,154098.0,86630.0,3905.0,13.445032251882367
62872.336046074066,154124.0,86656.0,3915.0,13.455126119944907
62872.34613994212,154142.0,86631.0,3897.0,13.465219988000172
62872.35623381018,154114.0,86650.0,3907.0,13.475313856055436
62872.36632767823,154138.0,86659.0,3870.0,13.4854077241107
62872.376421546294,154157.0,86634.0,3940.0,13.495501592173241
62872.38651541435,154138.0,86641.0,3913.0,13.505595460228506
62872.396609282405,154131.0,86625.0,3925.0,13.51568932828377
62872.40670315046,154141.0,86677.0,3910.0,13.525783196339034
62872.41679701852,154152.0,86651.0,3905.0,13.535877064401575
62872.42689088658,154158.0,86634.0,3918.0,13.54597093245684
62872.43698475463,154150.0,86631.0,3903.0,13.556064800512104
62872.44707862269,154156.0,86658.0,3927.0,13.566158668567368
62872.457172490744,154160.0,86645.0,3934.0,13.576252536622633
62872.467266358806,154192.0,86660.0,3914.0,13.586346404685173
62872.47736022686,154183.0,86648.0,3907.0,13.596440272740438
62872.48745409492,154200.0,86663.0,3904.0,13.606534140795702
62872.49754796297,154222.0,86695.0,3903.0,13.616628008850967
62872.507641831035,154195.0,86657.0,3911.0,13.626721876913507
62872.51773569909,154179.0,86660.0,3928.0,13.636815744968771
62872.527829567145,154212.0,86676.0,3930.0,13.646909613024036
62872.5379234352,154204.0,86653.0,3913.0,13.6570034810793
62872.54801730326,154237.0,86676.0,3929.0,13.66709734914184
62872.55811117132,154233.0,86654.0,3931.0,13.677191217197105
62872.56820503937,154244.0,86675.0,3910.0,13.68728508525237
62872.57829890743,154187.0,86674.0,3913.0,13.697378953307634
62872.58839277549,154204.0,86662.0,3928.0,13.707472821370175
62872.59848664355,154190.0,86677.0,3952.0,13.717566689425439
62872.6085805116,154169.0,86670.0,3941.0,13.727660557480704
62872.61867437966,154134.0,86672.0,3944.0,13.737754425535968
62872.62876824771,154081.0,86629.0,3917.0,13.747848293591233
62872.638862115775,154063.0,86649.0,3864.0,13.757942161653773
62872.64895598383,154047.0,86649.0,3922.0,13.768036029709037
62872.659049851885,154028.0,86626.0,3888.0,13.778129897764302
62872.66914371994,154034.0,86628.0,3904.0,13.788223765819566
62872.679237588,154028.0,86633.0,3895.0,13.798317633882107
62872.68933145606,153994.0,86607.0,3869.0,13.808411501937371
62872.699425324114,154040.0,86637.0,3872.0,13.818505369992636
62872.70951919217,154025.0,86625.0,3888.0,13.8285992380479
62872.71961306023,154036.0,86619.0,3892.0,13.83869310611044
62872.72970692829,154023.0,86644.0,3884.0,13.848786974165705
62872.73980079634,154058.0,86650.0,3908.0,13.85888084222097
62872.7498946644,154044.0,86636.0,3896.0,13.868974710276234
62872.75998853245,154037.0,86598.0,3888.0,13.879068578331498
62872.770082400515,154050.0,86650.0,3870.0,13.889162446394039
62872.78017626857,154045.0,86610.0,3877.0,13.899256314449303
62872.790270136626,154043.0,86627.0,3892.0,13.909350182504568
62872.80036400468,154067.0,86638.0,3916.0,13.919444050559832
62872.81045787274,154054.0,86602.0,3892.0,13.929537918622373
62872.8205517408,154051.0,86619.0,3909.0,13.939631786677637
62872.830645608854,154057.0,86631.0,3891.0,13.949725654732902
62872.84073947691,154072.0,86614.0,3899.0,13.959819522788166
62872.85083334497,154076.0,86646.0,3905.0,13.969913390850706
62872.86092721303,154095.0,86655.0,3907.0,13.980007258905971
62872.87102108108,154071.0,86620.0,3890.0,13.990101126961235
62872.88111494914,154041.0,86613.0,3902.0,14.0001949950165
62872.8912088172,154071.0,86636.0,3927.0,14.01028886307904
62872.901302685255,154029.0,86603.0,3900.0,14.020382731134305
62872.91139655331,154064.0,86644.0,3879.0,14.03047659918957
62872.921490421366,154005.0,86615.0,3889.0,14.040570467244834
62872.93158428942,154015.0,86591.0,3878.0,14.050664335300098
62872.941678157484,154071.0,86644.0,3909.0,14.060758203362639
62872.95177202554,154069.0,86627.0,3906.0,14.070852071417903
62872.961865893594,154062.0,86653.0,3894.0,14.080945939473168
62872.97195976165,154038.0,86612.0,3888.0,14.091039807528432
62872.98205362971,154031.0,86642.0,3891.0,14.101133675590972
62872.99214749777,154048.0,86623.0,3916.0,14.111227543646237
62873.00224136582,154068.0,86642.0,3894.0,14.121321411701501
62873.01233523388,154077.0,86632.0,3882.0,14.131415279756766
62873.02242910194,154080.0,86643.0,3915.0,14.141509147819306
62873.032522969996,154059.0,86617.0,3893.0,14.15160301587457
62873.04261683805,154076.0,86621.0,3929.0,14.161696883929835
62873.052710706106,154112.0,86648.0,3904.0,14.1717907519851
62873.06280457417,154073.0,86622.0,3881.0,14.18188462004764
62873.072898442224,154099.0,86648.0,3889.0,14.191978488102905
62873.08299231028,154110.0,86640.0,3892.0,14.202072356158169
62873.093086178334,154107.0,86648.0,3917.0,14.212166224213433
62873.10318004639,154106.0,86642.0,3875.0,14.222260092268698
62873.11327391445,154140.0,86663.0,3922.0,14.232353960331238
62873.12336778251,154126.0,86643.0,3897.0,14.242447828386503
62873.13346165056,154108.0,86621.0,3903.0,14.252541696441767
62873.14355551862,154112.0,86631.0,3908.0,14.262635564497032
62873.15364938668,154128.0,86635.0,3894.0,14.272729432559572
62873.163743254736,154139.0,86648.0,3898.0,14.282823300614837
62873.17383712279,154143.0,86664.0,3926.0,14.292917168670101
62873.18393099085,154153.0,86623.0,3939.0,14.303011036725366
62873.19402485891,154111.0,86637.0,3884.0,14.313104904787906
62873.204118726964,154149.0,86647.0,3910.0,14.32319877284317
62873.21421259502,154163.0,86676.0,3921.0,14.333292640898435
62873.224306463075,154143.0,86667.0,3893.0,14.3433865089537
62873.23440033114,154173.0,86657.0,3907.0,14.35348037701624
62873.24449419919,154168.0,86647.0,3908.0,14.363574245071504
62873.25458806725,154189.0,86689.0,3940.0,14.373668113126769
62873.2646819353,154165.0,86634.0,3905.0,14.383761981182033
62873.27477580336,154188.0,86668.0,3906.0,14.393855849237298
62873.28486967142,154178.0,86647.0,3919.0,14.403949717299838
62873.294963539476,154161.0,86651.0,3909.0,14.414043585355103
62873.30505740753,154193.0,86669.0,3944.0,14.424137453410367
62873.31515127559,154174.0,86609.0,3936.0,14.434231321465631
62873.32524514365,154190.0,86649.0,3921.0,14.444325189528172
62873.335339011704,154185.0,86641.0,3918.0,14.454419057583436
62873.34543287976,154193.0,86657.0,3933.0,14.4645129256387
62873.355526747815,154171.0,86653.0,3911.0,14.474606793693965
62873.36562061588,154206.0,86649.0,3919.0,14.484700661756506
62873.37571448393,154239.0,86641.0,3934.0,14.49479452981177
62873.38580835199,154202.0,86642.0,3942.0,14.504888397867035
62873.39590222004,154232.0,86646.0,3924.0,14.5149822659223
62873.405996088106,154223.0,86651.0,3927.0,14.52507613398484
62873.41608995616,154222.0,86692.0,3939.0,14.535170002040104
62873.42618382422,154201.0,86670.0,3914.0,14.545263870095368
62873.43627769227,154237.0,86678.0,3951.0,14.555357738150633
62873.44637156033,154224.0,86635.0,3923.0,14.565451606205897
62873.45646542839,154269.0,86704.0,3946.0,14.575545474268438
62873.466559296445,154257.0,86683.0,3940.0,14.585639342323702
62873.4766531645,154240.0,86654.0,3934.0,14.595733210378967
62873.486747032555,154252.0,86672.0,3921.0,14.605827078434231
62873.49684090062,154208.0,86684.0,3930.0,14.615920946496772
62873.50693476867,154192.0,86649.0,3919.0,14.626014814552036
62873.51702863673,154186.0,86643.0,3921.0,14.6361086826073
62873.52712250478,154154.0,86646.0,3945.0,14.646202550662565
62873.537216372846,154129.0,86664.0,3925.0,14.656296418725105
62873.5473102409,154086.0,86625.0,3910.0,14.66639028678037
62873.55740410896,154104.0,86611.0,3924.0,14.676484154835634
62873.56749797701,154088.0,86648.0,3902.0,14.686578022890899
62873.57759184507,154057.0,86610.0,3880.0,14.696671890946163
62873.58768571313,154050.0,86621.0,3901.0,14.706765759008704
62873.597779581185,154082.0,86622.0,3921.0,14.716859627063968
62873.60787344924,154061.0,86595.0,3890.0,14.726953495119233
62873.617967317296,154088.0,86646.0,3903.0,14.737047363174497
62873.62806118536,154084.0,86657.0,3903.0,14.747141231237038
62873.63815505341,154080.0,86611.0,3874.0,14.757235099292302
62873.64824892147,154115.0,86645.0,3918.0,14.767328967347567
62873.658342789524,154115.0,86640.0,3898.0,14.777422835402831
62873.66843665759,154103.0,86639.0,3921.0,14.787516703465371
62873.67853052564,154089.0,86597.0,3887.0,14.797610571520636
62873.6886243937,154126.0,86665.0,3920.0,14.8077044395759
62873.69871826175,154122.0,86635.0,3895.0,14.817798307631165
62873.708812129815,154141.0,86658.0,3865.0,14.827892175693705
62873.71890599787,154112.0,86640.0,3919.0,14.83798604374897
62873.728999865925,154118.0,86654.0,3926.0,14.848079911804234
62873.73909373398,154136.0,86644.0,3904.0,14.858173779859499
62873.749187602036,154134.0,86632.0,3894.0,14.868267647914763
62873.7592814701,154155.0,86645.0,3924.0,14.878361515977303
62873.76937533815,154111.0,86622.0,3885.0,14.888455384032568
62873.77946920621,154133.0,86641.0,3904.0,14.898549252087832
62873.789563074264,154145.0,86659.0,3895.0,14.908643120143097
62873.79965694233,154127.0,86627.0,3920.0,14.918736988205637
62873.80975081038,154117.0,86648.0,3899.0,14.928830856260902
62873.81984467844,154128.0,86632.0,3899.0,14.938924724316166
62873.82993854649,154136.0,86665.0,3903.0,14.94901859237143
62873.840032414555,154128.0,86624.0,3891.0,14.959112460433971
62873.85012628261,154160.0,86676.0,3914.0,14.969206328489236
62873.860220150666,154119.0,86634.0,3903.0,14.9793001965445
62873.87031401872,154107.0,86613.0,3917.0,14.989394064599765
62873.88040788678,154124.0,86657.0,3905.0,14.999487932662305
62873.89050175484,154100.0,86630.0,3910.0,15.00958180071757
62873.900595622894,154135.0,86630.0,3898.0,15.019675668772834
62873.91068949095,154107.0,86609.0,3899.0,15.029769536828098
62873.920783359004,154133.0,86637.0,3905.0,15.039863404883363
62873.93087722707,154123.0,86634.0,3883.0,15.049957272945903
62873.94097109512,154150.0,86638.0,3911.0,15.060051141001168
62873.95106496318,154168.0,86650.0,3938.0,15.070145009056432
62873.96115883123,154141.0,86628.0,3902.0,15.080238877111697
62873.971252699295,154173.0,86636.0,3911.0,15.090332745174237
62873.98134656735,154182.0,86657.0,3926.0,15.100426613229502
62873.991440435406,154170.0,86652.0,3921.0,15.110520481284766
62874.00153430346,154140.0,86650.0,3895.0,15.12061434934003
62874.01162817152,154169.0,86671.0,3928.0,15.13070821740257
62874.02172203958,154168.0,86646.0,3911.0,15.140802085457835
62874.031815907634,154173.0,86634.0,3887.0,15.1508959535131
62874.04190977569,154197.0,86649.0,3917.0,15.160989821568364
62874.05200364375,154163.0,86635.0,3920.0,15.171083689630905
62874.06209751181,154208.0,86649.0,3919.0,15.18117755768617
62874.07219137986,154167.0,86661.0,3911.0,15.191271425741434
62874.08228524792,154238.0,86664.0,3928.0,15.201365293796698
62874.09237911597,154172.0,86640.0,3903.0,15.211459161851963
62874.102472984036,154208.0,86647.0,3917.0,15.221553029914503
62874.11256685209,154161.0,86645.0,3906.0,15.231646897969767
62874.122660720146,154183.0,86651.0,3906.0,15.241740766025032
62874.1327545882,154170.0,86654.0,3908.0,15.251834634080296
62874.142848456264,154188.0,86661.0,3904.0,15.261928502142837
62874.15294232432,154221.0,86653.0,3925.0,15.272022370198101
62874.163036192374,154212.0,86660.0,3906.0,15.282116238253366
62874.17313006043,154248.0,86669.0,3945.0,15.29221010630863
62874.18322392849,154214.0,86639.0,3931.0,15.30230397437117
62874.19331779655,154243.0,86655.0,3919.0,15.312397842426435
62874.2034116646,154195.0,86669.0,3915.0,15.3224917104817
62874.21350553266,154268.0,86663.0,3931.0,15.332585578536964
62874.22359940072,154260.0,86682.0,3911.0,15.342679446599504
62874.233693268776,154250.0,86658.0,3922.0,15.352773314654769
62874.24378713683,154211.0,86649.0,3927.0,15.362867182710033
62874.253881004886,154244.0,86646.0,3918.0,15.372961050765298
62874.26397487294,154203.0,86631.0,3915.0,15.383054918820562
62874.274068741004,154264.0,86663.0,3930.0,15.393148786883103
62874.28416260906,154292.0,86655.0,3936.0,15.403242654938367
62874.294256477115,154268.0,86660.0,3900.0,15.413336522993632
62874.30435034517,154284.0,86676.0,3949.0,15.423430391048896
62874.31444421323,154266.0,86652.0,3933.0,15.433524259111437
62874.32453808129,154250.0,86627.0,3929.0,15.443618127166701
62874.33463194934,154262.0,86671.0,3951.0,15.453711995221965
62874.3447258174,154205.0,86651.0,3911.0,15.46380586327723
62874.35481968546,154197.0,86648.0,3920.0,15.47389973133977
62874.364913553516,154189.0,86647.0,3893.0,15.483993599395035
62874.37500742157,154157.0,86613.0,3916.0,15.4940874674503
62874.38510128963,154090.0,86604.0,3880.0,15.504181335505564
62874.39519515768,154127.0,86626.0,3914.0,15.514275203560828
62874.405289025744,154118.0,86646.0,3917.0,15.524369071623369
62874.4153828938,154109.0,86629.0,3886.0,15.534462939678633
62874.425476761855,154129.0,86640.0,3919.0,15.544556807733898
62874.43557062991,154114.0,86618.0,3905.0,15.554650675789162
62874.44566449797,154101.0,86616.0,3929.0,15.564744543851702
62874.45575836603,154140.0,86636.0,3924.0,15.574838411906967
62874.46585223408,154107.0,86606.0,3915.0,15.584932279962231
62874.47594610214,154121.0,86632.0,3901.0,15.595026148017496
62874.4860399702,154099.0,86611.0,3881.0,15.605120016080036
62874.496133838256,154150.0,86659.0,3886.0,15.6152138841353
62874.50622770631,154143.0,86600.0,3887.0,15.625307752190565
62874.51632157437,154118.0,86613.0,3899.0,15.63540162024583
62874.52641544243,154144.0,86649.0,3932.0,15.64549548830837
62874.536509310485,154168.0,86625.0,3919.0,15.655589356363635
62874.54660317854,154114.0,86606.0,3884.0,15.665683224418899
62874.556697046595,154160.0,86644.0,3905.0,15.675777092474164
62874.56679091465,154129.0,86642.0,3916.0,15.685870960529428
62874.57688478271,154176.0,86656.0,3934.0,15.695964828591968
62874.58697865077,154181.0,86669.0,3923.0,15.706058696647233
62874.59707251882,154164.0,86655.0,3918.0,15.716152564702497
62874.60716638688,154165.0,86637.0,3922.0,15.726246432757762
62874.61726025494,154148.0,86607.0,3891.0,15.736340300820302
62874.627354123,154189.0,86655.0,3910.0,15.746434168875567
62874.63744799105,154146.0,86644.0,3901.0,15.756528036930831
62874.64754185911,154135.0,86634.0,3939.0,15.766621904986096
62874.65763572717,154134.0,86632.0,3889.0,15.776715773048636
62874.667729595225,154124.0,86615.0,3901.0,15.7868096411039
62874.67782346328,154151.0,86642.0,3903.0,15.796903509159165
62874.687917331335,154136.0,86632.0,3908.0,15.80699737721443
62874.6980111994,154177.0,86658.0,3917.0,15.81709124527697
62874.70810506745,154122.0,86630.0,3891.0,15.827185113332234
62874.71819893551,154165.0,86634.0,3923.0,15.837278981387499
62874.728292803564,154162.0,86643.0,3909.0,15.847372849442763
62874.73838667162,154178.0,86657.0,3905.0,15.857466717498028
62874.74848053968,154174.0,86615.0,3907.0,15.867560585560568
62874.75857440774,154146.0,86624.0,3889.0,15.877654453615833
62874.76866827579,154160.0,86637.0,3909.0,15.887748321671097
62874.77876214385,154203.0,86685.0,3947.0,15.897842189726362
62874.78885601191,154185.0,86643.0,3934.0,15.907936057788902
62874.798949879965,154138.0,86615.0,3917.0,15.918029925844166
62874.80904374802,154198.0,86647.0,3902.0,15.928123793899431
62874.819137616076,154184.0,86627.0,3924.0,15.938217661954695
62874.82923148414,154164.0,86627.0,3900.0,15.948311530017236
62874.83932535219,154177.0,86645.0,3889.0,15.9584053980725
62874.84941922025,154218.0,86642.0,3920.0,15.968499266127765
62874.859513088304,154230.0,86635.0,3925.0,15.97859313418303
62874.86960695637,154214.0,86632.0,3905.0,15.98868700224557
62874.87970082442,154207.0,86645.0,3937.0,15.998780870300834
62874.88979469248,154221.0,86654.0,3923.0,16.0088747383561
62874.89988856053,154204.0,86610.0,3904.0,16.018968606411363
62874.90998242859,154201.0,86640.0,3912.0,16.029062474466627
62874.92007629665,154225.0,86657.0,3918.0,16.039156342529168
62874.930170164705,154216.0,86635.0,3926.0,16.049250210584432
62874.94026403276,154220.0,86639.0,3917.0,16.059344078639697
62874.950357900816,154254.0,86680.0,3947.0,16.06943794669496
62874.96045176888,154226.0,86649.0,3913.0,16.0795318147575
62874.970545636934,154233.0,86659.0,3922.0,16.089625682812766
62874.98063950499,154214.0,86679.0,3932.0,16.09971955086803
62874.990733373044,154211.0,86642.0,3903.0,16.109813418923295
62875.00082724111,154249.0,86648.0,3924.0,16.119907286985836
62875.01092110916,154246.0,86656.0,3936.0,16.1300011550411
62875.02101497722,154251.0,86670.0,3954.0,16.140095023096364
62875.03110884527,154235.0,86630.0,3909.0,16.15018889115163
62875.041202713335,154268.0,86678.0,3956.0,16.16028275921417
62875.05129658139,154275.0,86663.0,3952.0,16.170376627269434
62875.061390449446,154247.0,86628.0,3914.0,16.1804704953247
62875.0714843175,154249.0,86662.0,3925.0,16.190564363379963
62875.081578185556,154222.0,86644.0,3923.0,16.200658231435227
62875.09167205362,154239.0,86650.0,3927.0,16.210752099497768
62875.101765921674,154212.0,86633.0,3919.0,16.220845967553032
62875.11185978973,154188.0,86650.0,3950.0,16.230939835608297
62875.121953657785,154190.0,86627.0,3915.0,16.24103370366356
62875.13204752585,154144.0,86629.0,3910.0,16.2511275717261
62875.1421413939,154134.0,86631.0,3899.0,16.261221439781366
62875.15223526196,154122.0,86609.0,3955.0,16.27131530783663
62875.16232913001,154108.0,86635.0,3918.0,16.281409175891895
62875.172422998075,154093.0,86620.0,3907.0,16.291503043954435
62875.18251686613,154053.0,86590.0,3881.0,16.3015969120097
62875.192610734186,154086.0,86587.0,3901.0,16.311690780064964
62875.20270460224,154109.0,86614.0,3888.0,16.32178464812023
62875.2127984703,154094.0,86613.0,3911.0,16.331878516175493
62875.22289233836,154119.0,86626.0,3901.0,16.341972384238034
62875.232986206414,154120.0,86630.0,3920.0,16.352066252293298
62875.24308007447,154109.0,86593.0,3907.0,16.362160120348562
62875.253173942525,154082.0,86624.0,3890.0,16.372253988403827
62875.26326781059,154114.0,86634.0,3905.0,16.382347856466367
62875.27336167864,154101.0,86624.0,3892.0,16.392441724521632
62875.2834555467,154095.0,86607.0,3879.0,16.402535592576896
62875.29354941475,154158.0,86621.0,3916.0,16.41262946063216
62875.303643282816,154129.0,86647.0,3897.0,16.4227233286947
62875.31373715087,154118.0,86642.0,3890.0,16.432817196749966
62875.323831018926,154101.0,86643.0,3893.0,16.44291106480523
62875.33392488698,154124.0,86610.0,3892.0,16.453004932860495
62875.344018755044,154127.0,86625.0,3898.0,16.463098800923035
62875.3541126231,154107.0,86633.0,3915.0,16.4731926689783
62875.364206491155,154115.0,86608.0,3893.0,16.483286537033564
62875.37430035921,154102.0,86638.0,3909.0,16.49338040508883
62875.384394227265,154127.0,86615.0,3892.0,16.503474273144093
62875.39448809533,154121.0,86613.0,3879.0,16.513568141206633
62875.40458196338,154093.0,86589.0,3879.0,16.523662009261898
62875.41467583144,154107.0,86616.0,3880.0,16.533755877317162
62875.42476969949,154110.0,86611.0,3892.0,16.543849745372427
62875.434863567556,154124.0,86618.0,3886.0,16.553943613434967
62875.44495743561,154129.0,86605.0,3925.0,16.56403748149023
62875.45505130367,154140.0,86625.0,3898.0,16.574131349545496
62875.46514517172,154117.0,86614.0,3905.0,16.58422521760076
62875.475239039784,154145.0,86618.0,3889.0,16.5943190856633
62875.48533290784,154100.0,86644.0,3891.0,16.604412953718565
62875.495426775895,154166.0,86635.0,3928.0,16.61450682177383
62875.50552064395,154132.0,86628.0,3895.0,16.624600689829094
62875.51561451201,154151.0,86615.0,3869.0,16.634694557891635
62875.52570838007,154127.0,86608.0,3924.0,16.6447884259469
62875.53580224812,154132.0,86620.0,3914.0,16.654882294002164
62875.54589611618,154151.0,86626.0,3897.0,16.664976162057428
62875.555989984234,154134.0,86611.0,3904.0,16.675070030112693
62875.566083852296,154139.0,86634.0,3902.0,16.685163898175233
62875.57617772035,154155.0,86622.0,3897.0,16.695257766230498
62875.58627158841,154181.0,86614.0,3925.0,16.705351634285762
62875.59636545646,154155.0,86616.0,3899.0,16.715445502341026
62875.606459324525,154175.0,86652.0,3908.0,16.725539370403567
62875.61655319258,154144.0,86648.0,3910.0,16.73563323845883
62875.626647060635,154190.0,86631.0,3913.0,16.745727106514096
62875.63674092869,154170.0,86616.0,3891.0,16.75582097456936
62875.64683479675,154194.0,86610.0,3896.0,16.7659148426319
62875.65692866481,154204.0,86611.0,3923.0,16.776008710687165
62875.66702253286,154198.0,86638.0,3902.0,16.78610257874243
62875.67711640092,154170.0,86633.0,3910.0,16.796196446797694
62875.68721026898,154185.0,86622.0,3910.0,16.806290314860235
62875.69730413704,154228.0,86649.0,3942.0,16.8163841829155
62875.70739800509,154202.0,86646.0,3908.0,16.826478050970763
62875.71749187315,154260.0,86652.0,3935.0,16.836571919026028
62875.7275857412,154172.0,86639.0,3903.0,16.846665787081292
62875.737679609265,154237.0,86669.0,3928.0,16.856759655143833
62875.74777347732,154233.0,86654.0,3910.0,16.866853523199097
62875.757867345375,154210.0,86667.0,3910.0,16.87694739125436
62875.76796121343,154241.0,86668.0,3924.0,16.887041259309626
62875.77805508149,154269.0,86671.0,3906.0,16.897135127372167
62875.78814894955,154229.0,86646.0,3939.0,16.90722899542743
62875.798242817604,154244.0,86663.0,3914.0,16.917322863482696
62875.80833668566,154274.0,86638.0,3918.0,16.92741673153796
62875.81843055372,154264.0,86630.0,3927.0,16.9375105996005
62875.82852442178,154237.0,86658.0,3952.0,16.947604467655765
62875.83861828983,154216.0,86664.0,3929.0,16.95769833571103
62875.84871215789,154174.0,86638.0,3897.0,16.967792203766294
62875.85880602595,154129.0,86630.0,3903.0,16.977886071828834
62875.868899894005,154131.0,86606.0,3892.0,16.9879799398841
62875.87899376206,154112.0,86616.0,3905.0,16.998073807939363
62875.889087630116,154108.0,86614.0,3909.0,17.008167675994628
62875.89918149817,154077.0,86579.0,3890.0,17.018261544049892
62875.90927536623,154040.0,86582.0,3884.0,17.028355412112433
62875.91936923429,154049.0,86601.0,3900.0,17.038449280167697
62875.929463102344,154066.0,86577.0,3894.0,17.04854314822296
62875.9395569704,154055.0,86603.0,3880.0,17.058637016278226
62875.94965083846,154057.0,86581.0,3884.0,17.068730884340766
62875.95974470652,154050.0,86611.0,3880.0,17.07882475239603
62875.96983857457,154066.0,86604.0,3872.0,17.088918620451295
62875.97993244263,154086.0,86607.0,3881.0,17.09901248850656
62875.99002631069,153995.0,86599.0,3832.0,17.1091063565691
62876.000120178745,154061.0,86604.0,3881.0,17.119200224624365
62876.0102140468,154069.0,86588.0,3905.0,17.12929409267963
62876.020307914856,154077.0,86602.0,3840.0,17.139387960734894
62876.03040178292,154051.0,86573.0,3861.0,17.149481828797434
62876.040495650974,154053.0,86605.0,3882.0,17.1595756968527
62876.05058951903,154063.0,86630.0,3898.0,17.169669564907963
62876.060683387084,154030.0,86594.0,3860.0,17.179763432963227
62876.07077725514,154066.0,86623.0,3887.0,17.189857301018492
62876.0808711232,154052.0,86590.0,3877.0,17.199951169081032
62876.09096499126,154048.0,86578.0,3876.0,17.210045037136297
62876.10105885931,154056.0,86595.0,3884.0,17.22013890519156
62876.11115272737,154047.0,86610.0,3866.0,17.230232773246826
62876.12124659543,154036.0,86619.0,3878.0,17.240326641309366
62876.131340463486,154014.0,86614.0,3878.0,17.25042050936463
62876.14143433154,154028.0,86574.0,3853.0,17.260514377419895
62876.151528199596,154025.0,86580.0,3877.0,17.27060824547516
62876.16162206766,154043.0,86594.0,3876.0,17.2807021135377
62876.171715935714,154055.0,86600.0,3890.0,17.290795981592964
62876.18180980377,154014.0,86574.0,3864.0,17.30088984964823
62876.191903671825,154017.0,86606.0,3869.0,17.310983717703493
62876.20199753988,154044.0,86601.0,3869.0,17.321077585758758
62876.21209140794,154032.0,86598.0,3869.0,17.331171453821298
62876.222185276,154062.0,86611.0,3888.0,17.341265321876563
62876.23227914405,154063.0,86624.0,3886.0,17.351359189931827
62876.24237301211,154053.0,86609.0,3873.0,17.36145305798709
62876.25246688017,154021.0,86625.0,3885.0,17.371546926049632
62876.262560748226,154071.0,86626.0,3890.0,17.381640794104896
62876.27265461628,154070.0,86607.0,3868.0,17.39173466216016
62876.28274848434,154075.0,86612.0,3867.0,17.401828530215425
62876.2928423524,154099.0,86616.0,3860.0,17.411922398277966
62876.302936220454,154090.0,86615.0,3884.0,17.42201626633323
62876.31303008851,154090.0,86576.0,3858.0,17.432110134388495
62876.323123956565,154099.0,86599.0,3880.0,17.44220400244376
62876.33321782463,154101.0,86601.0,3858.0,17.4522978705063
62876.34331169268,154117.0,86595.0,3888.0,17.462391738561564
62876.35340556074,154129.0,86614.0,3864.0,17.47248560661683
62876.36349942879,154116.0,86607.0,3867.0,17.482579474672093
62876.37359329685,154107.0,86629.0,3886.0,17.492673342727358
62876.38368716491,154115.0,86625.0,3890.0,17.502767210789898
62876.393781032966,154120.0,86615.0,3892.0,17.512861078845162
62876.40387490102,154111.0,86614.0,3904.0,17.522954946900427
62876.41396876908,154134.0,86626.0,3894.0,17.53304881495569
62876.42406263714,154114.0,86604.0,3871.0,17.54314268301823
62876.434156505195,154134.0,86597.0,3870.0,17.553236551073496
62876.44425037325,154137.0,86616.0,3885.0,17.56333041912876
62876.454344241305,154155.0,86632.0,3891.0,17.573424287184025
62876.46443810937,154163.0,86596.0,3887.0,17.583518155246566
62876.47453197742,154143.0,86605.0,3873.0,17.59361202330183
62876.48462584548,154177.0,86636.0,3872.0,17.603705891357095
62876.49471971353,154166.0,86616.0,3885.0,17.61379975941236
62876.504813581596,154147.0,86619.0,3897.0,17.6238936274749
62876.51490744965,154183.0,86644.0,3917.0,17.633987495530164
62876.52500131771,154165.0,86589.0,3890.0,17.64408136358543
62876.53509518576,154163.0,86612.0,3889.0,17.654175231640693
62876.54518905382,154158.0,86588.0,3934.0,17.664269099695957
62876.55528292188,154168.0,86596.0,3904.0,17.674362967758498
62876.565376789935,154162.0,86603.0,3894.0,17.684456835813762
62876.57547065799,154184.0,86627.0,3904.0,17.694550703869027
62876.585564526045,154213.0,86607.0,3923.0,17.70464457192429
62876.59565839411,154180.0,86614.0,3894.0,17.71473843998683
62876.60575226216,154214.0,86632.0,3921.0,17.724832308042096
62876.61584613022,154209.0,86633.0,3893.0,17.73492617609736
62876.625939998274,154181.0,86630.0,3913.0,17.745020044152625
62876.636033866336,154182.0,86627.0,3900.0,17.755113912215165
62876.64612773439,154201.0,86629.0,3911.0,17.76520778027043
62876.65622160245,154225.0,86621.0,3878.0,17.775301648325694
62876.6663154705,154207.0,86619.0,3901.0,17.78539551638096
62876.676409338565,154211.0,86636.0,3910.0,17.7954893844435
62876.68650320662,154169.0,86596.0,3900.0,17.805583252498764
62876.696597074675,154177.0,86624.0,3903.0,17.815677120554028
62876.70669094273,154121.0,86631.0,3903.0,17.825770988609293
62876.716784810786,154104.0,86606.0,3884.0,17.835864856664557
62876.72687867885,154091.0,86620.0,3877.0,17.845958724727097
62876.7369725469,154058.0,86597.0,3889.0,17.856052592782362
62876.74706641496,154029.0,86562.0,3888.0,17.866146460837626
62876.757160283014,154022.0,86573.0,3874.0,17.87624032889289
62876.76725415108,153999.0,86603.0,3875.0,17.88633419695543
62876.77734801913,154001.0,86580.0,3872.0,17.896428065010696
62876.78744188719,154013.0,86575.0,3843.0,17.90652193306596
62876.79753575524,154013.0,86608.0,3858.0,17.916615801121225
62876.807629623305,153986.0,86603.0,3867.0,17.926709669183765
62876.81772349136,153995.0,86572.0,3861.0,17.93680353723903
62876.827817359415,153996.0,86567.0,3853.0,17.946897405294294
62876.83791122747,154030.0,86587.0,3877.0,17.95699127334956
62876.84800509553,153999.0,86532.0,3855.0,17.9670851414121
62876.85809896359,153997.0,86585.0,3861.0,17.977179009467363
62876.868192831644,154024.0,86601.0,3848.0,17.987272877522628
62876.8782866997,153997.0,86573.0,3868.0,17.997366745577892
62876.888380567754,153993.0,86585.0,3861.0,18.007460613633157
62876.89847443582,153997.0,86581.0,3846.0,18.017554481695697
62876.90856830387,153998.0,86568.0,3856.0,18.02764834975096
62876.91866217193,153945.0,86550.0,3841.0,18.037742217806226
62876.92875603998,153992.0,86589.0,3876.0,18.04783608586149
62876.938849908045,153997.0,86577.0,3844.0,18.05792995392403
62876.9489437761,153979.0,86550.0,3876.0,18.068023821979295
62876.959037644156,153981.0,86597.0,3861.0,18.07811769003456
62876.96913151221,153998.0,86565.0,3868.0,18.088211558089824
62876.97922538027,153987.0,86580.0,3837.0,18.098305426152365
62876.98931924833,153986.0,86550.0,3855.0,18.10839929420763
62876.999413116384,154004.0,86598.0,3866.0,18.118493162262894
62877.00950698444,153975.0,86581.0,3835.0,18.128587030318158
62877.019600852494,154027.0,86585.0,3870.0,18.138680898373423
62877.02969472056,154006.0,86591.0,3849.0,18.148774766435963
62877.03978858861,153992.0,86555.0,3860.0,18.158868634491228
62877.04988245667,154012.0,86571.0,3857.0,18.168962502546492
62877.05997632472,153987.0,86588.0,3869.0,18.179056370601756
62877.070070192785,153986.0,86578.0,3848.0,18.189150238664297
62877.08016406084,153963.0,86572.0,3841.0,18.19924410671956
62877.090257928896,154033.0,86616.0,3873.0,18.209337974774826
62877.10035179695,153982.0,86551.0,3850.0,18.21943184283009
62877.110445665014,154008.0,86574.0,3857.0,18.22952571089263
62877.12053953307,154015.0,86567.0,3848.0,18.239619578947895
62877.130633401124,154008.0,86566.0,3859.0,18.24971344700316
62877.14072726918,153968.0,86587.0,3840.0,18.259807315058424
62877.15082113724,154028.0,86574.0,3860.0,18.269901183120965
62877.1609150053,154033.0,86570.0,3847.0,18.27999505117623
62877.17100887335,154029.0,86573.0,3857.0,18.290088919231493
62877.18110274141,154061.0,86598.0,3878.0,18.300182787286758
62877.19119660946,154033.0,86590.0,3878.0,18.310276655342022
62877.201290477526,154019.0,86569.0,3843.0,18.320370523404563
62877.21138434558,154008.0,86572.0,3869.0,18.330464391459827
62877.221478213636,154042.0,86576.0,3849.0,18.340558259515092
62877.23157208169,154070.0,86582.0,3858.0,18.350652127570356
62877.241665949754,154085.0,86610.0,3854.0,18.360745995632897
62877.25175981781,154097.0,86616.0,3877.0,18.37083986368816
62877.261853685864,154060.0,86593.0,3854.0,18.380933731743426
62877.27194755392,154074.0,86594.0,3863.0,18.39102759979869
62877.28204142198,154072.0,86622.0,3873.0,18.40112146786123
62877.29213529004,154084.0,86589.0,3877.0,18.411215335916495
62877.30222915809,154109.0,86623.0,3846.0,18.42130920397176
62877.31232302615,154097.0,86603.0,3878.0,18.431403072027024
62877.32241689421,154062.0,86582.0,3882.0,18.441496940089564
62877.332510762266,154055.0,86570.0,3852.0,18.45159080814483
62877.34260463032,154099.0,86591.0,3877.0,18.461684676200093
62877.35269849838,154104.0,86599.0,3866.0,18.471778544255358
62877.36279236643,154086.0,86571.0,3864.0,18.481872412310622
62877.372886234494,154106.0,86599.0,3842.0,18.491966280373163
62877.38298010255,154099.0,86584.0,3892.0,18.502060148428427
62877.393073970605,154107.0,86603.0,3872.0,18.51215401648369
62877.40316783866,154112.0,86606.0,3873.0,18.522247884538956
62877.41326170672,154111.0,86626.0,3900.0,18.532341752601496
62877.42335557478,154088.0,86582.0,3857.0,18.54243562065676
62877.43344944283,154125.0,86605.0,3881.0,18.552529488712025
62877.44354331089,154158.0,86633.0,3887.0,18.56262335676729
62877.45363717895,154156.0,86573.0,3883.0,18.57271722482983
62877.463731047006,154154.0,86604.0,3879.0,18.582811092885095
62877.47382491506,154151.0,86612.0,3884.0,18.59290496094036
62877.48391878312,154170.0,86597.0,3894.0,18.602998828995624
62877.49401265118,154142.0,86593.0,3870.0,18.613092697058164
62877.504106519234,154164.0,86628.0,3897.0,18.62318656511343
62877.51420038729,154170.0,86612.0,3872.0,18.633280433168693
62877.524294255345,154139.0,86621.0,3910.0,18.643374301223957
62877.5343881234,154176.0,86635.0,3897.0,18.653468169279222
62877.54448199146,154170.0,86595.0,3898.0,18.663562037341762
62877.55457585952,154186.0,86623.0,3897.0,18.673655905397027
62877.56466972757,154168.0,86616.0,3904.0,18.68374977345229
62877.57476359563,154122.0,86584.0,3904.0,18.693843641507556
62877.58485746369,154107.0,86589.0,3886.0,18.703937509570096
62877.59495133175,154107.0,86598.0,3918.0,18.71403137762536
62877.6050451998,154054.0,86587.0,3880.0,18.724125245680625
62877.61513906786,154008.0,86564.0,3889.0,18.73421911373589
62877.62523293592,154025.0,86568.0,3871.0,18.74431298179843
62877.635326803975,153986.0,86587.0,3876.0,18.754406849853694
62877.64542067203,153982.0,86566.0,3867.0,18.76450071790896
62877.655514540085,153949.0,86580.0,3851.0,18.774594585964223
62877.66560840815,153979.0,86568.0,3844.0,18.784688454026764
62877.6757022762,153951.0,86548.0,3850.0,18.79478232208203
62877.68579614426,153976.0,86571.0,3852.0,18.804876190137293
62877.69589001231,153965.0,86545.0,3854.0,18.814970058192557
62877.70598388037,153962.0,86592.0,3865.0,18.82506392624782
62877.71607774843,153974.0,86581.0,3859.0,18.835157794310362
62877.72617161649,153990.0,86587.0,3868.0,18.845251662365627
62877.73626548454,154000.0,86572.0,3869.0,18.85534553042089
62877.7463593526,153956.0,86556.0,3861.0,18.865439398476155
62877.75645322066,153957.0,86581.0,3870.0,18.875533266538696
62877.766547088715,153972.0,86574.0,3849.0,18.88562713459396
62877.77664095677,153975.0,86575.0,3835.0,18.895721002649225
62877.786734824826,153940.0,86580.0,3836.0,18.90581487070449
62877.79682869289,153981.0,86584.0,3843.0,18.91590873876703
62877.80692256094,153970.0,86574.0,3845.0,18.926002606822294
62877.817016429,153965.0,86555.0,3832.0,18.93609647487756
62877.827110297054,153986.0,86589.0,3864.0,18.946190342932823
62877.83720416511,153944.0,86557.0,3845.0,18.956284210988088
62877.84729803317,153976.0,86587.0,3849.0,18.966378079050628
62877.85739190123,154016.0,86595.0,3870.0,18.976471947105892
62877.86748576928,153963.0,86568.0,3840.0,18.986565815161157
62877.87757963734,154007.0,86597.0,3837.0,18.99665968321642
62877.8876735054,153978.0,86569.0,3830.0,19.006753551278962
62877.897767373455,153988.0,86578.0,3875.0,19.016847419334226
62877.90786124151,153970.0,86569.0,3834.0,19.02694128738949
62877.917955109566,153981.0,86584.0,3869.0,19.037035155444755
62877.92804897763,153986.0,86565.0,3851.0,19.047129023507296
62877.93814284568,153986.0,86572.0,3824.0,19.05722289156256
62877.94823671374,153995.0,86567.0,3811.0,19.067316759617825
62877.958330581794,153970.0,86557.0,3823.0,19.07741062767309
62877.96842444986,153998.0,86580.0,3848.0,19.08750449573563
62877.97851831791,154006.0,86590.0,3847.0,19.097598363790894
62877.98861218597,153995.0,86587.0,3872.0,19.10769223184616
62877.99870605402,153955.0,86566.0,3828.0,19.117786099901423
62878.00879992208,153996.0,86577.0,3855.0,19.127879967956687
62878.01889379014,154007.0,86573.0,3822.0,19.137973836019228
62878.028987658196,154025.0,86558.0,3868.0,19.148067704074492
62878.03908152625,154009.0,86570.0,3839.0,19.158161572129757
62878.049175394306,154018.0,86584.0,3854.0,19.16825544018502
62878.05926926237,154056.0,86599.0,3861.0,19.17834930824756
62878.069363130424,154042.0,86572.0,3856.0,19.188443176302826
62878.07945699848,154006.0,86570.0,3872.0,19.19853704435809
62878.089550866534,154045.0,86589.0,3846.0,19.208630912413355
62878.0996447346,154044.0,86582.0,3884.0,19.218724780475895
62878.10973860265,154048.0,86581.0,3864.0,19.22881864853116
62878.11983247071,154046.0,86573.0,3854.0,19.238912516586424
62878.12992633876,154003.0,86561.0,3838.0,19.24900638464169
62878.140020206825,154054.0,86565.0,3865.0,19.25910025270423
62878.15011407488,154082.0,86598.0,3878.0,19.269194120759494
62878.160207942936,154054.0,86611.0,3850.0,19.279287988814758
62878.17030181099,154093.0,86592.0,3886.0,19.289381856870023
62878.180395679046,154077.0,86610.0,3864.0,19.299475724925287
62878.19048954711,154056.0,86573.0,3877.0,19.309569592987827
62878.200583415164,154071.0,86562.0,3863.0,19.319663461043092
62878.21067728322,154108.0,86603.0,3884.0,19.329757329098356
62878.220771151275,154099.0,86608.0,3862.0,19.33985119715362
62878.23086501934,154069.0,86592.0,3870.0,19.34994506521616
62878.24095888739,154129.0,86593.0,3892.0,19.360038933271426
62878.25105275545,154071.0,86583.0,3873.0,19.37013280132669
62878.2611466235,154091.0,86595.0,3873.0,19.380226669381955
62878.271240491566,154096.0,86592.0,3870.0,19.390320537444495
62878.28133435962,154104.0,86599.0,3870.0,19.40041440549976
62878.291428227676,154080.0,86603.0,3860.0,19.410508273555024
62878.30152209573,154125.0,86600.0,3878.0,19.42060214161029
62878.311615963794,154153.0,86604.0,3892.0,19.43069600967283
62878.32170983185,154095.0,86597.0,3888.0,19.440789877728093
62878.331803699904,154131.0,86615.0,3890.0,19.450883745783358
62878.34189756796,154133.0,86600.0,3884.0,19.460977613838622
62878.351991436015,154132.0,86637.0,3909.0,19.471071481893887
62878.36208530408,154150.0,86613.0,3909.0,19.481165349956427
62878.37217917213,154141.0,86592.0,3896.0,19.49125921801169
62878.38227304019,154156.0,86621.0,3885.0,19.501353086066956
62878.39236690824,154148.0,86605.0,3875.0,19.51144695412222
62878.402460776306,154182.0,86619.0,3907.0,19.52154082218476
62878.41255464436,154131.0,86576.0,3882.0,19.531634690240026
62878.422648512416,154170.0,86595.0,3893.0,19.54172855829529
62878.43274238047,154125.0,86618.0,3869.0,19.551822426350554
62878.442836248534,154193.0,86624.0,3918.0,19.561916294413095
62878.45293011659,154166.0,86609.0,3883.0,19.57201016246836
62878.463023984645,154176.0,86609.0,3893.0,19.582104030523624
62878.4731178527,154183.0,86580.0,3902.0,19.59219789857889
62878.48321172076,154176.0,86633.0,3912.0,19.60229176664143
62878.49330558882,154157.0,86623.0,3913.0,19.612385634696693
62878.50339945687,154120.0,86604.0,3894.0,19.622479502751958
62878.51349332493,154135.0,86579.0,3892.0,19.632573370807222
62878.52358719298,154077.0,86582.0,3876.0,19.642667238862487
62878.533681061046,154050.0,86581.0,3907.0,19.652761106925027
62878.5437749291,154023.0,86567.0,3875.0,19.66285497498029
62878.55386879716,153978.0,86561.0,3845.0,19.672948843035556
62878.56396266521,153981.0,86568.0,3865.0,19.68304271109082
62878.574056533274,153989.0,86544.0,3861.0,19.69313657915336
62878.58415040133,153984.0,86575.0,3857.0,19.703230447208625
62878.594244269385,154021.0,86599.0,3896.0,19.71332431526389
62878.60433813744,153945.0,86549.0,3861.0,19.723418183319154
62878.6144320055,153982.0,86553.0,3853.0,19.733512051381695
62878.62452587356,153985.0,86570.0,3855.0,19.74360591943696
62878.63461974161,154012.0,86593.0,3860.0,19.753699787492224
62878.64471360967,153964.0,86577.0,3871.0,19.763793655547488
62878.654807477724,154025.0,86592.0,3842.0,19.773887523602752
62878.664901345786,154022.0,86563.0,3867.0,19.783981391665293
62878.67499521384,153956.0,86575.0,3858.0,19.794075259720557
62878.6850890819,154034.0,86576.0,3865.0,19.804169127775822
62878.69518294995,153975.0,86532.0,3855.0,19.814262995831086
62878.705276818015,153987.0,86586.0,3856.0,19.824356863893627
62878.71537068607,154007.0,86588.0,3864.0,19.83445073194889
62878.725464554125,154009.0,86606.0,3845.0,19.844544600004156
62878.73555842218,154002.0,86563.0,3857.0,19.85463846805942
62878.74565229024,154009.0,86580.0,3880.0,19.86473233612196
62878.7557461583,154014.0,86620.0,3862.0,19.874826204177225
62878.76584002635,153988.0,86560.0,3865.0,19.88492007223249
62878.77593389441,154029.0,86580.0,3866.0,19.895013940287754
62878.78602776247,153961.0,86551.0,3851.0,19.905107808350294
62878.79612163053,153978.0,86575.0,3834.0,19.91520167640556
62878.80621549858,153991.0,86559.0,3857.0,19.925295544460823
62878.81630936664,154002.0,86569.0,3844.0,19.935389412516088
