timestamp,time_from_segment_start_sec,selected_channel_name,backup_channel_name,selected_channel_raw,selected_channel_clipped,selected_channel_detrended,selected_channel_filtered,selected_channel_filtered_z
63856.45548962639,0.0,PPG_1,PPG_2,161630.0,161630.0,-37.815720656421036,-5.620872580053195,-0.03612158756856224
63856.46558942813,0.010099801736942,PPG_1,PPG_2,161616.0,161616.0,-51.6821327045036,-12.117851319322918,-0.07821571307434629
63856.47568922987,0.02019960348116,PPG_1,PPG_2,161595.0,161595.0,-72.54854475255706,-18.236091764449707,-0.11785598149866308
63856.48578903161,0.0302994052253779,PPG_1,PPG_2,161602.0,161602.0,-65.41495680063963,-23.64760857737225,-0.15291736572683842
63856.49588883336,0.0403992069695959,PPG_1,PPG_2,161622.0,161622.0,-45.28136884869309,-28.080126719477764,-0.18163578739146383
63856.505988635094,0.050499008706538,PPG_1,PPG_2,161592.0,161592.0,-75.14778089677566,-31.333685863072585,-0.20271569736610626
63856.51608843684,0.0605988104507559,PPG_1,PPG_2,161602.0,161602.0,-65.01419294482912,-33.29001070106539,-0.2153907862905635
63856.52618823858,0.0706986121949739,PPG_1,PPG_2,161609.0,161609.0,-57.88060499288258,-33.916481791718404,-0.21944971179639905
63856.536288040326,0.0807984139391919,PPG_1,PPG_2,161592.0,161592.0,-74.74701704096515,-33.26537522628587,-0.21523117229013652
63856.54638784207,0.0908982156834099,PPG_1,PPG_2,161583.0,161583.0,-83.61342908901861,-31.468301837119004,-0.2035878784111731
63856.55648764381,0.1009980174203519,PPG_1,PPG_2,161604.0,161604.0,-62.479841137101175,-28.724990889131487,-0.1858138822230683
63856.56658744555,0.1110978191645699,PPG_1,PPG_2,161641.0,161641.0,-25.346253185154637,-25.284952215265026,-0.16352576562400395
63856.576687247296,0.1211976209087879,PPG_1,PPG_2,161618.0,161618.0,-48.2126652332372,-21.422999672992784,-0.13850405606703803
63856.58678704904,0.1312974226530059,PPG_1,PPG_2,161614.0,161614.0,-52.079077281290665,-17.413585309903706,-0.11252693682783681
63856.596886850784,0.1413972243972239,PPG_1,PPG_2,161650.0,161650.0,-15.945489329373231,-13.50898048613916,-0.08722888182442623
63856.60698665252,0.1514970261341659,PPG_1,PPG_2,161633.0,161633.0,-32.81190137742669,-9.923228234424363,-0.06399668246320493
63856.617086454266,0.1615968278783839,PPG_1,PPG_2,161615.0,161615.0,-50.678313425480155,-6.822387511774582,-0.043906239845050765
63856.62718625601,0.1716966296226019,PPG_1,PPG_2,161609.0,161609.0,-56.54472547356272,-4.320884382842814,-0.02769892396976422
63856.637286057754,0.1817964313668199,PPG_1,PPG_2,161664.0,161664.0,-1.4111375216161832,-2.4811000810080177,-0.01577890477116206
63856.6473858595,0.1918962331110378,PPG_1,PPG_2,161640.0,161640.0,-25.27754956969875,-1.3126665858966537,-0.00820858814212718
63856.657485661235,0.2019960348479799,PPG_1,PPG_2,161654.0,161654.0,-11.143961617752211,-0.7721045935517855,-0.004706270332175531
63856.66758546298,0.2120958365921978,PPG_1,PPG_2,161639.0,161639.0,-26.010373665834777,-0.7669727912492723,-0.004673021226881838
63856.67768526472,0.2221956383364158,PPG_1,PPG_2,161609.0,161609.0,-55.87678571388824,-1.16697023207016,-0.0072646169749386435
63856.68778506647,0.2322954400806338,PPG_1,PPG_2,161639.0,161639.0,-25.7431977619417,-1.8198907163048812,-0.01149490891703032
63856.697884868205,0.2423952418175758,PPG_1,PPG_2,161619.0,161619.0,-45.60960981002427,-2.5673860164495785,-0.016337954006448507
63856.70798466995,0.2524950435617938,PPG_1,PPG_2,161651.0,161651.0,-13.47602185807773,-3.2563362754068605,-0.020801683969500533
63856.71808447169,0.2625948453060118,PPG_1,PPG_2,161648.0,161648.0,-16.342433906160295,-3.7452700590720718,-0.023969501024098845
63856.72818427344,0.2726946470502298,PPG_1,PPG_2,161631.0,161631.0,-33.20884595421376,-3.9085994856656434,-0.025027717413243184
63856.73828407518,0.2827944487944478,PPG_1,PPG_2,161621.0,161621.0,-43.07525800229632,-3.641816730933415,-0.0232992237223835
63856.74838387692,0.2928942505313898,PPG_1,PPG_2,161661.0,161661.0,-2.941670050349785,-2.868160899360889,-0.01828668374350769
63856.75848367866,0.3029940522756078,PPG_1,PPG_2,161618.0,161618.0,-45.80808209843235,-1.5450249348334826,-0.009714045046787304
63856.76858348041,0.3130938540198258,PPG_1,PPG_2,161610.0,161610.0,-53.67449414648581,0.331354783248918,0.002443076981650535
63856.77868328215,0.3231936557640438,PPG_1,PPG_2,161667.0,161667.0,3.459093805460725,2.72445070954354,0.017948019249654515
63856.78878308389,0.3332934575009858,PPG_1,PPG_2,161643.0,161643.0,-20.40731824262184,5.561330919341594,0.036328253569081724
63856.79888288563,0.3433932592452038,PPG_1,PPG_2,161650.0,161650.0,-13.273730290675303,8.74150465784719,0.05693269724221893
63856.80898268738,0.3534930609894218,PPG_1,PPG_2,161659.0,161659.0,-4.140142338757869,12.147280632831647,0.07899882475915984
63856.81908248912,0.3635928627336398,PPG_1,PPG_2,161654.0,161654.0,-9.006554386811331,15.652856248558617,0.1017115572245602
63856.829182290865,0.3736926644778577,PPG_1,PPG_2,161627.0,161627.0,-35.8729664348939,19.131808508811876,0.12425179614924418
63856.8392820926,0.3837924662147998,PPG_1,PPG_2,161691.0,161691.0,28.26062151705264,22.46435790721817,0.14584348641949857
63856.849381894346,0.3938922679590177,PPG_1,PPG_2,161673.0,161673.0,10.394209468999179,25.54593971371168,0.16580914992626555
63856.85948169609,0.4039920697032357,PPG_1,PPG_2,161650.0,161650.0,-12.472202579083387,28.296208651216403,0.18362822714291596
63856.869581497835,0.4140918714474537,PPG_1,PPG_2,161670.0,161670.0,7.661385372863151,30.665790374573657,0.19898082016531884
63856.87968129958,0.4241916731916717,PPG_1,PPG_2,161704.0,161704.0,41.794973324780585,32.64003974669277,0.21177204269886196
63856.88978110131,0.4342914749286137,PPG_1,PPG_2,161667.0,161667.0,4.928561276727123,34.24033489489284,0.22214040428937606
63856.89988090306,0.4443912766728317,PPG_1,PPG_2,161644.0,161644.0,-17.937850771355443,35.52172844448945,0.23044259259314825
63856.9099807048,0.4544910784170497,PPG_1,PPG_2,161691.0,161691.0,29.195737180591095,36.56660335382582,0.2372123693365448
63856.92008050655,0.4645908801612677,PPG_1,PPG_2,161686.0,161686.0,24.329325132537633,37.477322853238256,0.24311294904401987
63856.93018030829,0.4746906819054857,PPG_1,PPG_2,161693.0,161693.0,31.462913084455067,38.36990377619327,0.24889600835554843
63856.94028011003,0.4847904836424277,PPG_1,PPG_2,161647.0,161647.0,-14.403498963598395,39.366666639197575,0.2553540656678191
63856.950379911774,0.4948902853866457,PPG_1,PPG_2,161700.0,161700.0,38.73008898831904,40.58592570291882,0.26325368272245575
63856.96047971352,0.5049900871308637,PPG_1,PPG_2,161680.0,161680.0,18.863676940265577,42.13029418042202,0.27325969368971703
63856.97057951526,0.5150898888750817,PPG_1,PPG_2,161689.0,161689.0,27.99726489218301,44.075725689851424,0.2858642044026508
63856.980679317,0.5251896906120237,PPG_1,PPG_2,161679.0,161679.0,18.13085284412955,46.461162233029036,0.30131952129135725
63856.99077911874,0.5352894923562417,PPG_1,PPG_2,161694.0,161694.0,33.26444079604698,49.27824950312919,0.31957151654441107
63857.00087892049,0.5453892941004597,PPG_1,PPG_2,161674.0,161674.0,13.398028747993521,52.46210122425539,0.3401997899803123
63857.01097872223,0.5554890958446776,PPG_1,PPG_2,161687.0,161687.0,26.53161669994006,55.88507594969258,0.3623773487315474
63857.021078523976,0.5655888975888956,PPG_1,PPG_2,161706.0,161706.0,45.66520465185749,59.35568270900847,0.3848635168984278
63857.03117832571,0.5756886993258377,PPG_1,PPG_2,161701.0,161701.0,40.79879260380403,62.62382722716346,0.40603792596440536
63857.04127812746,0.5857885010700556,PPG_1,PPG_2,161675.0,161675.0,14.932380555721465,65.39173369579234,0.42397127728884454
63857.0513779292,0.5958883028142736,PPG_1,PPG_2,161697.0,161697.0,37.065968507668,67.32968674823955,0.4365273348484849
63857.061477730946,0.6059881045584916,PPG_1,PPG_2,161714.0,161714.0,54.19955645958544,68.09766671074385,0.4415031006967224
63857.07157753268,0.6160879062954336,PPG_1,PPG_2,161712.0,161712.0,52.333144411531975,67.37370105032473,0.43681250486833184
63857.08167733443,0.6261877080396516,PPG_1,PPG_2,161695.0,161695.0,35.46673236347851,64.88622285235145,0.4206960569530108
63857.09177713617,0.6362875097838696,PPG_1,PPG_2,161717.0,161717.0,57.60032031539595,60.445634192130484,0.3919253461527607
63857.101876937915,0.6463873115280876,PPG_1,PPG_2,161704.0,161704.0,44.733908267342485,53.97133104423248,0.3499781365023956
63857.11197673966,0.6564871132723056,PPG_1,PPG_2,161700.0,161700.0,40.86749621925992,45.51127548968938,0.29516517580323975
63857.1220765414,0.6665869150092476,PPG_1,PPG_2,161695.0,161695.0,36.00108417120646,35.25077603470066,0.2286870835786573
63857.13217634314,0.6766867167534656,PPG_1,PPG_2,161681.0,161681.0,22.13467212312389,23.507449477123487,0.15260170885175406
63857.142276144885,0.6867865184976836,PPG_1,PPG_2,161639.0,161639.0,-19.73173992492957,10.710901483004367,0.06969247997442732
63857.15237594663,0.6968863202419016,PPG_1,PPG_2,161606.0,161606.0,-52.59815197298303,-2.6314559396303685,-0.016753065013541207
63857.16247574837,0.7069861219861195,PPG_1,PPG_2,161622.0,161622.0,-36.4645640210656,-15.976777788097058,-0.1032178166078464
63857.17257555011,0.7170859237230616,PPG_1,PPG_2,161598.0,161598.0,-60.33097606911906,-28.789171864256772,-0.1862297127391323
63857.182675351854,0.7271857254672796,PPG_1,PPG_2,161606.0,161606.0,-52.197388117201626,-40.576306532689536,-0.2625989215665507
63857.1927751536,0.7372855272114975,PPG_1,PPG_2,161564.0,161564.0,-94.06380016525509,-50.91903400190119,-0.32960977162976823
63857.20287495534,0.7473853289557155,PPG_1,PPG_2,161581.0,161581.0,-76.93021221333765,-59.49467404397639,-0.38517160778626397
63857.21297475708,0.7574851306926575,PPG_1,PPG_2,161563.0,161563.0,-94.79662426139112,-66.09357035171226,-0.427926060359509
63857.223074558824,0.7675849324368755,PPG_1,PPG_2,161550.0,161550.0,-107.66303630947368,-70.62777019401788,-0.4573032808938296
63857.23317436057,0.7776847341810935,PPG_1,PPG_2,161547.0,161547.0,-110.52944835752714,-73.13092083764444,-0.47352127106760444
63857.24327416231,0.7877845359253115,PPG_1,PPG_2,161575.0,161575.0,-82.3958604055806,-73.74852563266599,-0.4775227515707611
63857.25337396406,0.7978843376695295,PPG_1,PPG_2,161568.0,161568.0,-89.26227245366317,-72.71861188988979,-0.47084990868665055
63857.26347376579,0.8079841394064715,PPG_1,PPG_2,161553.0,161553.0,-104.12868450171663,-70.34548357065914,-0.4554743371602685
63857.27357356754,0.8180839411506895,PPG_1,PPG_2,161591.0,161591.0,-65.9950965497992,-66.97067883454524,-0.43360887325458536
63857.28367336928,0.8281837428949075,PPG_1,PPG_2,161596.0,161596.0,-60.86150859785266,-62.944401552054565,-0.4075224986408215
63857.293773171026,0.8382835446391255,PPG_1,PPG_2,161549.0,161549.0,-107.72792064593523,-58.60038342951774,-0.37937747133078614
63857.30387297277,0.8483833463833435,PPG_1,PPG_2,161580.0,161580.0,-76.59433269398869,-54.23664792065482,-0.35110469446700204
63857.31397277451,0.8584831481202855,PPG_1,PPG_2,161606.0,161606.0,-50.46074474204215,-50.10160911469722,-0.3243136505903783
63857.32407257625,0.8685829498645035,PPG_1,PPG_2,161611.0,161611.0,-45.32715679012472,-46.38354254658209,-0.30022418269492235
63857.334172378,0.8786827516087214,PPG_1,PPG_2,161563.0,161563.0,-93.19356883817818,-43.20466519797844,-0.279628138371918
63857.34427217974,0.8887825533529394,PPG_1,PPG_2,161594.0,161594.0,-62.059980886260746,-40.622481017902565,-0.2628980874794656
63857.35437198148,0.8988823550898815,PPG_1,PPG_2,161595.0,161595.0,-60.92639293431421,-38.63711044612381,-0.2500348103505429
63857.36447178322,0.9089821568340994,PPG_1,PPG_2,161609.0,161609.0,-46.792804982396774,-37.20059601931448,-0.2407275891020741
63857.374571584965,0.9190819585783174,PPG_1,PPG_2,161586.0,161586.0,-69.65921703045024,-36.22660697494597,-0.23441708406269401
63857.38467138671,0.9291817603225354,PPG_1,PPG_2,161614.0,161614.0,-41.5256290785328,-35.60170298299756,-0.23036831183766765
63857.394771188454,0.9392815620667534,PPG_1,PPG_2,161584.0,161584.0,-71.39204112658626,-35.1988928878029,-0.22775849281522975
63857.40487099019,0.9493813638036954,PPG_1,PPG_2,161597.0,161597.0,-58.258453174639726,-34.89272498557817,-0.22577482153981182
63857.414970791935,0.9594811655479134,PPG_1,PPG_2,161551.0,161551.0,-104.12486522272229,-34.57386267905845,-0.22370890282769154
63857.42507059368,0.9695809672921314,PPG_1,PPG_2,161603.0,161603.0,-51.991277270775754,-34.159351647154075,-0.22102327307565758
63857.43517039542,0.9796807690363494,PPG_1,PPG_2,161617.0,161617.0,-37.85768931885832,-33.594409560610245,-0.21736299588393193
63857.44527019717,0.9897805707805674,PPG_1,PPG_2,161597.0,161597.0,-57.72410136691178,-32.84536623780715,-0.21250992110799583
63857.455369998905,0.9998803725175094,PPG_1,PPG_2,161630.0,161630.0,-24.590513414994348,-31.888725648058074,-0.20631181724082032
63857.46546980065,1.0099801742617274,PPG_1,PPG_2,161604.0,161604.0,-50.45692546304781,-30.70275700230181,-0.19862788983027743
63857.47556960239,1.0200799760059454,PPG_1,PPG_2,161593.0,161593.0,-61.32333751110127,-29.265417252722354,-0.18931532129014234
63857.48566940414,1.0301797777501631,PPG_1,PPG_2,161579.0,161579.0,-75.18974955918384,-27.558570721542964,-0.17825661000510998
63857.495769205874,1.0402795794871054,PPG_1,PPG_2,161612.0,161612.0,-42.0561616072373,-25.574671626705044,-0.16540286662064177
63857.50586900762,1.0503793812313234,PPG_1,PPG_2,161606.0,161606.0,-47.922573655319866,-23.3208746606419,-0.15080044660953965
63857.51596880936,1.0604791829755411,PPG_1,PPG_2,161600.0,161600.0,-53.78898570337333,-20.8184928043229,-0.13458743743242654
63857.52606861111,1.070578984719759,PPG_1,PPG_2,161623.0,161623.0,-30.655397751455894,-18.099102120544806,-0.11696842137342035
63857.53616841285,1.0806787864639773,PPG_1,PPG_2,161633.0,161633.0,-20.521809799509356,-15.199365994337825,-0.09818094163419425
63857.54626821459,1.090778588200919,PPG_1,PPG_2,161643.0,161643.0,-10.388221847562818,-12.157031840424022,-0.07846956487820755
63857.55636801633,1.100878389945137,PPG_1,PPG_2,161576.0,161576.0,-77.25463389564538,-9.011426062645654,-0.058089088088097963
63857.56646781808,1.1109781916893553,PPG_1,PPG_2,161603.0,161603.0,-50.121045943698846,-5.80935245356046,-0.03734275447846364
63857.57656761982,1.1210779934335733,PPG_1,PPG_2,161638.0,161638.0,-14.987457991781412,-2.6115599755481904,-0.016624158449006582
63857.586667421565,1.1311777951777913,PPG_1,PPG_2,161623.0,161623.0,-29.853870039834874,0.5067509949823173,0.0035794744436460275
63857.5967672233,1.1412775969147333,PPG_1,PPG_2,161625.0,161625.0,-27.72028208791744,3.4627528620962633,0.0227315016524672
63857.606867025046,1.1513773986589513,PPG_1,PPG_2,161658.0,161658.0,5.413305864029098,6.176748583417802,0.04031556358343036
63857.61696682679,1.1614772004031693,PPG_1,PPG_2,161629.0,161629.0,-23.453106184053468,8.583315706741091,0.05590778615220096
63857.627066628535,1.1715770021473872,PPG_1,PPG_2,161637.0,161637.0,-15.31951823210693,10.640391453919149,0.06923564332267874
63857.63716643027,1.1816768038843293,PPG_1,PPG_2,161648.0,161648.0,-4.185930280160392,12.33490684931203,0.08021446079887211
63857.647266232016,1.1917766056285473,PPG_1,PPG_2,161637.0,161637.0,-15.052342328242958,13.685111054060757,0.08896247545830113
63857.65736603376,1.2018764073727652,PPG_1,PPG_2,161655.0,161655.0,3.0812456237035803,14.740101275606266,0.09579778962128134
63857.667465835504,1.2119762091169832,PPG_1,PPG_2,161645.0,161645.0,-6.7851664243789855,15.57621506998831,0.10121499666631949
63857.67756563725,1.2220760108612012,PPG_1,PPG_2,161641.0,161641.0,-10.651578472432448,16.28957361514659,0.10583686866799567
63857.687665438985,1.2321758125981432,PPG_1,PPG_2,161645.0,161645.0,-6.5179905205150135,16.9847324574407,0.11034082423385196
63857.69776524073,1.2422756143423612,PPG_1,PPG_2,161611.0,161611.0,-40.384402568568476,17.76084943739983,0.11536931006898367
63857.707865042474,1.2523754160865792,PPG_1,PPG_2,161649.0,161649.0,-2.2508146166219376,18.69847709387708,0.12144422855546219
63857.71796484422,1.2624752178307972,PPG_1,PPG_2,161638.0,161638.0,-13.117226664704503,19.85071499457789,0.12890961342912005
63857.72806464596,1.2725750195750152,PPG_1,PPG_2,161624.0,161624.0,-26.983638712757966,21.240923905414256,0.1379168198123417
63857.7381644477,1.2826748213119572,PPG_1,PPG_2,161644.0,161644.0,-6.850050760840531,22.867113707209704,0.1484529536616419
63857.74826424944,1.2927746230561752,PPG_1,PPG_2,161661.0,161661.0,10.283537191106007,24.712543571508366,0.1604095506334586
63857.75836405119,1.3028744248003932,PPG_1,PPG_2,161677.0,161677.0,26.41712514302344,26.761058658102222,0.17368194302014917
63857.76846385293,1.3129742265446112,PPG_1,PPG_2,161658.0,161658.0,7.550713094969979,29.0126577859008,0.18827012316939198
63857.77856365467,1.3230740282815532,PPG_1,PPG_2,161673.0,161673.0,22.684301046887413,31.493195505978665,0.20434160351450478
63857.78866345641,1.3331738300257712,PPG_1,PPG_2,161672.0,161672.0,21.81788899883395,34.254343853355394,0.22223116876304808
63857.79876325816,1.3432736317699892,PPG_1,PPG_2,161671.0,161671.0,20.95147695078049,37.363126517410784,0.2423730674643608
63857.8088630599,1.3533734335142071,PPG_1,PPG_2,161622.0,161622.0,-27.914935097302077,40.88231888861832,0.26517402330822415
63857.818962861646,1.3634732352584251,PPG_1,PPG_2,161676.0,161676.0,26.21865285464446,44.84551421892645,0.2908516880094449
63857.82906266338,1.3735730369953671,PPG_1,PPG_2,161642.0,161642.0,-7.647759193438105,49.233475938507695,0.3192814272391888
63857.83916246513,1.3836728387395851,PPG_1,PPG_2,161683.0,161683.0,33.48582875850843,53.95795401776472,0.3498914663355957
63857.84926226687,1.3937726404838031,PPG_1,PPG_2,161674.0,161674.0,24.619416710425867,58.85542209467836,0.38162231295882876
63857.859362068615,1.403872442228021,PPG_1,PPG_2,161672.0,161672.0,22.753004662372405,63.68999101253823,0.4129456339918341
63857.86946187036,1.413972243972239,PPG_1,PPG_2,161664.0,161664.0,14.886592614318943,68.16414335315179,0.44193380491186923
63857.879561672096,1.4240720457091811,PPG_1,PPG_2,161699.0,161699.0,50.02018056623638,71.93728919106492,0.4663801330940351
63857.88966147384,1.434171847453399,PPG_1,PPG_2,161722.0,161722.0,73.15376851818291,74.65251038048514,0.48397213487058177
63857.899761275585,1.444271649197617,PPG_1,PPG_2,161675.0,161675.0,26.28735647010035,75.96888829790585,0.49250098797179703
63857.90986107733,1.454371450941835,PPG_1,PPG_2,161707.0,161707.0,58.42094442204689,75.59397391373606,0.4900719061209088
63857.919960879066,1.464471252678777,PPG_1,PPG_2,161701.0,161701.0,52.55453237396432,73.3124506244074,0.47528984640677086
63857.93006068081,1.474571054422995,PPG_1,PPG_2,161721.0,161721.0,72.68812032591086,69.00949373205547,0.447410856072719
63857.940160482554,1.484670856167213,PPG_1,PPG_2,161676.0,161676.0,27.821708277857397,62.68644344961224,0.4064436183996485
63857.9502602843,1.494770657911431,PPG_1,PPG_2,161650.0,161650.0,1.9552962297748309,54.465610802524466,0.3531805902913779
63857.96036008604,1.504870459655649,PPG_1,PPG_2,161677.0,161677.0,29.08888418172137,44.58446512394756,0.2891603428768536
63857.97045988778,1.514970261392591,PPG_1,PPG_2,161669.0,161669.0,21.222472133638803,33.38318849200101,0.21658692632552243
63857.98055968952,1.525070063136809,PPG_1,PPG_2,161663.0,161663.0,15.35606008558534,21.287845635887354,0.13822082715032863
63857.99065949127,1.535169864881027,PPG_1,PPG_2,161614.0,161614.0,-33.510351962497225,8.786907955844722,0.05722686660939457
63858.00075929301,1.545269666625245,PPG_1,PPG_2,161609.0,161609.0,-38.37676401055069,-3.601192431441759,-0.023036017633828787
63858.01085909476,1.555369468369463,PPG_1,PPG_2,161579.0,161579.0,-68.24317605863325,-15.366927601204258,-0.09926657844977343
63858.02095889649,1.565469270106405,PPG_1,PPG_2,161607.0,161607.0,-40.109588106686715,-26.04857454304756,-0.1684732982225653
63858.03105869824,1.575569071850623,PPG_1,PPG_2,161558.0,161558.0,-88.97600015474018,-35.26564884240208,-0.22819100670267278
63858.04115849998,1.585668873594841,PPG_1,PPG_2,161566.0,161566.0,-80.84241220282274,-42.74456441138488,-0.2766471311940561
63858.051258301726,1.595768675339059,PPG_1,PPG_2,161548.0,161548.0,-98.7088242508762,-48.33547506916277,-0.31287081367244163
63858.06135810346,1.605868477076001,PPG_1,PPG_2,161539.0,161539.0,-107.57523629895877,-52.018268370361696,-0.3367317449843322
63858.07145790521,1.615968278820219,PPG_1,PPG_2,161580.0,161580.0,-66.44164834701223,-53.89544556920606,-0.3488940339152073
63858.08155770695,1.626068080564437,PPG_1,PPG_2,161563.0,161563.0,-83.3080603950948,-54.17195825122157,-0.3506855681048374
63858.091657508696,1.636167882308655,PPG_1,PPG_2,161585.0,161585.0,-61.17447244314826,-53.12606059576282,-0.3439091649577903
63858.10175731044,1.646267684052873,PPG_1,PPG_2,161576.0,161576.0,-70.04088449120172,-51.077935316587116,-0.33063929814537685
63858.11185711218,1.656367485789815,PPG_1,PPG_2,161532.0,161532.0,-113.90729653928429,-48.36186815263309,-0.31304181527375047
63858.12195691392,1.666467287534033,PPG_1,PPG_2,161563.0,161563.0,-82.77370858733775,-45.3033944503362,-0.2932258698863262
63858.132056715665,1.676567089278251,PPG_1,PPG_2,161605.0,161605.0,-40.64012063542032,-42.19846811036893,-0.2731089564276425
63858.14215651741,1.686666891022469,PPG_1,PPG_2,161600.0,161600.0,-45.50653268347378,-39.29258965823042,-0.2542816803693833
63858.152256319154,1.696766692766687,PPG_1,PPG_2,161568.0,161568.0,-77.37294473155634,-36.76371268803407,-0.23789700853280937
63858.16235612089,1.706866494503629,PPG_1,PPG_2,161583.0,161583.0,-62.23935677960981,-34.715052613413455,-0.22462367676422457
63858.172455922635,1.716966296247847,PPG_1,PPG_2,161572.0,161572.0,-73.10576882769237,-33.179007758521536,-0.2146715948044178
63858.18255572438,1.727066097992065,PPG_1,PPG_2,161593.0,161593.0,-51.972180875745835,-32.128397358816,-0.2078646576421365
63858.19265552612,1.7371658997362829,PPG_1,PPG_2,161567.0,161567.0,-77.8385929237993,-31.49128272678507,-0.20373677230365128
63858.20275532786,1.747265701473225,PPG_1,PPG_2,161589.0,161589.0,-55.70500497188186,-31.167723550830935,-0.20164042242969551
63858.212855129605,1.757365503217443,PPG_1,PPG_2,161563.0,161563.0,-81.57141701993532,-31.04736933221318,-0.20086064373763599
63858.22295493135,1.7674653049616609,PPG_1,PPG_2,161574.0,161574.0,-70.43782906801789,-31.02610723943785,-0.2007228859831907
63858.23305473309,1.7775651067058789,PPG_1,PPG_2,161555.0,161555.0,-89.30424111607135,-31.019281183287465,-0.2006786597549953
63858.24315453484,1.7876649084500968,PPG_1,PPG_2,161586.0,161586.0,-58.17065316415392,-30.9687334292599,-0.2003511592986353
63858.253254336574,1.7977647101870389,PPG_1,PPG_2,161589.0,161589.0,-55.03706521220738,-30.842058462267225,-0.19953042828303252
63858.26335413832,1.8078645119312569,PPG_1,PPG_2,161609.0,161609.0,-34.90347726026084,-30.625680191102838,-0.19812850679480826
63858.27345394006,1.8179643136754748,PPG_1,PPG_2,161560.0,161560.0,-83.76988930834341,-30.3166594369885,-0.19612635180406512
63858.28355374181,1.8280641154196928,PPG_1,PPG_2,161562.0,161562.0,-81.63630135639687,-29.917613488442147,-0.19354092080378255
63858.29365354355,1.8381639171639108,PPG_1,PPG_2,161598.0,161598.0,-45.50271340447944,-29.43442077075636,-0.19041030029261974
63858.30375334529,1.8482637189008528,PPG_1,PPG_2,161569.0,161569.0,-74.3691254525329,-28.87316423956215,-0.18677390192760282
63858.31385314703,1.8583635206450708,PPG_1,PPG_2,161614.0,161614.0,-29.235537500615465,-28.234992788966807,-0.18263916942906488
63858.32395294878,1.8684633223892888,PPG_1,PPG_2,161577.0,161577.0,-66.10194954866893,-27.511499017219855,-0.17795163098192623
63858.33405275052,1.8785631241335068,PPG_1,PPG_2,161582.0,161582.0,-60.96836159672239,-26.684086681373177,-0.17259080095494064
63858.34415255226,1.8886629258704488,PPG_1,PPG_2,161559.0,161559.0,-83.83477364480495,-25.72835506563233,-0.1663985863583814
63858.354252354,1.8987627276146668,PPG_1,PPG_2,161595.0,161595.0,-47.70118569285842,-24.62096470940382,-0.15922377010767944
63858.364352155746,1.9088625293588848,PPG_1,PPG_2,161580.0,161580.0,-62.56759774094098,-23.34511714619692,-0.1509575144206681
63858.37445195749,1.9189623311031028,PPG_1,PPG_2,161591.0,161591.0,-51.434009788994445,-21.893061864854467,-0.14154960349666895
63858.384551759234,1.9290621328473208,PPG_1,PPG_2,161590.0,161590.0,-52.30042183707701,-20.26686078182982,-0.13101339655593702
63858.39465156097,1.9391619345842628,PPG_1,PPG_2,161577.0,161577.0,-65.16683388513047,-18.479040548585363,-0.11943005415940161
63858.40475136272,1.9492617363284808,PPG_1,PPG_2,161564.0,161564.0,-78.03324593321304,-16.55315235753323,-0.10695216520861088
63858.41485116446,1.9593615380726987,PPG_1,PPG_2,161597.0,161597.0,-44.8996579812665,-14.522117865795977,-0.0937930301347944
63858.42495096621,1.9694613398169167,PPG_1,PPG_2,161613.0,161613.0,-28.766070029319962,-12.421778637404971,-0.08018486753604309
63858.43505076795,1.9795611415611347,PPG_1,PPG_2,161614.0,161614.0,-27.63248207740253,-10.28033429173631,-0.06631038361548151
63858.445150569685,1.9896609432980767,PPG_1,PPG_2,161602.0,161602.0,-39.49889412545599,-8.108762431097624,-0.05224070259681951
63858.45525037143,1.9997607450422947,PPG_1,PPG_2,161607.0,161607.0,-34.365306173538556,-5.897683159337506,-0.03791505184377892
63858.465350173174,2.0098605467865127,PPG_1,PPG_2,161585.0,161585.0,-56.23171822159202,-3.6222142253548686,-0.02317221848453907
63858.47544997492,2.0199603485307307,PPG_1,PPG_2,161593.0,161593.0,-48.098130269674584,-1.2521941452863938,-0.007816785335492864
63858.485549776655,2.0300601502676727,PPG_1,PPG_2,161611.0,161611.0,-29.964542317728046,1.2367418252076416,0.008309107532922572
63858.4956495784,2.0401599520118907,PPG_1,PPG_2,161600.0,161600.0,-40.83095436578151,3.8549196168177495,0.02527236214392354
63858.50574938014,2.0502597537561087,PPG_1,PPG_2,161600.0,161600.0,-40.697366413864074,6.594398447525249,0.04302152992605512
63858.51584918189,2.0603595555003267,PPG_1,PPG_2,161604.0,161604.0,-36.563778461917536,9.428538019748931,0.06138400757016427
63858.52594898363,2.0704593572445447,PPG_1,PPG_2,161604.0,161604.0,-36.4301905100001,12.315813848987593,0.08009075666127335
63858.53604878537,2.0805591589814867,PPG_1,PPG_2,161622.0,161622.0,-18.296602558053564,15.208788969764148,0.09883443163792367
63858.54614858711,2.0906589607257047,PPG_1,PPG_2,161651.0,161651.0,10.83698539386387,18.067668760937593,0.11735720192316727
63858.55624838886,2.1007587624699227,PPG_1,PPG_2,161639.0,161639.0,-1.0294266541895922,20.874867701536143,0.13554513038459573
63858.5663481906,2.1108585642141406,PPG_1,PPG_2,161624.0,161624.0,-15.895838702243054,23.64473288962733,0.15349117231280407
63858.576447992345,2.120958365958358,PPG_1,PPG_2,161632.0,161632.0,-7.76225075032562,26.42405385107512,0.17149847848804176
63858.58654779408,2.1310581676953007,PPG_1,PPG_2,161635.0,161635.0,-4.628662798379082,29.283568668382824,0.1900253631271824
63858.59664759583,2.141157969439518,PPG_1,PPG_2,161602.0,161602.0,-37.49507484646165,32.303918225317915,0.20959430100172063
63858.60674739757,2.1512577711837366,PPG_1,PPG_2,161661.0,161661.0,21.63851310548489,35.55998089308488,0.2306904313866396
63858.616847199315,2.1613575729279546,PPG_1,PPG_2,161631.0,161631.0,-8.227898942597676,39.10668591116131,0.253669642517579
63858.62694700105,2.1714573746648966,PPG_1,PPG_2,161648.0,161648.0,8.905689009348862,42.96734812010137,0.2786829919651142
63858.6370468028,2.1815571764091146,PPG_1,PPG_2,161642.0,161642.0,3.039276961266296,47.123645339678326,0.3056117697588182
63858.64714660454,2.1916569781533326,PPG_1,PPG_2,161623.0,161623.0,-15.827135086787166,51.50704121585277,0.3340119267483982
63858.657246406285,2.2017567798975506,PPG_1,PPG_2,161639.0,161639.0,0.30645286515937187,55.993938816509186,0.3630826746010935
63858.66734620803,2.211856581641769,PPG_1,PPG_2,161678.0,161678.0,39.440040817076806,60.40823977578159,0.3916830665766414
63858.677446009766,2.2219563833787106,PPG_1,PPG_2,161681.0,161681.0,42.573628769023344,64.53281635660714,0.4184063253741612
63858.68754581151,2.2320561851229286,PPG_1,PPG_2,161669.0,161669.0,30.707216720940778,68.12631111552518,0.4416886886781969
63858.697645613254,2.2421559868671466,PPG_1,PPG_2,161647.0,161647.0,8.840804672887316,70.93920144026605,0.4599134917929069
63858.707745415,2.252255788611365,PPG_1,PPG_2,161678.0,161678.0,39.97439262480475,72.72659234357435,0.47149405254755294
63858.71784521674,2.2623555903555825,PPG_1,PPG_2,161683.0,161683.0,45.10798057675129,73.25974614906217,0.47494837248651783
63858.72794501848,2.272455392092525,PPG_1,PPG_2,161635.0,161635.0,-2.758431471302174,72.33827838011055,0.4689781544094083
63858.738044820224,2.2825551938367425,PPG_1,PPG_2,161674.0,161674.0,36.37515648061526,69.8028847440462,0.45255126089381476
63858.74814462197,2.2926549955809605,PPG_1,PPG_2,161669.0,161669.0,31.508744432561798,65.54874115943959,0.42498853348520005
63858.75824442371,2.3027547973251785,PPG_1,PPG_2,161624.0,161624.0,-13.357667615520768,59.54007560270966,0.38605820414019415
63858.76834422545,2.3128545990621205,PPG_1,PPG_2,161679.0,161679.0,41.77592033642577,51.82501996656012,0.33607212087517657
63858.77844402719,2.3229544008063385,PPG_1,PPG_2,161682.0,161682.0,44.909508288343204,42.54855527181935,0.27596962019279264
63858.78854382894,2.3330542025505565,PPG_1,PPG_2,161641.0,161641.0,4.043096240289742,31.95907110976845,0.2073600259109762
63858.79864363068,2.3431540042947745,PPG_1,PPG_2,161620.0,161620.0,-16.823315807792824,20.401645770513067,0.13247911090754663
63858.808743432426,2.3532538060389925,PPG_1,PPG_2,161587.0,161587.0,-49.689727855846286,8.294305666912216,0.05403528119609643
63858.81884323416,2.3633536077759345,PPG_1,PPG_2,161566.0,161566.0,-70.55613990389975,-3.908681847643586,-0.02502825103903689
63858.82894303591,2.3734534095201525,PPG_1,PPG_2,161563.0,161563.0,-73.42255195198231,-15.75729372768645,-0.10179577261536726
63858.83904283765,2.3835532112643705,PPG_1,PPG_2,161545.0,161545.0,-91.28896400003578,-26.841090379254346,-0.17360803275278167
63858.84914263939,2.3936530130085885,PPG_1,PPG_2,161558.0,161558.0,-78.15537604811834,-36.81390955911469,-0.23822223560774097
63858.85924244114,2.4037528147528064,PPG_1,PPG_2,161569.0,161569.0,-67.0217880961718,-45.40677147481777,-0.2938956528142954
63858.86934224288,2.4138526164897485,PPG_1,PPG_2,161545.0,161545.0,-90.88820014425437,-52.43203296460071,-0.3394125385437251
63858.87944204462,2.4239524182339665,PPG_1,PPG_2,161503.0,161503.0,-132.75461219230783,-57.7839355745348,-0.374087680513271
63858.889541846365,2.4340522199781844,PPG_1,PPG_2,161518.0,161518.0,-117.6210242403613,-61.438097690406046,-0.39776310949293475
63858.89964164811,2.4441520217224024,PPG_1,PPG_2,161537.0,161537.0,-98.48743628844386,-63.44735259628651,-0.41078113395868066
63858.90974144985,2.4542518234593445,PPG_1,PPG_2,161528.0,161528.0,-107.35384833649732,-63.93041725718559,-0.41391092478597535
63858.91984125159,2.4643516252035624,PPG_1,PPG_2,161520.0,161520.0,-115.22026038457989,-63.05416009812486,-0.4082336276438594
63858.929941053335,2.4744514269477804,PPG_1,PPG_2,161564.0,161564.0,-71.08667243263335,-61.013445842052796,-0.3950117770785618
63858.94004085508,2.4845512286919984,PPG_1,PPG_2,161515.0,161515.0,-119.95308448071592,-58.01230431860071,-0.3755672886450023
63858.95014065682,2.4946510304362164,PPG_1,PPG_2,161545.0,161545.0,-89.81949652876938,-54.24915419624037,-0.3511857230119973
63858.96024045856,2.5047508321731584,PPG_1,PPG_2,161558.0,161558.0,-76.68590857682284,-49.9075022916845,-0.32305602650119364
63858.970340260305,2.5148506339173764,PPG_1,PPG_2,161524.0,161524.0,-110.5523206249054,-45.15210284999175,-0.2922456469444875
63858.98044006205,2.5249504356615944,PPG_1,PPG_2,161552.0,161552.0,-82.41873267295887,-40.13003044488492,-0.25970748503825614
63858.99053986379,2.5350502374058124,PPG_1,PPG_2,161561.0,161561.0,-73.28514472104143,-34.975409539817555,-0.22631053731528528
63859.00063966554,2.5451500391500304,PPG_1,PPG_2,161556.0,161556.0,-78.1515567690949,-29.816007386737905,-0.19288261173907217
63859.010739467274,2.5552498408869724,PPG_1,PPG_2,161506.0,161506.0,-128.01796881717746,-24.78051591834506,-0.16025750730819965
63859.02083926902,2.5653496426311904,PPG_1,PPG_2,161578.0,161578.0,-55.88438086523092,-20.00429522802961,-0.12931222623990116
63859.03093907076,2.5754494443754083,PPG_1,PPG_2,161575.0,161575.0,-58.75079291331349,-15.629162479655381,-0.10096560631003026
63859.04103887251,2.5855492461196263,PPG_1,PPG_2,161594.0,161594.0,-39.61720496136695,-11.795349804465344,-0.07612621581923504
63859.05113867424,2.5956490478565684,PPG_1,PPG_2,161552.0,161552.0,-81.48361700942041,-8.62973149028629,-0.05561607718894614
63859.06123847599,2.6057488496007863,PPG_1,PPG_2,161572.0,161572.0,-61.35002905750298,-6.235503929924967,-0.04010380302894405
63859.07133827773,2.6158486513450043,PPG_1,PPG_2,161580.0,161580.0,-53.21644110555644,-4.6838432228611415,-0.030050545481593676
63859.08143807947,2.6259484530892223,PPG_1,PPG_2,161594.0,161594.0,-39.08285315363901,-4.005212667571193,-0.025653677196682847
63859.09153788122,2.6360482548334403,PPG_1,PPG_2,161582.0,161582.0,-50.94926520169247,-4.18034325948998,-0.02678835369971236
63859.10163768296,2.6461480565703823,PPG_1,PPG_2,161604.0,161604.0,-28.815677249775035,-5.134208897316644,-0.03296847856785123
63859.1117374847,2.6562478583146003,PPG_1,PPG_2,161562.0,161562.0,-70.6820892978285,-6.736678774204363,-0.04335093029256351
63859.121837286446,2.6663476600588183,PPG_1,PPG_2,161588.0,161588.0,-44.54850134588196,-8.811482592639106,-0.05679364818313936
63859.13193708819,2.6764474618030363,PPG_1,PPG_2,161527.0,161527.0,-105.41491339396453,-11.152239092211826,-0.07195948169217267
63859.142036889934,2.6865472635472543,PPG_1,PPG_2,161587.0,161587.0,-45.28132544201799,-13.541619814274002,-0.08744035303744223
63859.15213669167,2.6966470652841963,PPG_1,PPG_2,161566.0,161566.0,-66.14773749010055,-15.769098851312675,-0.10187225837520668
63859.162236493416,2.7067468670284143,PPG_1,PPG_2,161568.0,161568.0,-64.01414953815402,-17.645473282798257,-0.11402934615162079
63859.17233629516,2.7168466687726323,PPG_1,PPG_2,161535.0,161535.0,-96.88056158623658,-19.015618323566102,-0.12290655810224695
63859.182436096904,2.7269464705168502,PPG_1,PPG_2,161538.0,161538.0,-93.74697363429004,-19.770160409321406,-0.12779525953283682
63859.19253589864,2.7370462722537923,PPG_1,PPG_2,161551.0,161551.0,-80.61338568237261,-19.85292486476236,-0.12833149299065802
63859.202635700385,2.7471460739980103,PPG_1,PPG_2,161567.0,161567.0,-64.47979773042607,-19.259911687785703,-0.12448934233879287
63859.21273550213,2.757245875742228,PPG_1,PPG_2,161567.0,161567.0,-64.34620977847953,-18.029238512467316,-0.11651577290330525
63859.22283530387,2.767345677486446,PPG_1,PPG_2,161585.0,161585.0,-46.2126218265621,-16.2262036705871,-0.1048338545884643
63859.23293510562,2.777445479230664,PPG_1,PPG_2,161544.0,161544.0,-87.07903387461556,-13.929268178856342,-0.08995193873991832
63859.243034907355,2.7875452809676062,PPG_1,PPG_2,161578.0,161578.0,-52.94544592269813,-11.220661762066843,-0.07240279427913085
63859.2531347091,2.797645082711824,PPG_1,PPG_2,161550.0,161550.0,-80.81185797075159,-8.181629435758259,-0.05271281016596943
63859.26323451084,2.807744884456042,PPG_1,PPG_2,161582.0,161582.0,-48.678270018834155,-4.89010242683461,-0.031386905221591564
63859.27333431259,2.81784468620026,PPG_1,PPG_2,161580.0,161580.0,-50.54468206688762,-1.4191156071752498,-0.008898274632031371
63859.28343411433,2.827944487944478,PPG_1,PPG_2,161584.0,161584.0,-46.41109411494108,2.163712708811708,0.014314980459485826
63859.29353391607,2.83804428968142,PPG_1,PPG_2,161568.0,161568.0,-62.277506163023645,5.7940453591503775,0.0378360175974769
63859.30363371781,2.848144091425638,PPG_1,PPG_2,161547.0,161547.0,-83.14391821107711,9.405683678853528,0.06123593359107177
63859.31373351956,2.858243893169856,PPG_1,PPG_2,161566.0,161566.0,-64.01033025915967,12.925677663132458,0.08404208311073248
63859.3238333213,2.868343694914074,PPG_1,PPG_2,161593.0,161593.0,-36.876742307213135,16.27544179189775,0.10574530814958631
63859.33393312304,2.878443496651016,PPG_1,PPG_2,161631.0,161631.0,1.256845644704299,19.38095765734612,0.1258660411620328
63859.34403292478,2.888543298395234,PPG_1,PPG_2,161577.0,161577.0,-52.60956640334916,22.18832518331604,0.14405506189327857
63859.35413272653,2.898643100139452,PPG_1,PPG_2,161602.0,161602.0,-27.475978451402625,24.67695201221952,0.16017895182380026
63859.36423252827,2.90874290188367,PPG_1,PPG_2,161605.0,161605.0,-24.34239049948519,26.86577319737211,0.17436039174765763
63859.374332330015,2.918842703627888,PPG_1,PPG_2,161593.0,161593.0,-36.20880254753865,28.812961394199473,0.1869762840923885
63859.38443213175,2.92894250536483,PPG_1,PPG_2,161608.0,161608.0,-21.07521459562122,30.610813645144507,0.19862462424081928
63859.394531933496,2.939042307109048,PPG_1,PPG_2,161597.0,161597.0,-31.94162664367468,32.376569274869254,0.21006500939106112
63859.40463173524,2.949142108853266,PPG_1,PPG_2,161614.0,161614.0,-14.808038691757247,34.23973250181553,0.22213650136606083
63859.414731536985,2.959241910597484,PPG_1,PPG_2,161582.0,161582.0,-46.67445073981071,36.32665350973946,0.2356577269008209
63859.42483133873,2.969341712341702,PPG_1,PPG_2,161584.0,161584.0,-44.540862787893275,38.74384601863749,0.25131879167023274
63859.434931140466,2.979441514078644,PPG_1,PPG_2,161624.0,161624.0,-4.407274835946737,41.56320384860788,0.26958549795067044
63859.44503094221,2.989541315822862,PPG_1,PPG_2,161614.0,161614.0,-14.273686884000199,44.81231399566256,0.29063658273959947
63859.455130743954,2.99964111756708,PPG_1,PPG_2,161604.0,161604.0,-24.140098932082765,48.46981878023942,0.31433366897283677
63859.4652305457,3.009740919311298,PPG_1,PPG_2,161628.0,161628.0,-0.006510980136226863,52.46319637698866,0.3402068855086267
63859.475330347435,3.01984072104824,PPG_1,PPG_2,161611.0,161611.0,-16.872923028218793,56.66745634610274,0.3674464154349204
63859.48543014918,3.029940522792458,PPG_1,PPG_2,161612.0,161612.0,-15.739335076272255,60.90528558171882,0.39490344167357416
63859.49552995093,3.040040324536676,PPG_1,PPG_2,161611.0,161611.0,-16.60574712435482,64.95013275522042,0.421110131183571
63859.50562975267,3.050140126280894,PPG_1,PPG_2,161646.0,161646.0,18.527840827591717,68.53429231793038,0.44433201146363904
63859.51572955441,3.060239928025112,PPG_1,PPG_2,161631.0,161631.0,3.661428779538255,71.36306358162035,0.4626597076712929
63859.52582935615,3.070339729762054,PPG_1,PPG_2,161621.0,161621.0,-6.204983268544311,73.13330535301219,0.47412915867167055
63859.53592915789,3.080439531506272,PPG_1,PPG_2,161618.0,161618.0,-9.071395316597773,73.553824618996,0.4768537159574948
63859.54602895964,3.09053933325049,PPG_1,PPG_2,161659.0,161659.0,32.06219263531966,72.36710448401098,0.4691649196250759
63859.55612876138,3.100639134994708,PPG_1,PPG_2,161612.0,161612.0,-14.8042194127338,69.37256686411047,0.4497632180861768
63859.566228563126,3.110738936738926,PPG_1,PPG_2,161622.0,161622.0,-4.670631460816367,64.44945665710706,0.417866235311734
63859.57632836486,3.120838738475868,PPG_1,PPG_2,161626.0,161626.0,-0.5370435088698287,57.57667872711337,0.373337295266125
63859.58642816661,3.130938540220086,PPG_1,PPG_2,161638.0,161638.0,11.596544443047605,48.84801824015331,0.31678403493072577
63859.59652796835,3.141038341964304,PPG_1,PPG_2,161625.0,161625.0,-1.2698676050058566,38.480074806556516,0.24960980985703424
63859.606627770096,3.151138143708522,PPG_1,PPG_2,161587.0,161587.0,-39.13627965305932,26.807756468630735,0.17398449957391335
63859.61672757183,3.161237945445464,PPG_1,PPG_2,161561.0,161561.0,-65.00269170114188,14.263449474865366,0.09270954791261281
63859.62682737358,3.171337747189682,PPG_1,PPG_2,161557.0,161557.0,-68.86910374919535,1.341590562974811,0.008988425736631264
63859.63692717532,3.1814375489339,PPG_1,PPG_2,161512.0,161512.0,-113.73551579727791,-11.444607273725655,-0.07385374415176083
63859.647026977065,3.191537350678118,PPG_1,PPG_2,161509.0,161509.0,-116.60192784533137,-23.606261743446765,-0.1526494783154165
63859.65712677881,3.201637152422336,PPG_1,PPG_2,161503.0,161503.0,-122.46833989341394,-34.714681911640966,-0.22462127497601458
63859.66722658055,3.211736954159278,PPG_1,PPG_2,161525.0,161525.0,-100.3347519414674,-44.4249803940858,-0.2875345981408371
63859.67732638229,3.221836755903496,PPG_1,PPG_2,161473.0,161473.0,-152.20116398952086,-52.48645849238135,-0.3397651632157545
63859.687426184035,3.231936557647714,PPG_1,PPG_2,161542.0,161542.0,-83.06757603760343,-58.742828138966466,-0.38030037499382685
63859.69752598578,3.242036359391932,PPG_1,PPG_2,161485.0,161485.0,-139.9339880856569,-63.12698657370976,-0.4087054726238784
63859.70762578752,3.25213616113615,PPG_1,PPG_2,161471.0,161471.0,-153.80040013373946,-65.65496362664508,-0.42508431386878026
63859.71772558926,3.262235962873092,PPG_1,PPG_2,161484.0,161484.0,-140.66681218179292,-66.42147477063344,-0.4300505631965801
63859.727825391004,3.27233576461731,PPG_1,PPG_2,161453.0,161453.0,-171.5332242298755,-65.59513561228783,-0.42469668631970214
63859.73792519275,3.282435566361528,PPG_1,PPG_2,161490.0,161490.0,-134.39963627792895,-63.40881562735504,-0.41053145174916245
63859.74802499449,3.292535368105746,PPG_1,PPG_2,161509.0,161509.0,-115.26604832598241,-60.14232575854245,-0.38936776320727495
63859.75812479623,3.302635169842688,PPG_1,PPG_2,161502.0,161502.0,-122.13246037406498,-56.09894575847274,-0.36317057955916554
63859.768224597974,3.312734971586906,PPG_1,PPG_2,161502.0,161502.0,-121.99887242211844,-51.58116020947056,-0.3338997077370898
63859.77832439972,3.322834773331124,PPG_1,PPG_2,161509.0,161509.0,-114.865284470201,-46.871122022758385,-0.3033832251495566
63859.78842420146,3.332934575075342,PPG_1,PPG_2,161521.0,161521.0,-102.73169651825447,-42.21822734325521,-0.2732369771065445
63859.79852400321,3.34303437681956,PPG_1,PPG_2,161487.0,161487.0,-136.59810856633703,-37.83373780824928,-0.2448297342676859
63859.80862380494,3.353134178556502,PPG_1,PPG_2,161505.0,161505.0,-118.4645206143905,-33.89119597089301,-0.2192858841838955
63859.81872360669,3.36323398030072,PPG_1,PPG_2,161501.0,161501.0,-122.33093266247306,-30.52951651803115,-0.19750545939295827
63859.82882340843,3.373333782044938,PPG_1,PPG_2,161514.0,161514.0,-109.19734471052652,-27.854500799807436,-0.18017395010353263
63859.838923210176,3.383433583789156,PPG_1,PPG_2,161542.0,161542.0,-81.06375675857998,-25.936429156110673,-0.167746704803984
63859.84902301192,3.393533385533374,PPG_1,PPG_2,161498.0,161498.0,-124.93016880666255,-24.804992324686513,-0.16041609069931345
63859.85912281366,3.403633187270316,PPG_1,PPG_2,161516.0,161516.0,-106.79658085471601,-24.444551598930573,-0.15808078412740495
63859.8692226154,3.413732989014534,PPG_1,PPG_2,161544.0,161544.0,-78.66299290279858,-24.79118367871237,-0.160326624056428
63859.879322417146,3.423832790758752,PPG_1,PPG_2,161522.0,161522.0,-100.52940495085204,-25.731612966522096,-0.16641969439866333
63859.88942221889,3.43393259250297,PPG_1,PPG_2,161525.0,161525.0,-97.3958169989346,-27.1057444649914,-0.1753227347316104
63859.89952202063,3.444032394239912,PPG_1,PPG_2,161514.0,161514.0,-108.26222904698807,-28.715603703513803,-0.18575306235811345
63859.90962182237,3.45413219598413,PPG_1,PPG_2,161496.0,161496.0,-126.12864109504153,-30.34112643112071,-0.19628487421318513
63859.919721624115,3.464231997728348,PPG_1,PPG_2,161519.0,161519.0,-102.9950531431241,-31.760108516572647,-0.20547850288160632
63859.92982142586,3.4743317994725658,PPG_1,PPG_2,161513.0,161513.0,-108.86146519117756,-32.76879159833498,-0.21201379165862289
63859.9399212276,3.4844316012167837,PPG_1,PPG_2,161497.0,161497.0,-124.72787723926012,-33.20112709193915,-0.21481490664740682
63859.95002102934,3.4945314029537258,PPG_1,PPG_2,161490.0,161490.0,-131.5942892873136,-32.94620562475042,-0.2131632626041377
63859.960120831085,3.504631204697944,PPG_1,PPG_2,161467.0,161467.0,-154.46070133539615,-31.962007048204228,-0.20678660969109366
63859.97022063283,3.5147310064421617,PPG_1,PPG_2,161529.0,161529.0,-92.32711338344961,-30.28106903785584,-0.19589576051109445
63859.98032043457,3.5248308081863797,PPG_1,PPG_2,161511.0,161511.0,-110.19352543150308,-28.004475440668077,-0.1811456404242835
63859.99042023632,3.5349306099305977,PPG_1,PPG_2,161499.0,161499.0,-122.05993747958564,-25.28544188538773,-0.16352893821182188
63860.000520038055,3.5450304116675397,PPG_1,PPG_2,161507.0,161507.0,-113.9263495276391,-22.307125204808727,-0.14423233263875906
63860.0106198398,3.5551302134117577,PPG_1,PPG_2,161545.0,161545.0,-75.79276157572167,-19.257728652948067,-0.12447519838879292
63860.02071964154,3.5652300151559757,PPG_1,PPG_2,161528.0,161528.0,-92.65917362377513,-16.30443937623596,-0.10534074613679446
63860.03081944329,3.5753298169001937,PPG_1,PPG_2,161555.0,161555.0,-65.5255856718577,-13.56994116456104,-0.08762384793889082
63860.040919245024,3.5854296186371357,PPG_1,PPG_2,161507.0,161507.0,-113.39199771991116,-11.117012472496272,-0.0717312473372581
63860.05101904677,3.5955294203813537,PPG_1,PPG_2,161563.0,161563.0,-57.258409767993726,-8.944473937133422,-0.05765530320326275
63860.06111884851,3.605629222125572,PPG_1,PPG_2,161528.0,161528.0,-92.12482181604719,-6.994268901178224,-0.04501986466483565
63860.07121865026,3.6157290238697897,PPG_1,PPG_2,161515.0,161515.0,-104.99123386410065,-5.168088608737759,-0.03318798626241087
63860.081318452,3.625828825614008,PPG_1,PPG_2,161527.0,161527.0,-92.85764591218322,-3.3511995373553027,-0.021416305967600937
63860.09141825374,3.6359286273509497,PPG_1,PPG_2,161505.0,161505.0,-114.72405796023668,-1.438914536323592,-0.009026552504238804
63860.10151805548,3.646028429095168,PPG_1,PPG_2,161526.0,161526.0,-93.59047000831924,0.6403578144594319,0.004445117145153536
63860.11161785723,3.6561282308393857,PPG_1,PPG_2,161506.0,161506.0,-113.4568820563727,2.9105136878823465,0.01915352702126438
63860.12171765897,3.666228032583603,PPG_1,PPG_2,161544.0,161544.0,-75.32329410445527,5.344507360334128,0.03492344704719722
63860.131817460715,3.6763278343278216,PPG_1,PPG_2,161560.0,161560.0,-59.189706152508734,7.872761373538117,0.051304082726216435
63860.14191726245,3.686427636064763,PPG_1,PPG_2,161527.0,161527.0,-92.0561182005622,10.40003603642784,0.06767837316436336
63860.15201706419,3.6965274378089816,PPG_1,PPG_2,161545.0,161545.0,-73.92253024864476,12.82545617986451,0.08339274503154846
63860.16211686594,3.7066272395532,PPG_1,PPG_2,161567.0,161567.0,-51.788942296698224,15.06203139114338,0.09788358476258328
63860.172216667685,3.7167270412974176,PPG_1,PPG_2,161553.0,161553.0,-65.65535434478079,17.054251236520784,0.11079123854626433
63860.18231646942,3.72682684303436,PPG_1,PPG_2,161563.0,161563.0,-55.52176639283425,18.791687161795583,0.1220481394584868
63860.192416271166,3.7369266447785776,PPG_1,PPG_2,161567.0,161567.0,-51.38817844091682,20.315517561316703,0.13192108358546437
63860.20251607291,3.747026446522795,PPG_1,PPG_2,161567.0,161567.0,-51.25459048897028,21.71587266463233,0.14099402746249157
63860.212615874654,3.7571262482670136,PPG_1,PPG_2,161526.0,161526.0,-92.12100253705285,23.119493764527974,0.15008813183202735
63860.2227156764,3.767226050011232,PPG_1,PPG_2,161546.0,161546.0,-71.98741458510631,24.669534874944844,0.16013089596278185
63860.232815478135,3.7773258517481736,PPG_1,PPG_2,161556.0,161556.0,-61.85382663315977,26.502538413163638,0.17200698238491488
63860.24291527988,3.787425653492392,PPG_1,PPG_2,161548.0,161548.0,-69.72023868124234,28.728258058181886,0.1864274885675499
63860.253015081624,3.7975254552366096,PPG_1,PPG_2,161542.0,161542.0,-75.5866507292958,31.41510130849334,0.2038356288019278
63860.26311488337,3.807625256980827,PPG_1,PPG_2,161547.0,161547.0,-70.45306277737836,34.58188376252522,0.22435330993020505
63860.27321468511,3.8177250587250455,PPG_1,PPG_2,161567.0,161567.0,-50.319474825431826,38.19711817582032,0.24777652512502324
63860.28331448685,3.827824860461987,PPG_1,PPG_2,161599.0,161599.0,-18.18588687351439,42.1865756938494,0.273624343349958
63860.29341428859,3.8379246622062055,PPG_1,PPG_2,161599.0,161599.0,-18.052298921567854,46.44616786324916,0.30122237230738735
63860.30351409034,3.848024463950423,PPG_1,PPG_2,161573.0,161573.0,-43.918710969621316,50.85345045480975,0.32977729206220585
63860.31361389208,3.8581242656946415,PPG_1,PPG_2,161587.0,161587.0,-29.78512301770388,55.27192632308304,0.35840473340185225
63860.32371369382,3.868224067431583,PPG_1,PPG_2,161563.0,161563.0,-53.65153506575734,59.547756538837604,0.3861079691621138
63860.33381349556,3.8783238691758015,PPG_1,PPG_2,161571.0,161571.0,-45.51794711383991,63.50353725610516,0.4117375943569067
63860.34391329731,3.888423670920019,PPG_1,PPG_2,161621.0,161621.0,4.6156408381066285,66.93493663480855,0.43396973669632366
63860.35401309905,3.8985234726642375,PPG_1,PPG_2,161577.0,161577.0,-39.25077120997594,69.61319826965133,0.451322276379572
63860.3641129008,3.908623274408455,PPG_1,PPG_2,161565.0,161565.0,-51.1171832580294,71.29264170112519,0.46220344213697623
63860.37421270253,3.9187230761453975,PPG_1,PPG_2,161610.0,161610.0,-5.9835953060828615,71.72198098796795,0.464985144609802
63860.38431250428,3.928822877889615,PPG_1,PPG_2,161566.0,161566.0,-49.85000735416543,70.66085923708711,0.4581101040792682
63860.39441230602,3.9389226796338335,PPG_1,PPG_2,161604.0,161604.0,-11.71641940221889,67.90287050035276,0.4402410100454645
63860.404512107765,3.949022481378051,PPG_1,PPG_2,161576.0,161576.0,-39.582831450301455,63.303580107454245,0.41044206582758963
63860.41461190951,3.9591222831222694,PPG_1,PPG_2,161636.0,161636.0,20.550756501645083,56.810057574062185,0.36837033318621637
63860.424711711246,3.969222084859211,PPG_1,PPG_2,161593.0,161593.0,-22.315655546437483,48.48633941348858,0.3144407066648677
63860.43481151299,3.9793218866034294,PPG_1,PPG_2,161571.0,161571.0,-44.182067594490945,38.526998916913605,0.24991383261436292
63860.444911314735,3.989421688347647,PPG_1,PPG_2,161559.0,161559.0,-56.04847964257351,27.252637964230523,0.17686690049632783
63860.45501111648,3.9995214900918654,PPG_1,PPG_2,161533.0,161533.0,-81.91489169062697,15.087183796995525,0.09804654797536295
63860.465110918216,4.009621291828807,PPG_1,PPG_2,161515.0,161515.0,-99.78130373868044,2.5221424412469435,0.01663725774368536
63860.47521071996,4.019721093573025,PPG_1,PPG_2,161511.0,161511.0,-103.647715786763,-9.925642925561066,-0.0640123273215068
63860.485310521704,4.029820895317243,PPG_1,PPG_2,161497.0,161497.0,-117.51412783481646,-21.75711600038506,-0.14066880605056084
63860.49541032345,4.039920697061461,PPG_1,PPG_2,161458.0,161458.0,-156.38053988289903,-32.5309702622708,-0.21047293989198093
63860.50551012519,4.050020498805679,PPG_1,PPG_2,161433.0,161433.0,-181.2469519309525,-41.89686678181536,-0.27115487212379386
63860.51560992693,4.060120300542621,PPG_1,PPG_2,161471.0,161471.0,-143.11336397903506,-49.616704815957135,-0.3211719406928093
63860.525709728674,4.070220102286839,PPG_1,PPG_2,161487.0,161487.0,-126.97977602708852,-55.5688567917284,-0.35973611680488604
63860.53580953042,4.080319904031057,PPG_1,PPG_2,161482.0,161482.0,-131.84618807514198,-59.73616223298183,-0.38673621720613444
63860.54590933216,4.090419705775275,PPG_1,PPG_2,161440.0,161440.0,-173.71260012322455,-62.18563994850681,-0.40260645882439766
63860.55600913391,4.100519507519493,PPG_1,PPG_2,161467.0,161467.0,-146.579012171278,-63.04814129592598,-0.40819463163889746
63860.56610893564,4.110619309256435,PPG_1,PPG_2,161465.0,161465.0,-148.44542421936058,-62.500436200041065,-0.4046460334409405
63860.57620873739,4.120719111000653,PPG_1,PPG_2,161453.0,161453.0,-160.31183626741404,-60.7486511812435,-0.3932961643095071
63860.58630853913,4.130818912744871,PPG_1,PPG_2,161471.0,161471.0,-142.1782483154966,-58.01284428640507,-0.37557078711305
63860.59640834088,4.140918714489089,PPG_1,PPG_2,161478.0,161478.0,-135.04466036355007,-54.51366298526845,-0.35289948360897017
63860.60650814261,4.151018516226031,PPG_1,PPG_2,161473.0,161473.0,-139.91107241163263,-50.46223168707426,-0.32665013535214993
63860.61660794436,4.161118317970249,PPG_1,PPG_2,161456.0,161456.0,-156.7774844596861,-46.05452273347394,-0.2980924531845344
63860.6267077461,4.171218119714467,PPG_1,PPG_2,161461.0,161461.0,-151.64389650773956,-41.46999464673976,-0.2683891544033117
63860.636807547846,4.181317921458685,PPG_1,PPG_2,161505.0,161505.0,-107.51030855582212,-36.871577975039834,-0.23859587105201296
63860.64690734959,4.191417723202903,PPG_1,PPG_2,161487.0,161487.0,-125.37672060387558,-32.40423166064242,-0.209651796585612
63860.65700715133,4.201517524939845,PPG_1,PPG_2,161476.0,161476.0,-136.24313265195815,-28.19280084350294,-0.18236580651393722
63860.66710695307,4.211617326684063,PPG_1,PPG_2,161487.0,161487.0,-125.10954470001161,-24.341369510893685,-0.1574122641986693
63860.677206754815,4.221717128428281,PPG_1,PPG_2,161507.0,161507.0,-104.97595674809418,-20.933749201483412,-0.13533418718213625
63860.68730655656,4.231816930172499,PPG_1,PPG_2,161500.0,161500.0,-111.84236879614764,-18.03327258506266,-0.11654190978399127
63860.697406358304,4.241916731916717,PPG_1,PPG_2,161477.0,161477.0,-134.7087808442011,-15.681810549274848,-0.10130671477584745
63860.70750616004,4.252016533653659,PPG_1,PPG_2,161518.0,161518.0,-93.57519289228367,-13.898708558336576,-0.08975394201664248
63860.717605961785,4.262116335397877,PPG_1,PPG_2,161524.0,161524.0,-87.44160494033713,-12.679255199960703,-0.08185306612094982
63860.72770576353,4.272216137142095,PPG_1,PPG_2,161498.0,161498.0,-113.3080169884197,-11.993255896292643,-0.0774084554881729
63860.73780556527,4.282315938886313,PPG_1,PPG_2,161484.0,161484.0,-127.17442903647316,-11.786220122817642,-0.07606706433043867
63860.74790536701,4.292415740623255,PPG_1,PPG_2,161519.0,161519.0,-92.04084108455572,-11.983886524528485,-0.07734775103972412
63860.758005168755,4.302515542367473,PPG_1,PPG_2,161507.0,161507.0,-103.90725313260918,-12.497658278989363,-0.08067649407267946
63860.7681049705,4.312615344111691,PPG_1,PPG_2,161492.0,161492.0,-118.77366518066265,-13.229312836487969,-0.08541690650224007
63860.77820477224,4.322715145855909,PPG_1,PPG_2,161521.0,161521.0,-89.64007722874521,-14.0758719241354,-0.09090178892429622
63860.78830457399,4.332814947600127,PPG_1,PPG_2,161484.0,161484.0,-126.50648927679867,-14.935583964164852,-0.09647188973024423
63860.79840437573,4.342914749337069,PPG_1,PPG_2,161487.0,161487.0,-123.37290132488124,-15.714658144455596,-0.1015195353574732
63860.80850417747,4.353014551081287,PPG_1,PPG_2,161503.0,161503.0,-107.2393133729347,-16.33321198566569,-0.10552716476013757
63860.81860397921,4.363114352825505,PPG_1,PPG_2,161510.0,161510.0,-100.10572542101727,-16.72844443963721,-0.10808788801152783
63860.82870378096,4.373214154569723,PPG_1,PPG_2,161490.0,161490.0,-119.97213746907073,-16.854786904279727,-0.10890646473415536
63860.838803582694,4.383313956306665,PPG_1,PPG_2,161490.0,161490.0,-119.8385495171533,-16.682898742401527,-0.10779279603529907
63860.84890338444,4.393413758050883,PPG_1,PPG_2,161501.0,161501.0,-108.70496156520676,-16.198550746506125,-0.10465469044100745
63860.85900318618,4.403513559795101,PPG_1,PPG_2,161503.0,161503.0,-106.57137361326022,-15.40051449475449,-0.0994841889683222
63860.86910298793,4.413613361539319,PPG_1,PPG_2,161488.0,161488.0,-121.43778566134279,-14.296877947967063,-0.09233369376469132
63860.87920278967,4.423713163283537,PPG_1,PPG_2,161520.0,161520.0,-89.30419770939625,-12.900519573436226,-0.0832866448166505
63860.88930259141,4.433812965020479,PPG_1,PPG_2,161517.0,161517.0,-92.17060975747881,-11.224958491326781,-0.07243063292044255
63860.89940239315,4.443912766764697,PPG_1,PPG_2,161489.0,161489.0,-120.03702180553228,-9.282316007920578,-0.059844192393078234
63860.909502194896,4.454012568508915,PPG_1,PPG_2,161496.0,161496.0,-112.90343385361484,-7.084850744715491,-0.04560674722108542
63860.91960199664,4.464112370253133,PPG_1,PPG_2,161513.0,161513.0,-95.7698459016683,-4.648855697898503,-0.02982386022895275
63860.929701798384,4.474212171997351,PPG_1,PPG_2,161509.0,161509.0,-99.63625794972177,-1.9976839513546647,-0.012646836766975257
63860.93980160012,4.484311973734293,PPG_1,PPG_2,161521.0,161521.0,-87.50266999780433,0.8376398441109617,0.005723313496019345
63860.949901401866,4.494411775478511,PPG_1,PPG_2,161503.0,161503.0,-105.3690820458578,3.8191898269608355,0.02504086773415404
63860.96000120361,4.504511577222729,PPG_1,PPG_2,161541.0,161541.0,-67.23549409394036,6.903029064358764,0.045021157205330745
63860.970101005354,4.514611378966947,PPG_1,PPG_2,161519.0,161519.0,-89.10190614199382,10.03971329403997,0.06534383101033313
63860.9802008071,4.524711180711165,PPG_1,PPG_2,161518.0,161518.0,-89.96831819007639,13.173792865236884,0.08564962915273333
63860.990300608835,4.534810982448107,PPG_1,PPG_2,161508.0,161508.0,-99.83473023812985,16.2421570120547,0.1055296550350583
63861.00040041058,4.544910784192325,PPG_1,PPG_2,161544.0,161544.0,-63.701142286212416,19.173087130896718,0.1245192416140481
63861.01050021232,4.555010585936543,PPG_1,PPG_2,161534.0,161534.0,-73.56755433426588,21.888548212183093,0.1421127976573897
63861.02060001407,4.565110387680761,PPG_1,PPG_2,161504.0,161504.0,-103.43396638231934,24.310039448193596,0.15780171401226137
63861.030699815805,4.575210189417703,PPG_1,PPG_2,161551.0,161551.0,-56.300378430401906,26.36700015403289,0.1711288258263594
63861.04079961755,4.585309991161921,PPG_1,PPG_2,161553.0,161553.0,-54.16679047845537,28.007784429991563,0.18175951772360344
63861.05089941929,4.595409792906139,PPG_1,PPG_2,161547.0,161547.0,-60.033202526537934,29.212416619937574,0.18956436681221145
63861.06099922104,4.605509594650357,PPG_1,PPG_2,161535.0,161535.0,-71.8996145745914,30.003531343652643,0.194690023491408
63861.07109902278,4.615609396394575,PPG_1,PPG_2,161575.0,161575.0,-31.766026622673962,30.45188230585982,0.19759490319490988
63861.08119882452,4.625709198131517,PPG_1,PPG_2,161529.0,161529.0,-77.63243867072742,30.675117017851523,0.19904124777458793
63861.09129862626,4.635808999875735,PPG_1,PPG_2,161521.0,161521.0,-85.49885071878089,30.82980040739061,0.20004344622316256
63861.10139842801,4.645908801619953,PPG_1,PPG_2,161573.0,161573.0,-33.36526276686345,31.098120663895024,0.2017819014353941
63861.11149822975,4.656008603364171,PPG_1,PPG_2,161549.0,161549.0,-57.231674814916914,31.67201467164148,0.20550017840051346
63861.12159803149,4.666108405101113,PPG_1,PPG_2,161519.0,161519.0,-87.09808686299948,32.73565173694528,0.21239151573072218
63861.13169783323,4.676208206845331,PPG_1,PPG_2,161544.0,161544.0,-61.96449891105294,34.445731682206244,0.22347117640525144
63861.14179763498,4.686308008589549,PPG_1,PPG_2,161561.0,161561.0,-44.83091095913551,36.91153254556086,0.23944717620142542
63861.15189743672,4.696407810333767,PPG_1,PPG_2,161556.0,161556.0,-49.69732300718897,40.17790005593554,0.26061007197922226
63861.161997238465,4.706507612077985,PPG_1,PPG_2,161532.0,161532.0,-73.56373505524243,44.211569326911686,0.2867443395142242
63861.1720970402,4.716607413814927,PPG_1,PPG_2,161538.0,161538.0,-67.430147103325,48.89026290859731,0.31705773943966675
63861.182196841946,4.726707215559145,PPG_1,PPG_2,161561.0,161561.0,-44.29655915137846,53.99722332512237,0.3501458933883498
63861.19229664369,4.736807017303363,PPG_1,PPG_2,161565.0,161565.0,-40.162971199461026,59.2255250999606,0.38402022173760514
63861.202396445435,4.746906819047581,PPG_1,PPG_2,161577.0,161577.0,-28.029383247514488,64.19351264550978,0.41620796617172434
63861.21249624718,4.757006620791799,PPG_1,PPG_2,161556.0,161556.0,-48.895795295597054,68.46897695679105,0.4439088312256253
63861.22259604891,4.767106422528741,PPG_1,PPG_2,161586.0,161586.0,-18.762207343650516,71.59922077134603,0.4641897773825142
63861.23269585066,4.777206224272959,PPG_1,PPG_2,161562.0,161562.0,-42.62861939173308,73.1457987854138,0.4742101040052812
63861.2427956524,4.787306026017177,PPG_1,PPG_2,161604.0,161604.0,-0.49503143978654407,72.72322476147609,0.4714722338793405
63861.25289545415,4.797405827761395,PPG_1,PPG_2,161583.0,161583.0,-21.361443487840006,70.03937239168843,0.4540834716520631
63861.26299525589,4.807505629505613,PPG_1,PPG_2,161587.0,161587.0,-17.227855535922572,64.93310182086036,0.42099978723491377
63861.27309505763,4.817605431242555,PPG_1,PPG_2,161604.0,161604.0,-0.09426758397603408,57.40362103119708,0.37221604912018785
63861.283194859374,4.827705232986773,PPG_1,PPG_2,161574.0,161574.0,-29.9606796320586,47.62641885389659,0.3088692548542468
63861.29329466112,4.837805034730991,PPG_1,PPG_2,161575.0,161575.0,-28.827091680112062,35.951321130127035,0.23322593684457613
63861.30339446286,4.847904836475209,PPG_1,PPG_2,161531.0,161531.0,-72.69350372819463,22.879912375227047,0.14853587662621504
63861.3134942646,4.858004638212151,PPG_1,PPG_2,161516.0,161516.0,-87.55991577624809,9.023225719058726,0.058757976681196124
63861.32359406634,4.868104439956369,PPG_1,PPG_2,161467.0,161467.0,-136.42632782430155,-4.954840994288664,-0.03180634839554012
63861.33369386809,4.878204241700587,PPG_1,PPG_2,161471.0,161471.0,-132.29273987238412,-18.39923571664547,-0.11891299619346721
63861.34379366983,4.888304043444805,PPG_1,PPG_2,161469.0,161469.0,-134.15915192043758,-30.72025851220426,-0.1987412826523782
63861.353893471576,4.898403845189023,PPG_1,PPG_2,161436.0,161436.0,-167.02556396852015,-41.437057538648396,-0.26817575386477904
63861.36399327331,4.908503646925965,PPG_1,PPG_2,161454.0,161454.0,-148.8919760165736,-50.20473928787059,-0.3249818341611131
63861.37409307506,4.918603448670183,PPG_1,PPG_2,161446.0,161446.0,-156.75838806465617,-56.82475499300352,-0.3678731199610493
63861.3841928768,4.928703250414401,PPG_1,PPG_2,161460.0,161460.0,-142.62480011270964,-61.24001841689,-0.39647974777449757
63861.394292678546,4.938803052158619,PPG_1,PPG_2,161443.0,161443.0,-159.4912121607631,-63.51840323243623,-0.4112414732202631
63861.40439248028,4.948902853895561,PPG_1,PPG_2,161454.0,161454.0,-148.35762420884566,-63.829624233754814,-0.41325788368046
63861.41449228203,4.959002655639779,PPG_1,PPG_2,161468.0,161468.0,-134.22403625689913,-62.41983309989438,-0.4041238034706896
63861.42459208377,4.969102457383997,PPG_1,PPG_2,161439.0,161439.0,-163.0904483049817,-59.587111838797085,-0.3857705151080844
63861.434691885515,4.979202259128215,PPG_1,PPG_2,161473.0,161473.0,-128.95686035303515,-55.66027712890247,-0.3603284319872533
63861.44479168726,4.989302060872433,PPG_1,PPG_2,161434.0,161434.0,-167.82327240111772,-50.98199183521133,-0.33001767737231147
63861.454891489,4.999401862609375,PPG_1,PPG_2,161443.0,161443.0,-158.68968444917118,-45.89501490254963,-0.29705899703152294
63861.46499129074,5.009501664353593,PPG_1,PPG_2,161477.0,161477.0,-124.55609649725375,-40.72854267419686,-0.26358526421969686
63861.475091092485,5.019601466097811,PPG_1,PPG_2,161475.0,161475.0,-126.42250854530721,-35.78173703123684,-0.23153475798533513
63861.48519089423,5.029701267842029,PPG_1,PPG_2,161493.0,161493.0,-108.28892059336067,-31.304837604669526,-0.20252878861073326
63861.49529069597,5.039801069586247,PPG_1,PPG_2,161501.0,161501.0,-100.15533264144324,-27.482049244861052,-0.17776082499909374
63861.50539049771,5.049900871323189,PPG_1,PPG_2,161483.0,161483.0,-118.0217446894967,-24.42119836374841,-0.1579294777968513
63861.515490299455,5.060000673067407,PPG_1,PPG_2,161492.0,161492.0,-108.88815673757927,-22.15311488257336,-0.14323449501399096
63861.5255901012,5.070100474811625,PPG_1,PPG_2,161497.0,161497.0,-103.75456878563273,-20.640692338456425,-0.13343546273379736
63861.53568990294,5.080200276555843,PPG_1,PPG_2,161468.0,161468.0,-132.6209808337153,-19.795378899994112,-0.1279586509112058
63861.54578970469,5.090300078300061,PPG_1,PPG_2,161487.0,161487.0,-113.48739288176876,-19.497969799270617,-0.12603172818068378
63861.555889506424,5.100399880037003,PPG_1,PPG_2,161448.0,161448.0,-152.35380492982222,-19.619708637665646,-0.1268204778669579
63861.56598930817,5.110499681781221,PPG_1,PPG_2,161514.0,161514.0,-86.22021697790478,-20.038960054273787,-0.12953682071759876
63861.57608910991,5.120599483525439,PPG_1,PPG_2,161461.0,161461.0,-139.08662902595825,-20.650121305261255,-0.13349655330035154
63861.58618891166,5.130699285269657,PPG_1,PPG_2,161517.0,161517.0,-82.95304107404081,-21.36497159948198,-0.13812809039018295
63861.596288713394,5.140799087006599,PPG_1,PPG_2,161486.0,161486.0,-113.81945312209427,-22.109606743079798,-0.14295260443717633
63861.60638851514,5.150898888750817,PPG_1,PPG_2,161464.0,161464.0,-135.68586517017684,-22.82060724627477,-0.14755919861229114
63861.61648831688,5.160998690495035,PPG_1,PPG_2,161505.0,161505.0,-94.5522772182303,-23.442221624051342,-0.15158665732570353
63861.62658811863,5.171098492239253,PPG_1,PPG_2,161489.0,161489.0,-110.41868926631287,-23.92400939614776,-0.15470817515108867
63861.63668792037,5.181198293983471,PPG_1,PPG_2,161500.0,161500.0,-99.28510131436633,-24.21868388978879,-0.1566173802780356
63861.64678772211,5.191298095720413,PPG_1,PPG_2,161477.0,161477.0,-122.15151336241979,-24.282076400989354,-0.1570281023120288
63861.65688752385,5.201397897464631,PPG_1,PPG_2,161472.0,161472.0,-127.01792541050236,-24.076852450004235,-0.15569845000805166
63861.6669873256,5.211497699208849,PPG_1,PPG_2,161477.0,161477.0,-121.88433745855582,-23.578449881208638,-0.15246928440274057
63861.67708712734,5.221597500953067,PPG_1,PPG_2,161489.0,161489.0,-109.75074950663839,-22.77952136853201,-0.14729300194402048
63861.68718692908,5.231697302690009,PPG_1,PPG_2,161493.0,161493.0,-105.61716155469185,-21.69031785711679,-0.14023601882143039
63861.69728673082,5.241797104434227,PPG_1,PPG_2,161487.0,161487.0,-111.48357360277441,-20.335514956814233,-0.13145820907176417
63861.707386532566,5.251896906178445,PPG_1,PPG_2,161502.0,161502.0,-96.34998565082788,-18.749823167059866,-0.12118446309073386
63861.71748633431,5.261996707922663,PPG_1,PPG_2,161486.0,161486.0,-112.21639769888134,-16.974336662562703,-0.10968103130291026
63861.727586136054,5.272096509666881,PPG_1,PPG_2,161497.0,161497.0,-101.0828097469639,-15.054382824914663,-0.09724159121073712
63861.73768593779,5.282196311403823,PPG_1,PPG_2,161481.0,161481.0,-116.94922179501737,-13.03851610443754,-0.08418072859442581
63861.747785739535,5.292296113148041,PPG_1,PPG_2,161499.0,161499.0,-98.81563384309993,-10.977271862444615,-0.07082586361755848
63861.75788554128,5.302395914892259,PPG_1,PPG_2,161513.0,161513.0,-84.6820458911534,-8.92010172034553,-0.057497394859477864
63861.76798534302,5.312495716636477,PPG_1,PPG_2,161503.0,161503.0,-94.54845793923596,-6.910395251554202,-0.044476444703714056
63861.77808514477,5.322595518380695,PPG_1,PPG_2,161513.0,161513.0,-84.41486998728942,-4.980542716899237,-0.03197287064852904
63861.788184946505,5.332695320117637,PPG_1,PPG_2,161490.0,161490.0,-107.28128203534288,-3.149191959053252,-0.020107492641374507
63861.79828474825,5.342795121861855,PPG_1,PPG_2,161521.0,161521.0,-76.14769408342545,-1.4209281498391892,-0.008910018151818392
63861.80838454999,5.3528949236060726,PPG_1,PPG_2,161533.0,161533.0,-64.01410613147891,0.21272087248157562,0.0016744442171782582
63861.81848435174,5.3629947253502905,PPG_1,PPG_2,161500.0,161500.0,-96.88051817956148,1.7708014023042293,0.011769295994058987
63861.828584153474,5.373094527087233,PPG_1,PPG_2,161488.0,161488.0,-108.74693022761494,3.277543373921784,0.021531523669938834
63861.83868395522,5.3831943288314505,PPG_1,PPG_2,161517.0,161517.0,-79.6133422756975,4.7550074954321415,0.031104059252553436
63861.84878375696,5.3932941305756685,PPG_1,PPG_2,161502.0,161502.0,-94.47975432375097,6.218116336825749,0.040583586532823936
63861.85888355871,5.4033939323198865,PPG_1,PPG_2,161546.0,161546.0,-50.34616637183353,7.675408020671731,0.0500254242700432
63861.86898336045,5.4134937340641045,PPG_1,PPG_2,161507.0,161507.0,-89.212578419887,9.134462738869392,0.05947868476116837
63861.87908316219,5.4235935358010465,PPG_1,PPG_2,161522.0,161522.0,-74.07899046794046,10.608400268144363,0.06902837144399102
63861.88918296393,5.4336933375452645,PPG_1,PPG_2,161535.0,161535.0,-60.94540251602302,12.120980855431833,0.0788284276907578
63861.89928276568,5.4437931392894825,PPG_1,PPG_2,161551.0,161551.0,-44.811814564076485,13.709660970807631,0.08912153512559745
63861.90938256742,5.4538929410337005,PPG_1,PPG_2,161501.0,161501.0,-94.67822661215905,15.425484688696493,0.1002384098800211
63861.919482369165,5.4639927427779185,PPG_1,PPG_2,161542.0,161542.0,-53.54463866021251,17.328262679329455,0.11256656712997855
63861.9295821709,5.4740925445148605,PPG_1,PPG_2,161522.0,161522.0,-73.41105070829508,19.47786871221105,0.12649393087355748
63861.939681972646,5.4841923462590785,PPG_1,PPG_2,161551.0,161551.0,-44.27746275634854,21.924411562006604,0.14234515740629947
63861.94978177439,5.4942921480032965,PPG_1,PPG_2,161542.0,161542.0,-53.143874804402,24.698559030519412,0.16031894436135066
63861.959881576135,5.5043919497475144,PPG_1,PPG_2,161531.0,161531.0,-64.01028685248457,27.80115752567409,0.18042077564174325
63861.96998137787,5.5144917514844565,PPG_1,PPG_2,161514.0,161514.0,-80.87669890053803,31.191895398809823,0.20238947083329226
63861.980081179616,5.5245915532286745,PPG_1,PPG_2,161526.0,161526.0,-68.7431109486206,34.78000153085344,0.2256369210577168
63861.99018098136,5.534691354972892,PPG_1,PPG_2,161550.0,161550.0,-44.60952299667406,38.42255080639358,0.24923711008693686
63862.000280783104,5.54479115671711,PPG_1,PPG_2,161576.0,161576.0,-18.475935044756625,41.934108650644646,0.2719886015953329
63862.01038058485,5.554890958461328,PPG_1,PPG_2,161571.0,161571.0,-23.342347092810087,45.10561642189714,0.29253689819952927
63862.020480386585,5.56499076019827,PPG_1,PPG_2,161587.0,161587.0,-7.208759140892653,47.725501173307485,0.309511212255689
63862.03058018833,5.575090561942488,PPG_1,PPG_2,161543.0,161543.0,-51.075171188946115,49.59590668564275,0.32162962722095034
63862.040679990074,5.585190363686706,PPG_1,PPG_2,161556.0,161556.0,-37.94158323699958,50.541262742506945,0.32775461825174557
63862.05077979182,5.595290165430924,PPG_1,PPG_2,161544.0,161544.0,-49.80799528508214,50.41188581369853,0.326916381142257
63862.06087959356,5.605389967175142,PPG_1,PPG_2,161560.0,161560.0,-33.674407333135605,49.0881335546578,0.318339749454389
63862.0709793953,5.615489768912084,PPG_1,PPG_2,161586.0,161586.0,-7.540819381218171,46.488845442580605,0.30149888165931155
63862.08107919704,5.625589570656302,PPG_1,PPG_2,161556.0,161556.0,-37.40723142927163,42.58303299785635,0.27619300244248096
63862.09117899879,5.63568937240052,PPG_1,PPG_2,161547.0,161547.0,-46.2736434773542,37.40022057717565,0.24261340102091433
63862.10127880053,5.645789174144738,PPG_1,PPG_2,161532.0,161532.0,-61.14005552540766,31.035866750201517,0.20137855640974373
63862.11137860227,5.65588897588168,PPG_1,PPG_2,161568.0,161568.0,-25.006467573461123,23.652197251262056,0.1535395341419068
63862.12147840401,5.665988777625898,PPG_1,PPG_2,161556.0,161556.0,-36.87287962154369,15.475732134123557,0.10056396462770212
63862.13157820576,5.676088579370116,PPG_1,PPG_2,161508.0,161508.0,-84.73929166959715,6.789530790429184,0.044285798390224236
63862.1416780075,5.686188381114334,PPG_1,PPG_2,161497.0,161497.0,-95.60570371767972,-2.083023873287929,-0.013199756751582815
63862.151777809246,5.696288182858552,PPG_1,PPG_2,161514.0,161514.0,-78.47211576573318,-10.801652148617514,-0.06968801807860897
63862.16187761098,5.706387984595494,PPG_1,PPG_2,161484.0,161484.0,-108.33852781381574,-19.03435708735498,-0.12302796713041332
63862.17197741273,5.716487786339712,PPG_1,PPG_2,161467.0,161467.0,-125.2049398618692,-26.479921184104484,-0.17126800640521658
63862.18207721447,5.72658758808393,PPG_1,PPG_2,161496.0,161496.0,-96.07135190992267,-32.88573868194439,-0.21277149541794643
63862.192177016215,5.736687389828148,PPG_1,PPG_2,161485.0,161485.0,-106.93776395800523,-38.05984247897594,-0.24629467339846742
63862.20227681796,5.746787191572366,PPG_1,PPG_2,161455.0,161455.0,-136.8041760060587,-41.87753936450784,-0.2710296491913364
63862.2123766197,5.756886993309308,PPG_1,PPG_2,161468.0,161468.0,-123.67058805414126,-44.28443643183845,-0.28662400947750016
63862.22247642144,5.766986795053526,PPG_1,PPG_2,161475.0,161475.0,-116.53700010219472,-45.29612396487491,-0.2931787641869269
63862.232576223185,5.777086596797744,PPG_1,PPG_2,161473.0,161473.0,-118.40341215027729,-44.99336009378349,-0.2912171477341429
63862.24267602493,5.787186398541962,PPG_1,PPG_2,161464.0,161464.0,-127.26982419833075,-43.5130566892665,-0.28162621634941415
63862.252775826666,5.797286200278904,PPG_1,PPG_2,161476.0,161476.0,-115.13623624641332,-41.03668329015972,-0.2655817167682284
63862.26287562841,5.807386002023122,PPG_1,PPG_2,161491.0,161491.0,-100.00264829446678,-37.77701942649804,-0.2444622541241092
63862.272975430154,5.81748580376734,PPG_1,PPG_2,161469.0,161469.0,-121.86906034252024,-33.96383948897087,-0.21975654377658718
63862.2830752319,5.827585605511558,PPG_1,PPG_2,161505.0,161505.0,-85.73547239060281,-29.82979997927595,-0.19297197437125033
63862.29317503364,5.837685407255776,PPG_1,PPG_2,161495.0,161495.0,-95.60188443865627,-25.597966126586872,-0.1655537924033742
63862.30327483538,5.847785208992718,PPG_1,PPG_2,161489.0,161489.0,-101.46829648673884,-21.47220369935382,-0.13882285047042933
63862.31337463712,5.857885010736936,PPG_1,PPG_2,161491.0,161491.0,-99.3347085347923,-17.63119975481397,-0.11393686752386274
63862.32347443887,5.867984812481154,PPG_1,PPG_2,161488.0,161488.0,-102.20112058287486,-14.225158686124422,-0.09186902245663564
63862.33357424061,5.878084614225372,PPG_1,PPG_2,161512.0,161512.0,-78.06753263092833,-11.372537502667008,-0.07338680188369104
63862.34367404236,5.88818441596959,PPG_1,PPG_2,161500.0,161500.0,-89.93394467898179,-9.154837911679017,-0.059018257878317326
63862.353773844094,5.898284217706532,PPG_1,PPG_2,161541.0,161541.0,-48.800356727064354,-7.609983477595274,-0.04900909838339222
63862.36387364584,5.90838401945075,PPG_1,PPG_2,161518.0,161518.0,-71.66676877511782,-6.727280194415483,-0.04329003660442229
63862.37397344758,5.918483821194968,PPG_1,PPG_2,161511.0,161511.0,-78.53318082320038,-6.448054490286842,-0.04148092466089866
63862.384073249326,5.928583622939186,PPG_1,PPG_2,161471.0,161471.0,-118.39959287125384,-6.67420005681323,-0.04294612875682716
63862.39417305106,5.938683424676128,PPG_1,PPG_2,161498.0,161498.0,-91.26600491933641,-7.281815083210035,-0.046882885241153034
63862.40427285281,5.948783226420346,PPG_1,PPG_2,161548.0,161548.0,-41.13241696738987,-8.13340073104386,-0.0524003349015887
63862.41437265455,5.958883028164564,PPG_1,PPG_2,161512.0,161512.0,-76.99882901547244,-9.085188020007259,-0.058566994083382264
63862.424472456296,5.968982829908782,PPG_1,PPG_2,161492.0,161492.0,-96.8652410635259,-9.99305614980754,-0.06444909967925344
63862.43457225804,5.979082631653,PPG_1,PPG_2,161519.0,161519.0,-69.73165311157936,-10.72193494391001,-0.06917152785221413
63862.44467205978,5.989182433389942,PPG_1,PPG_2,161476.0,161476.0,-112.59806515966193,-11.158540874638533,-0.0720003111347529
63862.45477186152,5.99928223513416,PPG_1,PPG_2,161505.0,161505.0,-83.46447720771539,-11.223461816835224,-0.07242093592028029
63862.464871663266,6.009382036878378,PPG_1,PPG_2,161482.0,161482.0,-106.33088925579796,-10.878677018752327,-0.0701870645863225
63862.47497146501,6.019481838622596,PPG_1,PPG_2,161533.0,161533.0,-55.19730130385142,-10.128068154633173,-0.06532384661994553
63862.485071266754,6.029581640366814,PPG_1,PPG_2,161521.0,161521.0,-67.06371335193398,-9.01120853626089,-0.05808767872794633
63862.49517106849,6.039681442103756,PPG_1,PPG_2,161477.0,161477.0,-110.93012539998745,-7.594098621610088,-0.04890617991185096
63862.505270870235,6.049781243847974,PPG_1,PPG_2,161520.0,161520.0,-67.79653744804091,-5.960549720757304,-0.038322366232931365
63862.51537067198,6.059881045592192,PPG_1,PPG_2,161523.0,161523.0,-64.66294949612347,-4.204227851350134,-0.02694310270656054
63862.52547047372,6.06998084733641,PPG_1,PPG_2,161493.0,161493.0,-94.52936154417694,-2.4197285603470315,-0.015381276797167068
63862.53557027546,6.080080649073352,PPG_1,PPG_2,161535.0,161535.0,-52.3957735922595,-0.6930175012800461,-0.0041938626236737294
63862.545670077205,6.09018045081757,PPG_1,PPG_2,161518.0,161518.0,-69.26218564031296,0.9073240911399203,0.006174799880372629
63862.55576987895,6.100280252561788,PPG_1,PPG_2,161523.0,161523.0,-64.12859768839553,2.3368546517065267,0.015436772444193631
63862.56586968069,6.110380054306006,PPG_1,PPG_2,161495.0,161495.0,-91.99500973644899,3.5788471802011292,0.023483680317802333
63862.57596948244,6.120479856050224,PPG_1,PPG_2,161542.0,161542.0,-44.861421784502454,4.644751998559145,0.030389710489947486
63862.586069284174,6.130579657787166,PPG_1,PPG_2,161517.0,161517.0,-69.72783383258502,5.57311489607141,0.036404602317527505
63862.59616908592,6.140679459531384,PPG_1,PPG_2,161527.0,161527.0,-59.59424588063848,6.427449724328593,0.041939864002663106
63862.60626888766,6.150779261275602,PPG_1,PPG_2,161527.0,161527.0,-59.46065792872105,7.29174922727988,0.04753968712227942
63862.61636868941,6.16087906301982,PPG_1,PPG_2,161527.0,161527.0,-59.32706997677451,8.262583142285855,0.05382974998127019
63862.62646849115,6.170978864764038,PPG_1,PPG_2,161506.0,161506.0,-80.19348202485708,9.438054525279954,0.06144566530282362
63862.63656829289,6.18107866650098,PPG_1,PPG_2,161509.0,161509.0,-77.05989407291054,10.905245216639232,0.0709516390148351
63862.64666809463,6.191178468245198,PPG_1,PPG_2,161512.0,161512.0,-73.9263061209931,12.729539779454347,0.08277129971689406
63862.65676789638,6.201278269989416,PPG_1,PPG_2,161548.0,161548.0,-37.792718169046566,14.949680954664135,0.09715566282169687
63862.66686769812,6.211378071733634,PPG_1,PPG_2,161557.0,161557.0,-28.659130217100028,17.579361991491968,0.1141934473130239
63862.67696749986,6.221477873470576,PPG_1,PPG_2,161506.0,161506.0,-79.5255422651826,20.61150782271073,0.1338388136122384
63862.6870673016,6.231577675214794,PPG_1,PPG_2,161510.0,161510.0,-75.39195431323606,24.020827445701073,0.15592790053383404
63862.697167103346,6.241677476959012,PPG_1,PPG_2,161582.0,161582.0,-3.258366361318622,27.765181991104775,0.1801876890444076
63862.70726690509,6.25177727870323,PPG_1,PPG_2,161567.0,161567.0,-18.124778409372084,31.788922182893852,0.20625762576931603
63862.717366706835,6.261877080447448,PPG_1,PPG_2,161534.0,161534.0,-50.99119045745465,36.02658303689553,0.23371356105830007
63862.72746650857,6.27197688218439,PPG_1,PPG_2,161589.0,161589.0,4.142397494491888,40.40131704774789,0.26205759755547664
63862.73756631032,6.282076683928608,PPG_1,PPG_2,161517.0,161517.0,-67.72401455356157,44.81573799894529,0.2906587669624051
63862.74766611206,6.292176485672826,PPG_1,PPG_2,161551.0,161551.0,-33.59042660164414,49.138178459008806,0.3186639919321953
63862.75776591381,6.302276287417044,PPG_1,PPG_2,161531.0,161531.0,-53.4568386496976,53.190264810056576,0.3449175842966444
63862.76786571555,6.312376089161262,PPG_1,PPG_2,161578.0,161578.0,-6.323250697780168,56.74240829795323,0.36793203144117703
63862.777965517285,6.322475890898204,PPG_1,PPG_2,161555.0,161555.0,-29.18966274583363,59.52114217338678,0.38593553386803287
63862.78806531903,6.332575692642422,PPG_1,PPG_2,161561.0,161561.0,-23.056074793916196,61.227443426969046,0.39699071228270655
63862.798165120774,6.34267549438664,PPG_1,PPG_2,161568.0,161568.0,-15.922486841969658,61.562829267821634,0.39916368748306846
63862.80826492252,6.352775296130858,PPG_1,PPG_2,161593.0,161593.0,9.21110110997688,60.260502226823846,0.3907258704432825
63862.818364724255,6.3628750978678,PPG_1,PPG_2,161557.0,161557.0,-26.655310938105686,57.11844474241939,0.3703683831553103
63862.828464526,6.372974899612018,PPG_1,PPG_2,161570.0,161570.0,-13.521722986159148,52.029966360153466,0.33739997487625734
63862.83856432774,6.383074701356236,PPG_1,PPG_2,161574.0,161574.0,-9.388135034241714,45.007717984993285,0.29190261120934063
63862.84866412949,6.393174503100454,PPG_1,PPG_2,161572.0,161572.0,-11.254547082295176,36.19858242920577,0.23482795042255397
63862.85876393123,6.403274304844672,PPG_1,PPG_2,161548.0,161548.0,-35.12095913037774,25.886367016655715,0.16801478891490915
63862.86886373297,6.413374106581614,PPG_1,PPG_2,161522.0,161522.0,-60.987371178431204,14.4789002285964,0.09410545998679783
63862.87896353471,6.423473908325832,PPG_1,PPG_2,161526.0,161526.0,-56.85378322651377,2.4788929120072964,0.01635704271067689
63862.88906333646,6.43357371007005,PPG_1,PPG_2,161468.0,161468.0,-114.72019527456723,-9.55811061175276,-0.06163107413202552
63862.8991631382,6.443673511814268,PPG_1,PPG_2,161463.0,161463.0,-119.5866073226207,-21.07278625374529,-0.13623501252923037
63862.909262939946,6.453773313558486,PPG_1,PPG_2,161457.0,161457.0,-125.45301937070326,-31.550548974513905,-0.2041207601494288
63862.91936274168,6.463873115295428,PPG_1,PPG_2,161472.0,161472.0,-110.31943141875672,-40.56193558257385,-0.2625058117378005
63862.92946254343,6.473972917039646,PPG_1,PPG_2,161422.0,161422.0,-160.1858434668393,-47.79053858566887,-0.30934015339950205
63862.93956234517,6.484072718783864,PPG_1,PPG_2,161451.0,161451.0,-131.05225551489275,-53.04813411420528,-0.34340427688187886
63862.949662146915,6.494172520528082,PPG_1,PPG_2,161450.0,161450.0,-131.91866756297532,-56.27764819915971,-0.3643283981804579
63862.95976194865,6.504272322265024,PPG_1,PPG_2,161441.0,161441.0,-140.78507961102878,-57.54475087527075,-0.37253799547443467
63862.9698617504,6.514372124009242,PPG_1,PPG_2,161443.0,161443.0,-138.65149165908224,-57.020482522629905,-0.3691412446583384
63862.97996155214,6.52447192575346,PPG_1,PPG_2,161426.0,161426.0,-155.5179037071648,-54.95788085159186,-0.3557775848568482
63862.990061353885,6.534571727497678,PPG_1,PPG_2,161493.0,161493.0,-88.38431575521827,-51.66417062584777,-0.33443753478339816
63863.00016115563,6.544671529241896,PPG_1,PPG_2,161460.0,161460.0,-121.25072780330083,-47.47032051073334,-0.30726545062202737
63863.010260957366,6.554771330978838,PPG_1,PPG_2,161465.0,161465.0,-116.1171398513543,-42.702606700786944,-0.2763752858938445
63863.02036075911,6.564871132723056,PPG_1,PPG_2,161439.0,161439.0,-141.98355189943686,-37.66132724274105,-0.2437126808996088
63863.030460560854,6.574970934467274,PPG_1,PPG_2,161491.0,161491.0,-89.84996394749032,-32.60752803607114,-0.21096896006814625
63863.0405603626,6.585070736211492,PPG_1,PPG_2,161471.0,161471.0,-109.71637599557289,-27.754971453237832,-0.17952909639935064
63863.05066016434,6.59517053795571,PPG_1,PPG_2,161480.0,161480.0,-100.58278804362635,-23.265929943024442,-0.15044445809055473
63863.06075996608,6.605270339692652,PPG_1,PPG_2,161481.0,161481.0,-99.44920009167981,-19.25192954132101,-0.12443762576581728
63863.070859767824,6.61537014143687,PPG_1,PPG_2,161469.0,161469.0,-111.31561213976238,-15.7800480878143,-0.10194319881598513
63863.08095956957,6.625469943181088,PPG_1,PPG_2,161478.0,161478.0,-102.18202418781584,-12.883174046729776,-0.08317426261448443
63863.09105937131,6.635569744925306,PPG_1,PPG_2,161468.0,161468.0,-112.04843623589841,-10.571228317480513,-0.06819509497440088
63863.10115917305,6.645669546662248,PPG_1,PPG_2,161486.0,161486.0,-93.91484828395187,-8.840196992974267,-0.05697968966796458
63863.11125897479,6.655769348406466,PPG_1,PPG_2,161480.0,161480.0,-99.78126033203444,-7.676871961869642,-0.04944247093468571
63863.12135877654,6.665869150150684,PPG_1,PPG_2,161496.0,161496.0,-83.6476723800879,-7.059092281411146,-0.04543985734339265
63863.13145857828,6.675968951894902,PPG_1,PPG_2,161480.0,161480.0,-99.51408442814136,-6.9530128567286855,-0.04475256548122676
63863.141558380026,6.68606875363912,PPG_1,PPG_2,161491.0,161491.0,-88.38049647622393,-7.309536614221632,-0.04706249389502802
63863.15165818176,6.696168555376062,PPG_1,PPG_2,161475.0,161475.0,-104.24690852427739,-8.06138748425225,-0.05193375885598727
63863.16175798351,6.70626835712028,PPG_1,PPG_2,161489.0,161489.0,-90.11332057235995,-9.121211887165387,-0.05880039382905058
63863.17185778525,6.716368158864498,PPG_1,PPG_2,161502.0,161502.0,-76.97973262041342,-10.380798305184491,-0.0669612930551787
63863.18195758699,6.726467960608716,PPG_1,PPG_2,161474.0,161474.0,-104.84614466849598,-11.712543379814251,-0.07558971044160775
63863.19205738874,6.736567762352934,PPG_1,PPG_2,161471.0,161471.0,-107.71255671654944,-12.975136970435962,-0.08377009323171718
63863.20215719048,6.746667564089876,PPG_1,PPG_2,161477.0,161477.0,-101.5789687646029,-14.023895160853074,-0.09056502987292882
63863.21225699222,6.756767365834094,PPG_1,PPG_2,161471.0,161471.0,-107.44538081268547,-14.723606488513086,-0.09509848113179041
63863.222356793965,6.766867167578312,PPG_1,PPG_2,161452.0,161452.0,-126.31179286073893,-14.96121104682782,-0.09663792838871202
63863.23245659571,6.77696696932253,PPG_1,PPG_2,161476.0,161476.0,-102.1782049088215,-14.656338546333657,-0.09466265006103414
63863.24255639745,6.787066771059472,PPG_1,PPG_2,161475.0,161475.0,-103.04461695687496,-13.768019302894517,-0.08890720230244514
63863.25265619919,6.79716657280369,PPG_1,PPG_2,161460.0,161460.0,-117.91102900495753,-12.296887249196832,-0.0793756923823599
63863.262756000935,6.807266374547908,PPG_1,PPG_2,161453.0,161453.0,-124.77744105301099,-10.283462683460163,-0.06633065256188567
63863.27285580268,6.817366176292126,PPG_1,PPG_2,161497.0,161497.0,-80.64385310109355,-7.802483168616049,-0.05025630981486505
63863.28295560442,6.827465978036344,PPG_1,PPG_2,161491.0,161491.0,-86.51026514914702,-4.952829982729114,-0.031793318989661104
63863.29305540616,6.837565779773286,PPG_1,PPG_2,161466.0,161466.0,-111.37667719720048,-1.8450836705356273,-0.011658134844004756
63863.303155207905,6.847665581517504,PPG_1,PPG_2,161473.0,161473.0,-104.24308924528304,1.409637493910992,0.009429303899553031
63863.31325500965,6.857765383261722,PPG_1,PPG_2,161516.0,161516.0,-61.10950129333651,4.7084701612718325,0.03080254243012516
63863.32335481139,6.86786518500594,PPG_1,PPG_2,161486.0,161486.0,-90.97591334141907,7.964130819007407,0.05189606817965975
63863.33345461314,6.8779649867501575,PPG_1,PPG_2,161502.0,161502.0,-74.84232538947253,11.109590078057948,0.07227559567041565
63863.343554414874,6.8880647884871,PPG_1,PPG_2,161462.0,161462.0,-114.7087374375551,14.097657779681752,0.09163537840937996
63863.35365421662,6.898164590231318,PPG_1,PPG_2,161490.0,161490.0,-86.57514948560856,16.89616993980084,0.10976702495233244
63863.36375401836,6.9082643919755355,PPG_1,PPG_2,161497.0,161497.0,-79.44156153366202,19.483005476322347,0.12652721212656323
63863.37385382011,6.9183641937197535,PPG_1,PPG_2,161479.0,161479.0,-97.30797358174459,21.844739428219107,0.14182895919578453
63863.38395362184,6.928463995456696,PPG_1,PPG_2,161514.0,161514.0,-62.17438562979805,23.97965627705903,0.15566115126319802
63863.39405342359,6.9385637972009135,PPG_1,PPG_2,161513.0,161513.0,-63.04079767788062,25.903539082639597,0.16812604725970717
63863.40415322533,6.9486635989451315,PPG_1,PPG_2,161511.0,161511.0,-64.90720972593408,27.65532796781702,0.17947594144153492
63863.41425302708,6.9587634006893495,PPG_1,PPG_2,161493.0,161493.0,-82.77362177401665,29.299029504833904,0.1901255343630928
63863.42435282882,6.9688632024335675,PPG_1,PPG_2,161528.0,161528.0,-47.64003382207011,30.919701534233248,0.20062591839496632
63863.43445263056,6.9789630041705095,PPG_1,PPG_2,161504.0,161504.0,-71.50644587015267,32.61376169434257,0.21160178638772598
63863.4445524323,6.9890628059147275,PPG_1,PPG_2,161485.0,161485.0,-90.37285791820614,34.47458565084076,0.22365812215739
63863.454652234046,6.9991626076589455,PPG_1,PPG_2,161508.0,161508.0,-67.2392699662596,36.57492710206994,0.2372662991579784
63863.46475203579,7.0092624094031635,PPG_1,PPG_2,161527.0,161527.0,-48.105682014342165,38.949327886390044,0.25265011502489576
63863.474851837535,7.0193622111473815,PPG_1,PPG_2,161469.0,161469.0,-105.97209406239563,41.5793912208818,0.2696903764345708
63863.48495163927,7.0294620128843235,PPG_1,PPG_2,161489.0,161489.0,-85.83850611047819,44.38328596083624,0.28785689687818183
63863.495051441016,7.0395618146285415,PPG_1,PPG_2,161516.0,161516.0,-58.704918158531655,47.21220100182637,0.306185524623395
63863.50515124276,7.0496616163727595,PPG_1,PPG_2,161542.0,161542.0,-32.57133020661422,49.85741833110509,0.3233239692323809
63863.515251044504,7.059761418116977,PPG_1,PPG_2,161502.0,161502.0,-72.43774225466768,52.06716850880479,0.33764100874403785
63863.52535084624,7.0698612198539195,PPG_1,PPG_2,161511.0,161511.0,-63.304154302721145,53.56765962377289,0.3473627369270179
63863.535450647985,7.0799610215981374,PPG_1,PPG_2,161525.0,161525.0,-49.17056635080371,54.08425844734928,0.3507097966279104
63863.54555044973,7.090060823342355,PPG_1,PPG_2,161514.0,161514.0,-60.03697839885717,53.36276850356763,0.34603524104392225
63863.555650251474,7.100160625086573,PPG_1,PPG_2,161509.0,161509.0,-64.90339044693974,51.19104158333763,0.33196455538938874
63863.56575005322,7.110260426830791,PPG_1,PPG_2,161499.0,161499.0,-74.7698024949932,47.41974490216661,0.3075302079507509
63863.575849854955,7.120360228567733,PPG_1,PPG_2,161511.0,161511.0,-62.636214543075766,41.98144566381097,0.2722952995626894
63863.5859496567,7.130460030311951,PPG_1,PPG_2,161501.0,161501.0,-72.50262659112923,34.9076561659505,0.22646399937316386
63863.59604945844,7.140559832056169,PPG_1,PPG_2,161526.0,161526.0,-47.36903863918269,26.341950037738055,0.1709665253507744
63863.60614926019,7.150659633800387,PPG_1,PPG_2,161497.0,161497.0,-76.23545068726526,16.544692399844532,0.10748979113748884
63863.61624906193,7.160759435544605,PPG_1,PPG_2,161458.0,161458.0,-115.10186273531872,5.883912569297895,0.03841827002196759
63863.62634886367,7.170859237281547,PPG_1,PPG_2,161447.0,161447.0,-125.96827478340128,-5.190211797105403,-0.03333132308173997
63863.63644866541,7.180959039025765,PPG_1,PPG_2,161411.0,161411.0,-161.83468683145475,-16.183656736923513,-0.10455819169384897
63863.64654846716,7.191058840769983,PPG_1,PPG_2,161441.0,161441.0,-131.7010988795373,-26.601534747960955,-0.1720559444338941
63863.6566482689,7.201158642514201,PPG_1,PPG_2,161412.0,161412.0,-160.56751092759077,-35.98837529991545,-0.2328735736972414
63863.66674807064,7.211258444251143,PPG_1,PPG_2,161374.0,161374.0,-198.43392297567334,-43.96226185303476,-0.28453663045115907
63863.67684787238,7.221358245995361,PPG_1,PPG_2,161391.0,161391.0,-181.3003350237268,-50.24132979062269,-0.32521890515625995
63863.68694767413,7.231458047739579,PPG_1,PPG_2,161409.0,161409.0,-163.16674707178026,-54.659921418317964,-0.3538470965047694
63863.69704747587,7.241557849483797,PPG_1,PPG_2,161411.0,161411.0,-161.03315911986283,-57.172503466263706,-0.37012619303782907
63863.707147277615,7.251657651228015,PPG_1,PPG_2,161351.0,161351.0,-220.8995711679163,-57.84785011627186,-0.3745017847992005
63863.71724707935,7.261757452964957,PPG_1,PPG_2,161395.0,161395.0,-176.76598321599886,-56.857408391360465,-0.368084682335468
63863.727346881096,7.271857254709175,PPG_1,PPG_2,161404.0,161404.0,-167.63239526405232,-54.45807369308025,-0.35253931887147394
63863.73744668284,7.281957056453393,PPG_1,PPG_2,161413.0,161413.0,-158.4988073121349,-50.96821040666187,-0.32992838707195943
63863.747546484585,7.292056858197611,PPG_1,PPG_2,161378.0,161378.0,-193.36521936018835,-46.73944215986188,-0.3025300672591288
63863.75764628633,7.302156659941829,PPG_1,PPG_2,161433.0,161433.0,-138.2316314082418,-42.1287799725964,-0.2726574448350417
63863.767746088066,7.312256461678771,PPG_1,PPG_2,161401.0,161401.0,-170.09804345632438,-37.473496800490665,-0.24249572167483788
63863.77784588981,7.322356263422989,PPG_1,PPG_2,161426.0,161426.0,-144.96445550437784,-33.06968321644939,-0.21396327772666104
63863.787945691554,7.332456065167207,PPG_1,PPG_2,161421.0,161421.0,-149.8308675524604,-29.155991743288936,-0.1886063500417398
63863.7980454933,7.342555866911425,PPG_1,PPG_2,161413.0,161413.0,-157.69727960051387,-25.903936988638907,-0.16753618704943996
63863.80814529504,7.352655668648367,PPG_1,PPG_2,161414.0,161414.0,-156.56369164859643,-23.414786506337954,-0.15140890435241566
63863.81824509678,7.362755470392585,PPG_1,PPG_2,161426.0,161426.0,-144.4301036966499,-21.721628251867163,-0.14043887983408718
63863.82834489853,7.372855272136803,PPG_1,PPG_2,161422.0,161422.0,-148.29651574473246,-20.794702555612783,-0.13443329967775533
63863.83844470027,7.382955073881021,PPG_1,PPG_2,161428.0,161428.0,-142.16292779278592,-20.549179048844007,-0.13284254530971706
63863.84854450201,7.393054875625239,PPG_1,PPG_2,161412.0,161412.0,-158.02933984083938,-20.855837123917674,-0.1348293924301317
63863.85864430375,7.403154677362181,PPG_1,PPG_2,161428.0,161428.0,-141.89575188892195,-21.55493050329487,-0.13935883998302212
63863.86874410549,7.413254479106399,PPG_1,PPG_2,161393.0,161393.0,-176.7621639369754,-22.472380630883148,-0.14530302763790423
63863.87884390724,7.423354280850617,PPG_1,PPG_2,161408.0,161408.0,-161.62857598505798,-23.43630022194764,-0.1515482923789604
63863.88894370898,7.433454082594835,PPG_1,PPG_2,161411.0,161411.0,-158.49498803311144,-24.29096816640022,-0.1570857123341935
63863.899043510726,7.443553884339053,PPG_1,PPG_2,161418.0,161418.0,-151.361400081194,-24.905820417081312,-0.16106935901772765
63863.90914331246,7.453653686075995,PPG_1,PPG_2,161416.0,161416.0,-153.22781212924747,-25.179445335823296,-0.1628421833001001
63863.91924311421,7.463753487820213,PPG_1,PPG_2,161399.0,161399.0,-170.09422417730093,-25.04078666306675,-0.1619438094854837
63863.92934291595,7.473853289564431,PPG_1,PPG_2,161400.0,161400.0,-168.9606362253835,-24.449246605510886,-0.1581112032197513
63863.939442717696,7.483953091308649,PPG_1,PPG_2,161419.0,161419.0,-149.82704827343696,-23.393095912248455,-0.15126837032474835
63863.94954251943,7.494052893045591,PPG_1,PPG_2,161415.0,161415.0,-153.69346032151952,-21.88483633825805,-0.1414963100563183
63863.95964232118,7.504152694789809,PPG_1,PPG_2,161426.0,161426.0,-142.559872369573,-19.95410940455294,-0.12898707074273613
63863.96974212292,7.514252496534027,PPG_1,PPG_2,161403.0,161403.0,-165.42628441765555,-17.640744789441946,-0.11399871009742059
63863.979841924665,7.524352298278245,PPG_1,PPG_2,161442.0,161442.0,-126.29269646570901,-14.990138550229746,-0.09682535057487521
63863.98994172641,7.534452100022463,PPG_1,PPG_2,161413.0,161413.0,-155.15910851376248,-12.051659384920569,-0.07778685349114312
63864.00004152815,7.544551901759405,PPG_1,PPG_2,161390.0,161390.0,-178.02552056184504,-8.879962247747843,-0.05723732997931282
63864.01014132989,7.554651703503623,PPG_1,PPG_2,161443.0,161443.0,-124.8919326098985,-5.537738678267523,-0.035582960456486304
63864.020241131635,7.564751505247841,PPG_1,PPG_2,161427.0,161427.0,-140.75834465798107,-2.0969243638856208,-0.013289818458615118
63864.03034093338,7.574851306992059,PPG_1,PPG_2,161417.0,161417.0,-150.62475670603453,1.3631625226162252,0.009128191128052793
63864.04044073512,7.584951108736277,PPG_1,PPG_2,161421.0,161421.0,-146.4911687541171,4.75973782862349,0.031134707227101554
63864.05054053686,7.595050910473219,PPG_1,PPG_2,161452.0,161452.0,-115.35758080217056,8.012077304024924,0.052206714933925626
63864.060640338605,7.605150712217437,PPG_1,PPG_2,161452.0,161452.0,-115.22399285025313,11.049116470521653,0.0718837853032316
63864.07074014035,7.615250513961655,PPG_1,PPG_2,161438.0,161438.0,-129.0904048983066,13.817338629080112,0.08981918199245487
63864.08083994209,7.625350315705873,PPG_1,PPG_2,161435.0,161435.0,-131.95681694636005,16.285482374045436,0.10581036139079844
63864.09093974383,7.635450117442815,PPG_1,PPG_2,161455.0,161455.0,-111.82322899444262,18.44483168087222,0.11980085210658172
63864.101039545574,7.645549919187033,PPG_1,PPG_2,161438.0,161438.0,-128.68964104249608,20.306626961811894,0.13186348111724094
63864.11113934732,7.655649720931251,PPG_1,PPG_2,161431.0,161431.0,-135.55605309057864,21.898266422753235,0.14217576224321457
63864.12123914906,7.665749522675469,PPG_1,PPG_2,161451.0,161451.0,-115.4224651386321,23.259482724406965,0.15099512461791306
63864.13133895081,7.675849324419687,PPG_1,PPG_2,161468.0,161468.0,-98.28887718671467,24.439804894074996,0.15864246833584095
63864.141438752544,7.685949126156629,PPG_1,PPG_2,161429.0,161429.0,-137.15528923476813,25.497276417994147,0.16549385893338028
63864.15153855429,7.696048927900847,PPG_1,PPG_2,161455.0,161455.0,-111.0217012828216,26.49664622838459,0.17196880673811873
63864.16163835603,7.706148729645065,PPG_1,PPG_2,161439.0,161439.0,-126.88811333090416,27.5062711240958,0.17851019755673928
63864.17173815778,7.716248531389283,PPG_1,PPG_2,161481.0,161481.0,-84.75452537895762,28.594846634600646,0.18556311184207439
63864.18183795952,7.726348333133501,PPG_1,PPG_2,161425.0,161425.0,-140.6209374270402,29.828275616471768,0.1935545362331584
63864.19193776126,7.736448134870443,PPG_1,PPG_2,161458.0,161458.0,-107.48734947509365,31.265509687358094,0.2028664200777834
63864.202037563,7.746547936614661,PPG_1,PPG_2,161448.0,161448.0,-117.35376152317622,32.95332537291973,0.21380182992747737
63864.212137364746,7.756647738358879,PPG_1,PPG_2,161467.0,161467.0,-98.22017357122968,34.92166075253173,0.22655473552128202
63864.22223716649,7.766747540103097,PPG_1,PPG_2,161437.0,161437.0,-128.08658561928314,37.180384521975455,0.24118907644334403
63864.23233696823,7.776847341840039,PPG_1,PPG_2,161476.0,161476.0,-88.95299766736571,39.717072343018984,0.2576243550233079
63864.24243676997,7.786947143584257,PPG_1,PPG_2,161489.0,161489.0,-75.81940971541917,42.49527025217588,0.2756243849081374
63864.252536571716,7.797046945328475,PPG_1,PPG_2,161448.0,161448.0,-116.68582176350174,45.451900978362914,0.29478048651427624
63864.26263637346,7.807146747072693,PPG_1,PPG_2,161453.0,161453.0,-111.5522338115552,48.491748008755806,0.31447574912031123
63864.2727361752,7.817246548816911,PPG_1,PPG_2,161466.0,161466.0,-98.41864585963776,51.47972905414131,0.3338349704108366
63864.28283597694,7.827346350553853,PPG_1,PPG_2,161456.0,161456.0,-108.28505790769123,54.23538198140735,0.35168893066309936
63864.292935778685,7.837446152298071,PPG_1,PPG_2,161440.0,161440.0,-124.15146995577379,56.5339517454758,0.36658143501249385
63864.30303558043,7.847545954042289,PPG_1,PPG_2,161480.0,161480.0,-84.01788200382725,58.116544563397994,0.376835102659505
63864.313135382174,7.857645755786507,PPG_1,PPG_2,161484.0,161484.0,-79.88429405188072,58.71037644358264,0.3806825577146893
63864.32323518392,7.867745557530725,PPG_1,PPG_2,161473.0,161473.0,-90.75070609996328,58.05721876592821,0.3764507289891204
63864.333334985655,7.877845359267667,PPG_1,PPG_2,161468.0,161468.0,-95.61711814801674,55.94483490907206,0.3627645288712961
63864.3434347874,7.887945161011885,PPG_1,PPG_2,161504.0,161504.0,-59.48353019609931,52.23623294680285,0.3387363824488401
63864.35353458914,7.898044962756103,PPG_1,PPG_2,161478.0,161478.0,-85.34994224415277,46.89304388511857,0.3041176958269793
63864.36363439089,7.908144764500321,PPG_1,PPG_2,161455.0,161455.0,-108.21635429223534,39.98897942012663,0.25938604935678305
63864.373734192624,7.918244566237263,PPG_1,PPG_2,161450.0,161450.0,-113.0827663402888,31.709915956833044,0.20574574199548737
63864.38383399437,7.928344367981481,PPG_1,PPG_2,161448.0,161448.0,-114.94917838834226,22.340902073915164,0.14504361227029333
63864.39393379611,7.938444169725699,PPG_1,PPG_2,161407.0,161407.0,-155.81559043642483,12.24346221553802,0.07962198819808501
63864.40403359786,7.948543971469917,PPG_1,PPG_2,161428.0,161428.0,-134.6820024844783,1.826767234470752,0.012131900345680745
63864.4141333996,7.958643773214135,PPG_1,PPG_2,161393.0,161393.0,-169.54841453256086,-8.484212905020781,-0.05467325778974353
63864.42423320134,7.968743574951077,PPG_1,PPG_2,161408.0,161408.0,-154.41482658061432,-18.28089974621453,-0.11814629379361778
63864.43433300308,7.978843376695295,PPG_1,PPG_2,161347.0,161347.0,-215.28123862869688,-27.201794934679953,-0.17594504868525185
63864.44443280483,7.988943178439513,PPG_1,PPG_2,161374.0,161374.0,-188.14765067675035,-34.959487792907716,-0.22620737982630612
63864.45453260657,7.999042980183731,PPG_1,PPG_2,161343.0,161343.0,-219.0140627248329,-41.36012539811252,-0.2676773081549952
63864.464632408315,8.009142781927949,PPG_1,PPG_2,161376.0,161376.0,-185.88047477288637,-46.31130904428128,-0.29975617960708795
63864.47473221005,8.01924258366489,PPG_1,PPG_2,161358.0,161358.0,-203.74688682093984,-49.817224315103005,-0.3224711127083163
63864.48483201179,8.029342385409109,PPG_1,PPG_2,161366.0,161366.0,-195.6132988690224,-51.96355711415163,-0.33637726906900167
63864.49493181354,8.039442187153327,PPG_1,PPG_2,161395.0,161395.0,-166.47971091707586,-52.89688034774437,-0.3424242990669378
63864.505031615285,8.049541988897545,PPG_1,PPG_2,161327.0,161327.0,-234.34612296515843,-52.803517921551396,-0.3418194010299568
63864.51513141702,8.059641790634487,PPG_1,PPG_2,161359.0,161359.0,-202.2125350132119,-51.89134720829152,-0.3359094188632339
63864.525231218766,8.069741592378705,PPG_1,PPG_2,161375.0,161375.0,-186.07894706129446,-50.3744333464225,-0.3260812871968903
63864.53533102051,8.079841394122923,PPG_1,PPG_2,161389.0,161389.0,-171.94535910934792,-48.45858233116755,-0.31366842941746176
63864.545430822254,8.08994119586714,PPG_1,PPG_2,161352.0,161352.0,-208.81177115740138,-46.32885980904078,-0.2998698915529257
63864.555530624,8.100040997611359,PPG_1,PPG_2,161340.0,161340.0,-220.67818320548395,-44.14239270644646,-0.2857037038025224
63864.565630425735,8.1101407993483,PPG_1,PPG_2,161373.0,161373.0,-187.5445952535374,-42.02618401563393,-0.2719927224676033
63864.57573022748,8.120240601092519,PPG_1,PPG_2,161387.0,161387.0,-173.41100730161997,-40.07556540111721,-0.2593546043409285
63864.585830029224,8.130340402836737,PPG_1,PPG_2,161364.0,161364.0,-196.27741934967344,-38.350907315235155,-0.24818049144397838
63864.59592983097,8.140440204580955,PPG_1,PPG_2,161397.0,161397.0,-163.143831397756,-36.874932944301335,-0.23861760800126725
63864.60602963271,8.150540006325173,PPG_1,PPG_2,161378.0,161378.0,-182.01024344580946,-35.63415331061484,-0.2305785585105049
63864.61612943445,8.160639808062115,PPG_1,PPG_2,161363.0,161363.0,-196.87665549386293,-34.58610104741454,-0.2237881955934895
63864.62622923619,8.170739609806333,PPG_1,PPG_2,161361.0,161361.0,-198.7430675419455,-33.67167735455075,-0.21786361630247011
63864.63632903794,8.18083941155055,PPG_1,PPG_2,161387.0,161387.0,-172.60947958999895,-32.82934293646251,-0.2124061056447034
63864.64642883968,8.190939213294769,PPG_1,PPG_2,161376.0,161376.0,-183.47589163808152,-32.00722725206698,-0.20707959278572666
63864.65652864142,8.20103901503171,PPG_1,PPG_2,161358.0,161358.0,-201.34230368613498,-31.171677444388045,-0.20166603982792147
63864.66662844316,8.211138816775929,PPG_1,PPG_2,161366.0,161366.0,-193.20871573421755,-30.31238429697865,-0.19609865304017018
63864.67672824491,8.221238618520147,PPG_1,PPG_2,161392.0,161392.0,-167.075127782271,-29.442923602231836,-0.1904653903998291
63864.68682804665,8.231338420264365,PPG_1,PPG_2,161383.0,161383.0,-175.94153983035358,-28.595340612037397,-0.1849738740816115
63864.6969278484,8.241438222008583,PPG_1,PPG_2,161365.0,161365.0,-193.80795187840704,-27.810123042880523,-0.17988642524856338
63864.70702765013,8.251538023745525,PPG_1,PPG_2,161394.0,161394.0,-164.6743639264605,-27.12438375613245,-0.17544349927342548
63864.71712745188,8.261637825489743,PPG_1,PPG_2,161403.0,161403.0,-155.54077597454307,-26.55982096468566,-0.17178567954632443
63864.72722725362,8.27173762723396,PPG_1,PPG_2,161382.0,161382.0,-176.40718802259653,-26.111928974508615,-0.1688837735367525
63864.737327055365,8.281837428978179,PPG_1,PPG_2,161411.0,161411.0,-147.2736000706791,-25.743538690125224,-0.1664969615294703
63864.74742685711,8.291937230722397,PPG_1,PPG_2,161372.0,161372.0,-186.14001211873256,-25.38557731260235,-0.16417771873118392
63864.75752665885,8.302037032459339,PPG_1,PPG_2,161410.0,161410.0,-148.00642416681512,-24.94575785401241,-0.1613281149025816
63864.76762646059,8.312136834203557,PPG_1,PPG_2,161369.0,161369.0,-188.87283621486858,-24.324089841545593,-0.15730030868835793
63864.777726262335,8.322236635947775,PPG_1,PPG_2,161354.0,161354.0,-203.73924826292205,-23.432806473214217,-0.15152565627322997
63864.78782606408,8.332336437691993,PPG_1,PPG_2,161361.0,161361.0,-196.6056603110046,-22.216079354746896,-0.14364244376993474
63864.797925865816,8.342436239428935,PPG_1,PPG_2,161374.0,161374.0,-183.47207235905807,-20.662536508858008,-0.1335769917871243
63864.80802566756,8.352536041173153,PPG_1,PPG_2,161402.0,161402.0,-155.33848440714064,-18.804819964072664,-0.1215407890337264
63864.818125469305,8.36263584291737,PPG_1,PPG_2,161395.0,161395.0,-162.2048964551941,-16.706076545470744,-0.10794296573578567
63864.82822527105,8.372735644661589,PPG_1,PPG_2,161428.0,161428.0,-129.07130850327667,-14.43896894468286,-0.09325430571203301
63864.83832507279,8.382835446405807,PPG_1,PPG_2,161397.0,161397.0,-159.93772055133013,-12.06480060253102,-0.07787199584508829
63864.84842487453,8.392935248142749,PPG_1,PPG_2,161393.0,161393.0,-163.8041325994127,-9.618658933166126,-0.06202336857272201
63864.858524676274,8.403035049886967,PPG_1,PPG_2,161428.0,161428.0,-128.67054464746616,-7.102608099236596,-0.04572179766835625
63864.86862447802,8.413134851631185,PPG_1,PPG_2,161427.0,161427.0,-129.53695669551962,-4.486040149548502,-0.02876897327278759
63864.87872427976,8.423234653375403,PPG_1,PPG_2,161407.0,161407.0,-149.4033687436022,-1.7130447651711687,-0.010802650706360401
63864.88882408151,8.43333445511962,PPG_1,PPG_2,161389.0,161389.0,-167.26978079165565,1.2821045841570842,0.008603014246356129
63864.89892388325,8.443434256856563,PPG_1,PPG_2,161382.0,161382.0,-174.13619283973821,4.5534118835263895,0.029797915069306517
63864.90902368499,8.45353405860078,PPG_1,PPG_2,161389.0,161389.0,-167.00260488779168,8.122921827850778,0.05292488002031451
63864.91912348673,8.463633860344999,PPG_1,PPG_2,161435.0,161435.0,-120.86901693587424,11.970380381211466,0.07785268257637941
63864.92922328848,8.473733662089217,PPG_1,PPG_2,161427.0,161427.0,-128.7354289839277,16.036650377611693,0.10419817121624445
63864.93932309021,8.483833463826159,PPG_1,PPG_2,161442.0,161442.0,-113.60184103198117,20.23774349232641,0.13141718299527388
63864.94942289196,8.493933265570377,PPG_1,PPG_2,161435.0,161435.0,-120.46825308006373,24.482669019332626,0.15892018632457075
63864.9595226937,8.504033067314595,PPG_1,PPG_2,161458.0,161458.0,-97.3346651281172,28.68960246516333,0.18617703778891512
63864.969622495446,8.514132869058813,PPG_1,PPG_2,161428.0,161428.0,-127.20107717619976,32.79775344419506,0.21279387460613225
63864.97972229719,8.52423267080303,PPG_1,PPG_2,161450.0,161450.0,-105.06748922425322,36.774317555850864,0.23855815605376574
63864.98982209893,8.534332472539973,PPG_1,PPG_2,161477.0,161477.0,-77.93390127233579,40.61724559381006,0.2634566052609019
63864.99992190067,8.54443227428419,PPG_1,PPG_2,161469.0,161469.0,-85.80031332038925,44.3542372994224,0.28766868970552506
63865.010021702416,8.554532076028408,PPG_1,PPG_2,161474.0,161474.0,-80.66672536844271,48.03600836164255,0.31152299789956406
63865.02012150416,8.564631877772626,PPG_1,PPG_2,161456.0,161456.0,-98.53313741652528,51.72104235031,0.3353984466946271
63865.030221305904,8.574731679516844,PPG_1,PPG_2,161438.0,161438.0,-116.39954946457874,55.4521982400564,0.35957272070837953
63865.04032110764,8.584831481253786,PPG_1,PPG_2,161430.0,161430.0,-124.2659615126613,59.23056977446706,0.3840529063392227
63865.050420909385,8.594931282998004,PPG_1,PPG_2,161480.0,161480.0,-74.13237356071477,62.99528317572145,0.40844460050436665
63865.06052071113,8.605031084742222,PPG_1,PPG_2,161473.0,161473.0,-80.99878560879733,66.6164005632362,0.4319059316704828
63865.07062051287,8.61513088648644,PPG_1,PPG_2,161473.0,161473.0,-80.8651976568508,69.90200723602702,0.45319347857457565
63865.08072031461,8.625230688223382,PPG_1,PPG_2,161501.0,161501.0,-52.73160970493336,72.61533396065083,0.47077320605531403
63865.090820116355,8.6353304899676,PPG_1,PPG_2,161501.0,161501.0,-52.598021752986824,74.4968333979478,0.4829634989023463
63865.1009199181,8.645430291711818,PPG_1,PPG_2,161474.0,161474.0,-79.46443380104029,75.28685610196463,0.48808208035225903
63865.11101971984,8.655530093456036,PPG_1,PPG_2,161463.0,161463.0,-90.33084584912285,74.74587580398455,0.48457705232720355
63865.12111952159,8.665629895200254,PPG_1,PPG_2,161483.0,161483.0,-70.19725789717631,72.67272522709492,0.47114504583955574
63865.13121932333,8.675729696937196,PPG_1,PPG_2,161491.0,161491.0,-62.06366994525888,68.92407562700902,0.4468574295373113
63865.14131912507,8.685829498681414,PPG_1,PPG_2,161495.0,161495.0,-57.93008199331234,63.43609526909386,0.41130063564432023
63865.15141892681,8.695929300425632,PPG_1,PPG_2,161474.0,161474.0,-78.79649404139491,56.24429074097084,0.3647047124361885
63865.16151872856,8.70602910216985,PPG_1,PPG_2,161474.0,161474.0,-78.66290608944837,47.4957101458642,0.3080223891061172
63865.1716185303,8.716128903914068,PPG_1,PPG_2,161480.0,161480.0,-72.52931813750183,37.44974298065137,0.2429342581994449
63865.18171833204,8.72622870565101,PPG_1,PPG_2,161446.0,161446.0,-106.3957301855844,26.465944829267503,0.17176989142694085
63865.19181813378,8.736328507395228,PPG_1,PPG_2,161407.0,161407.0,-145.26214223363786,14.97841241073193,0.09734181481113953
63865.20191793553,8.746428309139446,PPG_1,PPG_2,161402.0,161402.0,-150.12855428172043,3.4590083319512672,0.022707240726241452
63865.21201773727,8.756528110883664,PPG_1,PPG_2,161385.0,161385.0,-166.9949663297739,-7.623842848978856,-0.0490988936777689
63865.22211753901,8.766627912620606,PPG_1,PPG_2,161391.0,161391.0,-160.86137837785645,-17.842509173256857,-0.11530594775906895
63865.23221734075,8.776727714364824,PPG_1,PPG_2,161381.0,161381.0,-170.72779042590992,-26.838389671465926,-0.17359053478377753
63865.242317142496,8.786827516109042,PPG_1,PPG_2,161393.0,161393.0,-158.59420247399248,-34.340197442579324,-0.22219497855836315
63865.25241694424,8.79692731785326,PPG_1,PPG_2,161363.0,161363.0,-188.46061452204594,-40.174407741481936,-0.25999500691073374
63865.262516745985,8.807027119597478,PPG_1,PPG_2,161357.0,161357.0,-194.3270265700994,-44.27048685924484,-0.2865336297667035
63865.27261654772,8.81712692133442,PPG_1,PPG_2,161331.0,161331.0,-220.19343861818197,-46.661319408594466,-0.30202390754571756
63865.282716349466,8.827226723078638,PPG_1,PPG_2,161393.0,161393.0,-158.05985066623543,-47.47626497704804,-0.3073039650025045
63865.29281615121,8.837326524822856,PPG_1,PPG_2,161359.0,161359.0,-191.926262714318,-46.924521057675484,-0.3037291991426839
63865.302915952954,8.847426326567074,PPG_1,PPG_2,161379.0,161379.0,-171.79267476237146,-45.27067726995552,-0.29301389426620983
63865.3130157547,8.857526128311292,PPG_1,PPG_2,161343.0,161343.0,-207.65908681045403,-42.80731027754344,-0.27705366359489086
63865.323115556435,8.867625930048234,PPG_1,PPG_2,161403.0,161403.0,-147.5254988585075,-39.82772516668556,-0.2577488398229548
63865.33321535818,8.877725731792452,PPG_1,PPG_2,161403.0,161403.0,-147.39191090656095,-36.59975048178874,-0.23683469234479737
63865.34331515992,8.88782553353667,PPG_1,PPG_2,161395.0,161395.0,-155.25832295464352,-33.343403058140744,-0.21573671701774824
63865.35341496167,8.897925335280888,PPG_1,PPG_2,161375.0,161375.0,-175.12473500269698,-30.21781954815174,-0.19548596511778518
63865.363514763405,8.90802513701783,PPG_1,PPG_2,161406.0,161406.0,-143.99114705077955,-27.320588665723076,-0.176714716930217
63865.37361456515,8.918124938762048,PPG_1,PPG_2,161353.0,161353.0,-196.857559098833,-24.697519394253078,-0.15971977027043546
63865.38371436689,8.928224740506266,PPG_1,PPG_2,161398.0,161398.0,-151.72397114691557,-22.35804563195025,-0.14456224765571116
63865.39381416864,8.938324542250484,PPG_1,PPG_2,161398.0,161398.0,-151.59038319496904,-20.291438681423987,-0.13117263752496347
63865.40391397038,8.948424343994702,PPG_1,PPG_2,161377.0,161377.0,-172.4567952430225,-18.4807630011139,-0.11944121398242454
63865.41401377212,8.958524145731644,PPG_1,PPG_2,161390.0,161390.0,-159.32320729110506,-16.91382766881327,-0.10928899166736057
63865.42411357386,8.968623947475862,PPG_1,PPG_2,161395.0,161395.0,-154.18961933915853,-15.590705854317664,-0.10071644464913236
63865.43421337561,8.97872374922008,PPG_1,PPG_2,161393.0,161393.0,-156.0560313872411,-14.52653640507297,-0.0938216579869611
63865.44431317735,8.988823550964298,PPG_1,PPG_2,161404.0,161404.0,-144.92244343529455,-13.749115732839355,-0.08878472548939975
63865.45441297909,8.99892335270124,PPG_1,PPG_2,161393.0,161393.0,-155.78885548337712,-13.29236846167578,-0.08582544584137292
63865.46451278083,9.009023154445458,PPG_1,PPG_2,161417.0,161417.0,-131.65526753143058,-13.1873484522197,-0.08514501796311273
63865.47461258258,9.019122956189676,PPG_1,PPG_2,161404.0,161404.0,-144.52167957951315,-13.45258072130526,-0.08686346600967759
63865.48471238432,9.029222757933894,PPG_1,PPG_2,161374.0,161374.0,-174.3880916275666,-14.085694245356576,-0.09096542804623813
63865.494812186065,9.039322559678112,PPG_1,PPG_2,161416.0,161416.0,-132.25450367562007,-15.057152791926958,-0.09725953791238748
63865.5049119878,9.049422361415054,PPG_1,PPG_2,161434.0,161434.0,-114.12091572370264,-16.305391890705554,-0.10534691750740198
63865.51501178955,9.059522163159272,PPG_1,PPG_2,161399.0,161399.0,-148.9873277717561,-17.734370109470483,-0.11460531143166529
63865.52511159129,9.06962196490349,PPG_1,PPG_2,161387.0,161387.0,-160.85373981983867,-19.217645132701257,-0.12421549602563381
63865.535211393035,9.079721766647708,PPG_1,PPG_2,161374.0,161374.0,-173.72015186789213,-20.61114018608238,-0.1332439934276905
63865.54531119478,9.089821568391926,PPG_1,PPG_2,161370.0,161370.0,-177.5865639159747,-21.770572223984853,-0.14075598933802028
63865.55541099651,9.099921370128868,PPG_1,PPG_2,161403.0,161403.0,-144.45297596402816,-22.566358058589948,-0.14591191028864928
63865.56551079826,9.110021171873086,PPG_1,PPG_2,161393.0,161393.0,-154.31938801208162,-22.891540819353267,-0.14801877941862693
63865.5756106,9.120120973617304,PPG_1,PPG_2,161416.0,161416.0,-131.18580006016418,-22.663678555798583,-0.14654245278973896
63865.58571040175,9.130220775361522,PPG_1,PPG_2,161376.0,161376.0,-171.05221210821765,-21.825151571774786,-0.14110961061463098
63865.59581020349,9.14032057710574,PPG_1,PPG_2,161393.0,161393.0,-153.9186241563002,-20.34546822045446,-0.13152269657367507
63865.60591000523,9.150420378842682,PPG_1,PPG_2,161402.0,161402.0,-144.78503620435367,-18.22547594742935,-0.11778720129298063
63865.616009806974,9.1605201805869,PPG_1,PPG_2,161394.0,161394.0,-152.65144825243624,-15.50117494269127,-0.10013637111312565
63865.62610960872,9.170619982331118,PPG_1,PPG_2,161384.0,161384.0,-162.5178603004897,-12.245583241724082,-0.07904329213661886
63865.63620941046,9.180719784075336,PPG_1,PPG_2,161404.0,161404.0,-142.38427234854316,-8.567829219167994,-0.05521501046637911
63865.6463092122,9.190819585812278,PPG_1,PPG_2,161405.0,161405.0,-141.25068439662573,-4.6080032727036935,-0.02955917610693587
63865.65640901394,9.200919387556496,PPG_1,PPG_2,161419.0,161419.0,-127.11709644467919,-0.5267839421774909,-0.0031168302704906474
63865.66650881569,9.211019189300714,PPG_1,PPG_2,161417.0,161417.0,-128.98350849276176,3.5090016347335435,0.02303114887589354
63865.67660861743,9.221118991044932,PPG_1,PPG_2,161424.0,161424.0,-121.84992054081522,7.34233738960505,0.047867449385245064
63865.686708419176,9.23121879278915,PPG_1,PPG_2,161448.0,161448.0,-97.71633258889779,10.841073964910745,0.07053587149695865
63865.69680822091,9.241318594526092,PPG_1,PPG_2,161412.0,161412.0,-133.58274463695125,13.909956858727327,0.09041925835707779
63865.70690802266,9.25141839627031,PPG_1,PPG_2,161433.0,161433.0,-112.44915668503381,16.49798050585729,0.10718714333656146
63865.7170078244,9.261518198014528,PPG_1,PPG_2,161427.0,161427.0,-118.31556873308728,18.6011839893362,0.1208138635323112
63865.727107626146,9.271617999758746,PPG_1,PPG_2,161455.0,161455.0,-90.18198078114074,20.26258417905195,0.13157812657022427
63865.73720742788,9.281717801495688,PPG_1,PPG_2,161442.0,161442.0,-103.0483928292233,21.56983696517507,0.14004785766450178
63865.74730722963,9.291817603239906,PPG_1,PPG_2,161439.0,161439.0,-105.91480487727677,22.64886460789319,0.14703891102015618
63865.75740703137,9.301917404984124,PPG_1,PPG_2,161437.0,161437.0,-107.78121692535933,23.6516124751376,0.15353574535937212
63865.767506833115,9.312017206728342,PPG_1,PPG_2,161437.0,161437.0,-107.6476289734128,24.738485043635464,0.1605776262309548
63865.77760663486,9.32211700847256,PPG_1,PPG_2,161438.0,161438.0,-106.51404102149536,26.058031529001546,0.16912700858155175
63865.7877064366,9.332216810209502,PPG_1,PPG_2,161421.0,161421.0,-123.38045306954882,27.72677638856656,0.17993885796180034
63865.79780623834,9.34231661195372,PPG_1,PPG_2,161425.0,161425.0,-119.24686511760228,29.812119602995473,0.19344986092387445
63865.807906040085,9.352416413697938,PPG_1,PPG_2,161443.0,161443.0,-101.11327716568485,32.32176980227107,0.2097099619190329
63865.81800584183,9.362516215442156,PPG_1,PPG_2,161462.0,161462.0,-81.97968921373831,35.20241852877535,0.2283737738072611
63865.82810564357,9.372616017186374,PPG_1,PPG_2,161468.0,161468.0,-75.84610126182088,38.34690666782019,0.2487470093815676
63865.83820544531,9.382715818923316,PPG_1,PPG_2,161440.0,161440.0,-103.71251330987434,41.60546287280557,0.2698592954709821
63865.848305247055,9.392815620667534,PPG_1,PPG_2,161465.0,161465.0,-78.5789253579569,44.796675705315714,0.29053526177442884
63865.8584050488,9.402915422411752,PPG_1,PPG_2,161457.0,161457.0,-86.44533740601037,47.717286549606854,0.30945798945553615
63865.86850485054,9.41301522415597,PPG_1,PPG_2,161472.0,161472.0,-71.31174945409293,50.152129312178445,0.3252334107625265
63865.87860465229,9.423115025900188,PPG_1,PPG_2,161453.0,161453.0,-90.1781615021464,51.88479293807249,0.3364593917999662
63865.888704454024,9.43321482763713,PPG_1,PPG_2,161469.0,161469.0,-74.04457355019986,52.70856974890637,0.34179666714833734
63865.89880425577,9.443314629381348,PPG_1,PPG_2,161471.0,161471.0,-71.91098559828242,52.43754025784168,0.340040658721884
63865.90890405751,9.453414431125566,PPG_1,PPG_2,161451.0,161451.0,-91.77739764633588,50.91777613377466,0.3301940601189069
63865.91900385926,9.463514232869784,PPG_1,PPG_2,161454.0,161454.0,-88.64380969441845,48.0383233213955,0.3115379965951566
63865.929103660994,9.473614034606726,PPG_1,PPG_2,161467.0,161467.0,-75.51022174247191,43.742044093051895,0.283702271052038
63865.93920346274,9.483713836350944,PPG_1,PPG_2,161450.0,161450.0,-92.37663379055448,38.03654499806708,0.24673616655707029
63865.94930326448,9.493813638095162,PPG_1,PPG_2,161445.0,161445.0,-97.24304583860794,31.004049645763875,0.20117241240940498
63865.95940306623,9.50391343983938,PPG_1,PPG_2,161455.0,161455.0,-87.1094578866614,22.807971811703563,0.1480697714977481
63865.96950286797,9.514013241583598,PPG_1,PPG_2,161458.0,161458.0,-83.97586993474397,13.693915253787988,0.08901951813970257
63865.97960266971,9.52411304332054,PPG_1,PPG_2,161395.0,161395.0,-146.84228198279743,3.9824350599068734,0.02609853863006094
63865.98970247145,9.534212845064758,PPG_1,PPG_2,161413.0,161413.0,-128.70869403088,-5.948363079415478,-0.038243408608053184
63865.9998022732,9.544312646808976,PPG_1,PPG_2,161401.0,161401.0,-140.57510607893346,-15.688686420857456,-0.1013512637597637
63866.00990207494,9.554412448553194,PPG_1,PPG_2,161379.0,161379.0,-162.44151812701602,-24.826929712814515,-0.16055822371316306
63866.02000187668,9.564512250290136,PPG_1,PPG_2,161386.0,161386.0,-155.3079301750695,-32.980098169836175,-0.21338285344840613
63866.03010167842,9.574612052034354,PPG_1,PPG_2,161350.0,161350.0,-191.17434222312295,-39.8228847850361,-0.2577174788410546
63866.040201480166,9.584711853778572,PPG_1,PPG_2,161345.0,161345.0,-196.04075427120551,-45.11303412843182,-0.2919925194932995
63866.05030128191,9.59481165552279,PPG_1,PPG_2,161366.0,161366.0,-174.90716631925898,-48.70934642204375,-0.3152931376914607
63866.060401083654,9.604911457267008,PPG_1,PPG_2,161354.0,161354.0,-186.77357836734154,-50.5789570169929,-0.327406402362476
63866.07050088539,9.61501125900395,PPG_1,PPG_2,161373.0,161373.0,-167.639990415395,-50.793410305520695,-0.32879585182886467
63866.080600687135,9.625111060748168,PPG_1,PPG_2,161355.0,161355.0,-185.50640246347757,-49.51629833265985,-0.320521403992733
63866.09070048888,9.635210862492386,PPG_1,PPG_2,161354.0,161354.0,-186.37281451153103,-46.9858583860902,-0.3041266055840614
63866.100800290624,9.645310664236604,PPG_1,PPG_2,161374.0,161374.0,-166.2392265596136,-43.49416111801319,-0.2815037913608525
63866.11090009237,9.655410465980822,PPG_1,PPG_2,161398.0,161398.0,-142.10563860766706,-39.363279583322125,-0.25473968257290275
63866.120999894105,9.665510267717764,PPG_1,PPG_2,161360.0,161360.0,-179.97205065572052,-34.920163154757795,-0.2259525942836435
63866.13109969585,9.675610069461982,PPG_1,PPG_2,161381.0,161381.0,-158.8384627038031,-30.473496501868976,-0.19714250398155858
