timestamp,PPG_1,PPG_2,PPG_3,time_from_segment_start_sec
63102.987382060375,166936.0,92768.0,5336.0,0.0
63102.99747102793,166877.0,92776.0,5322.0,0.01008896755229216
63103.00755999547,166844.0,92759.0,5291.0,0.020177935097308364
63103.01764896302,166806.0,92736.0,5282.0,0.030266902642324567
63103.02773793057,166746.0,92713.0,5258.0,0.04035587019461673
63103.037826898115,166722.0,92707.0,5236.0,0.05044483773963293
63103.04791586566,166706.0,92728.0,5224.0,0.060533805284649134
63103.05800483321,166680.0,92731.0,5207.0,0.0706227728369413
63103.06809380076,166659.0,92721.0,5192.0,0.0807117403819575
63103.0781827683,166663.0,92738.0,5208.0,0.0908007079269737
63103.088271735855,166599.0,92707.0,5147.0,0.10088967547926586
63103.0983607034,166609.0,92694.0,5156.0,0.11097864302428206
63103.108449670945,166608.0,92716.0,5158.0,0.12106761056929827
63103.1185386385,166594.0,92663.0,5137.0,0.13115657812159043
63103.12862760604,166602.0,92693.0,5147.0,0.14124554566660663
63103.13871657359,166595.0,92668.0,5128.0,0.15133451321162283
63103.14880554114,166584.0,92701.0,5138.0,0.161423480763915
63103.158894508684,166594.0,92695.0,5172.0,0.1715124483089312
63103.16898347623,166621.0,92689.0,5154.0,0.1816014158539474
63103.179072443774,166599.0,92685.0,5142.0,0.1916903833989636
63103.18916141133,166620.0,92656.0,5174.0,0.20177935095125576
63103.19925037887,166626.0,92726.0,5166.0,0.21186831849627197
63103.20933934642,166627.0,92689.0,5152.0,0.22195728604128817
63103.21942831397,166619.0,92728.0,5144.0,0.23204625359358033
63103.229517281514,166630.0,92668.0,5159.0,0.24213522113859653
63103.23960624906,166622.0,92684.0,5153.0,0.25222418868361274
63103.24969521661,166643.0,92710.0,5178.0,0.2623131562359049
63103.259784184156,166641.0,92711.0,5172.0,0.2724021237809211
63103.2698731517,166616.0,92676.0,5181.0,0.2824910913259373
63103.27996211925,166592.0,92706.0,5168.0,0.29258005887822947
63103.2900510868,166656.0,92688.0,5183.0,0.30266902642324567
63103.30014005434,166623.0,92695.0,5160.0,0.31275799396826187
63103.310229021896,166641.0,92734.0,5175.0,0.32284696152055403
63103.32031798944,166610.0,92695.0,5146.0,0.33293592906557024
63103.330406956986,166642.0,92699.0,5167.0,0.34302489661058644
63103.34049592454,166617.0,92702.0,5159.0,0.3531138641628786
63103.35058489208,166571.0,92703.0,5136.0,0.3632028317078948
63103.36067385963,166600.0,92684.0,5178.0,0.373291799252911
63103.37076282717,166600.0,92684.0,5145.0,0.3833807667979272
63103.380851794725,166633.0,92703.0,5164.0,0.39346973435021937
63103.39094076227,166644.0,92700.0,5185.0,0.40355870189523557
63103.401029729815,166643.0,92705.0,5145.0,0.4136476694402518
63103.41111869737,166653.0,92718.0,5173.0,0.42373663699254394
63103.42120766491,166666.0,92718.0,5170.0,0.43382560453756014
63103.43129663246,166627.0,92684.0,5169.0,0.44391457208257634
63103.44138560001,166696.0,92708.0,5161.0,0.4540035396348685
63103.451474567555,166719.0,92712.0,5198.0,0.4640925071798847
63103.4615635351,166711.0,92719.0,5184.0,0.4741814747249009
63103.47165250265,166690.0,92727.0,5185.0,0.48427044227719307
63103.4817414702,166714.0,92701.0,5179.0,0.4943594098222093
63103.49183043774,166783.0,92734.0,5222.0,0.5044483773672255
63103.501919405295,166750.0,92732.0,5204.0,0.5145373449195176
63103.51200837284,166753.0,92773.0,5229.0,0.5246263124645338
63103.522097340385,166812.0,92760.0,5237.0,0.53471528000955
63103.53218630793,166804.0,92772.0,5239.0,0.5448042475545662
63103.54227527548,166807.0,92733.0,5221.0,0.5548932151068584
63103.55236424303,166775.0,92761.0,5225.0,0.5649821826518746
63103.56245321057,166790.0,92754.0,5214.0,0.5750711501968908
63103.572542178124,166811.0,92746.0,5221.0,0.585160117749183
63103.58263114567,166829.0,92742.0,5244.0,0.5952490852941992
63103.592720113214,166845.0,92764.0,5274.0,0.6053380528392154
63103.60280908077,166819.0,92749.0,5229.0,0.6154270203915075
63103.61289804831,166844.0,92774.0,5264.0,0.6255159879365237
63103.62298701586,166862.0,92780.0,5270.0,0.63560495548154
63103.63307598341,166872.0,92784.0,5256.0,0.6456939230338321
63103.643164950954,166871.0,92757.0,5252.0,0.6557828905788483
63103.6532539185,166901.0,92788.0,5282.0,0.6658718581238645
63103.66334288605,166908.0,92762.0,5265.0,0.6759608256761567
63103.6734318536,166869.0,92782.0,5275.0,0.6860497932211729
63103.68352082114,166897.0,92787.0,5277.0,0.6961387607661891
63103.693609788694,166916.0,92783.0,5274.0,0.7062277283184812
63103.70369875624,166943.0,92789.0,5287.0,0.7163166958634974
63103.713787723784,166949.0,92781.0,5275.0,0.7264056634085136
63103.72387669133,166973.0,92801.0,5303.0,0.7364946309535298
63103.73396565888,166945.0,92782.0,5277.0,0.746583598505822
63103.744054626426,166973.0,92797.0,5299.0,0.7566725660508382
63103.75414359397,166940.0,92822.0,5325.0,0.7667615335958544
63103.76423256152,166957.0,92765.0,5281.0,0.7768505011481466
63103.77432152907,166987.0,92784.0,5269.0,0.7869394686931628
63103.78441049661,167019.0,92794.0,5340.0,0.797028436238179
63103.794499464166,167003.0,92809.0,5322.0,0.8071174037904711
63103.80458843171,167073.0,92816.0,5355.0,0.8172063713354873
63103.814677399256,167046.0,92829.0,5361.0,0.8272953388805036
63103.82476636681,167034.0,92803.0,5320.0,0.8373843064327957
63103.83485533435,167052.0,92815.0,5335.0,0.8474732739778119
63103.8449443019,167037.0,92811.0,5313.0,0.8575622415228281
63103.85503326945,167031.0,92811.0,5344.0,0.8676512090751203
63103.865122236995,166966.0,92781.0,5317.0,0.8777401766201365
63103.87521120454,166953.0,92793.0,5304.0,0.8878291441651527
63103.88530017209,166901.0,92805.0,5295.0,0.8979181117174448
63103.89538913964,166852.0,92759.0,5245.0,0.908007079262461
63103.90547810718,166838.0,92742.0,5224.0,0.9180960468074773
63103.91556707473,166804.0,92744.0,5240.0,0.9281850143524935
63103.92565604228,166761.0,92745.0,5215.0,0.9382739819047856
63103.935745009825,166759.0,92754.0,5205.0,0.9483629494498018
63103.94583397737,166689.0,92739.0,5183.0,0.958451916994818
63103.95592294492,166716.0,92722.0,5164.0,0.9685408845471102
63103.96601191247,166689.0,92715.0,5170.0,0.9786298520921264
63103.97610088001,166713.0,92728.0,5136.0,0.9887188196371426
63103.986189847565,166700.0,92733.0,5176.0,0.9988077871894347
63103.99627881511,166689.0,92720.0,5140.0,1.008896754734451
63104.006367782655,166709.0,92727.0,5161.0,1.0189857222794672
63104.01645675021,166690.0,92739.0,5178.0,1.0290746898317593
63104.02654571775,166620.0,92688.0,5091.0,1.0391636573767755
63104.0366346853,166674.0,92720.0,5141.0,1.0492526249217917
63104.04672365285,166695.0,92729.0,5164.0,1.0593415924740839
63104.056812620394,166680.0,92732.0,5167.0,1.0694305600191
63104.06690158794,166674.0,92716.0,5123.0,1.0795195275641163
63104.076990555484,166688.0,92707.0,5148.0,1.0896084951091325
63104.08707952304,166695.0,92743.0,5168.0,1.0996974626614247
63104.09716849058,166663.0,92686.0,5135.0,1.1097864302064409
63104.10725745813,166682.0,92712.0,5130.0,1.119875397751457
63104.11734642568,166702.0,92714.0,5157.0,1.1299643653037492
63104.127435393224,166671.0,92702.0,5161.0,1.1400533328487654
63104.13752436077,166691.0,92716.0,5137.0,1.1501423003937816
63104.14761332832,166713.0,92699.0,5175.0,1.1602312679460738
63104.157702295866,166705.0,92722.0,5169.0,1.17032023549109
63104.16779126341,166668.0,92700.0,5125.0,1.1804092030361062
63104.17788023096,166691.0,92722.0,5128.0,1.1904981705883984
63104.18796919851,166679.0,92730.0,5179.0,1.2005871381334146
63104.198058166054,166683.0,92721.0,5149.0,1.2106761056784308
63104.208147133606,166680.0,92694.0,5146.0,1.220765073230723
63104.21823610115,166681.0,92743.0,5173.0,1.2308540407757391
63104.228325068696,166644.0,92737.0,5118.0,1.2409430083207553
63104.23841403625,166682.0,92712.0,5150.0,1.2510319758730475
63104.24850300379,166714.0,92730.0,5133.0,1.2611209434180637
63104.25859197134,166676.0,92726.0,5178.0,1.27120991096308
63104.26868093888,166707.0,92730.0,5134.0,1.281298878508096
63104.278769906436,166708.0,92717.0,5158.0,1.2913878460603883
63104.28885887398,166697.0,92756.0,5166.0,1.3014768136054045
63104.298947841526,166699.0,92688.0,5136.0,1.3115657811504207
63104.30903680908,166723.0,92737.0,5134.0,1.3216547487027128
63104.31912577662,166731.0,92725.0,5170.0,1.331743716247729
63104.32921474417,166740.0,92710.0,5197.0,1.3418326837927452
63104.33930371172,166756.0,92726.0,5171.0,1.3519216513450374
63104.349392679265,166790.0,92716.0,5210.0,1.3620106188900536
63104.35948164681,166794.0,92740.0,5179.0,1.3720995864350698
63104.36957061436,166787.0,92728.0,5193.0,1.382188553987362
63104.37965958191,166814.0,92752.0,5182.0,1.3922775215323782
63104.38974854945,166798.0,92738.0,5215.0,1.4023664890773944
63104.399837517005,166827.0,92762.0,5201.0,1.4124554566296865
63104.40992648455,166843.0,92755.0,5209.0,1.4225444241747027
63104.420015452095,166835.0,92725.0,5199.0,1.432633391719719
63104.43010441965,166829.0,92752.0,5198.0,1.442722359272011
63104.44019338719,166869.0,92779.0,5210.0,1.4528113268170273
63104.45028235474,166871.0,92748.0,5226.0,1.4629002943620435
63104.46037132228,166890.0,92767.0,5277.0,1.4729892619070597
63104.470460289835,166881.0,92754.0,5228.0,1.4830782294593519
63104.48054925738,166914.0,92793.0,5271.0,1.493167197004368
63104.490638224925,166911.0,92781.0,5245.0,1.5032561645493843
63104.50072719248,166893.0,92760.0,5220.0,1.5133451321016764
63104.51081616002,166924.0,92788.0,5216.0,1.5234340996466926
63104.52090512757,166911.0,92763.0,5277.0,1.5335230671917088
63104.53099409512,166933.0,92787.0,5249.0,1.543612034744001
63104.541083062664,166958.0,92784.0,5275.0,1.5537010022890172
63104.55117203021,166950.0,92772.0,5250.0,1.5637899698340334
63104.56126099776,166961.0,92748.0,5253.0,1.5738789373863256
63104.57134996531,166965.0,92794.0,5265.0,1.5839679049313418
63104.58143893285,166996.0,92807.0,5281.0,1.594056872476358
63104.591527900404,166971.0,92780.0,5312.0,1.6041458400286501
63104.60161686795,167012.0,92793.0,5285.0,1.6142348075736663
63104.611705835494,167016.0,92794.0,5292.0,1.6243237751186825
63104.62179480304,167046.0,92795.0,5292.0,1.6344127426636987
63104.63188377059,167016.0,92782.0,5308.0,1.644501710215991
63104.641972738136,167070.0,92825.0,5280.0,1.654590677761007
63104.65206170568,167047.0,92817.0,5310.0,1.6646796453060233
63104.66215067323,167062.0,92797.0,5320.0,1.6747686128583155
63104.67223964078,167076.0,92828.0,5309.0,1.6848575804033317
63104.68232860832,167108.0,92840.0,5343.0,1.6949465479483479
63104.692417575876,167076.0,92803.0,5304.0,1.70503551550064
63104.70250654342,167055.0,92787.0,5316.0,1.7151244830456562
63104.712595510966,167118.0,92849.0,5318.0,1.7252134505906724
63104.72268447852,167097.0,92798.0,5357.0,1.7353024181429646
63104.73277344606,167058.0,92808.0,5323.0,1.7453913856879808
63104.74286241361,167041.0,92805.0,5338.0,1.755480353232997
63104.75295138116,167004.0,92779.0,5318.0,1.7655693207852892
63104.763040348706,166908.0,92786.0,5262.0,1.7756582883303054
63104.77312931625,166919.0,92778.0,5268.0,1.7857472558753216
63104.7832182838,166889.0,92789.0,5235.0,1.7958362234276137
63104.79330725135,166799.0,92755.0,5240.0,1.80592519097263
63104.80339621889,166803.0,92753.0,5194.0,1.8160141585176461
63104.81348518644,166781.0,92743.0,5172.0,1.8261031260626623
63104.82357415399,166757.0,92694.0,5198.0,1.8361920936149545
63104.833663121535,166742.0,92700.0,5153.0,1.8462810611599707
63104.84375208908,166758.0,92750.0,5165.0,1.856370028704987
63104.85384105663,166725.0,92723.0,5134.0,1.866458996257279
63104.86393002418,166687.0,92714.0,5150.0,1.8765479638022953
63104.87401899172,166730.0,92751.0,5162.0,1.8866369313473115
63104.884107959275,166725.0,92759.0,5165.0,1.8967258988996036
63104.89419692682,166670.0,92717.0,5129.0,1.9068148664446198
63104.904285894365,166693.0,92705.0,5137.0,1.916903833989636
63104.91437486192,166730.0,92743.0,5129.0,1.9269928015419282
63104.92446382946,166689.0,92721.0,5165.0,1.9370817690869444
63104.93455279701,166710.0,92721.0,5146.0,1.9471707366319606
63104.94464176456,166697.0,92746.0,5132.0,1.9572597041842528
63104.954730732105,166697.0,92693.0,5132.0,1.967348671729269
63104.96481969965,166681.0,92692.0,5111.0,1.9774376392742852
63104.974908667195,166707.0,92728.0,5126.0,1.9875266068193014
63104.98499763475,166692.0,92716.0,5134.0,1.9976155743715935
63104.99508660229,166684.0,92713.0,5152.0,2.0077045419166097
63105.00517556984,166695.0,92724.0,5131.0,2.017793509461626
63105.01526453739,166703.0,92698.0,5151.0,2.027882477013918
63105.025353504934,166706.0,92729.0,5131.0,2.0379714445589343
63105.03544247248,166675.0,92712.0,5114.0,2.0480604121039505
63105.04553144003,166706.0,92734.0,5140.0,2.0581493796562427
63105.05562040758,166664.0,92708.0,5107.0,2.068238347201259
63105.06570937512,166695.0,92715.0,5127.0,2.078327314746275
63105.075798342674,166707.0,92727.0,5151.0,2.0884162822985672
63105.08588731022,166698.0,92735.0,5155.0,2.0985052498435834
63105.095976277764,166631.0,92676.0,5102.0,2.1085942173885996
63105.106065245316,166680.0,92724.0,5124.0,2.118683184940892
63105.11615421286,166703.0,92739.0,5100.0,2.128772152485908
63105.126243180406,166681.0,92716.0,5154.0,2.138861120030924
63105.13633214796,166705.0,92734.0,5132.0,2.1489500875832164
63105.1464211155,166698.0,92713.0,5124.0,2.1590390551282326
63105.15651008305,166720.0,92736.0,5144.0,2.169128022673249
63105.16659905059,166716.0,92690.0,5133.0,2.179216990218265
63105.176688018146,166730.0,92743.0,5127.0,2.189305957770557
63105.18677698569,166741.0,92734.0,5138.0,2.1993949253155733
63105.196865953236,166720.0,92724.0,5161.0,2.2094838928605895
63105.20695492079,166745.0,92733.0,5153.0,2.2195728604128817
63105.21704388833,166764.0,92693.0,5156.0,2.229661827957898
63105.22713285588,166748.0,92725.0,5158.0,2.239750795502914
63105.23722182343,166753.0,92716.0,5149.0,2.2498397630552063
63105.247310790975,166791.0,92768.0,5180.0,2.2599287306002225
63105.25739975852,166769.0,92744.0,5143.0,2.2700176981452387
63105.26748872607,166807.0,92749.0,5182.0,2.280106665697531
63105.27757769362,166822.0,92752.0,5189.0,2.290195633242547
63105.28766666116,166839.0,92756.0,5203.0,2.3002846007875632
63105.297755628715,166812.0,92731.0,5183.0,2.3103735683398554
63105.30784459626,166862.0,92762.0,5197.0,2.3204625358848716
63105.317933563805,166874.0,92786.0,5176.0,2.330551503429888
63105.32802253136,166846.0,92763.0,5194.0,2.34064047098218
63105.3381114989,166903.0,92775.0,5224.0,2.350729438527196
63105.34820046645,166889.0,92780.0,5213.0,2.3608184060722124
63105.35828943399,166869.0,92758.0,5192.0,2.3709073736172286
63105.368378401545,166924.0,92773.0,5220.0,2.3809963411695207
63105.37846736909,166906.0,92793.0,5215.0,2.391085308714537
63105.388556336635,166906.0,92778.0,5211.0,2.401174276259553
63105.39864530419,166922.0,92774.0,5250.0,2.4112632438118453
63105.40873427173,166947.0,92817.0,5258.0,2.4213522113568615
63105.41882323928,166942.0,92760.0,5272.0,2.4314411789018777
63105.42891220683,166914.0,92787.0,5218.0,2.44153014645417
63105.439001174374,166943.0,92762.0,5241.0,2.451619113999186
63105.44909014192,166940.0,92790.0,5255.0,2.4617080815442023
63105.45917910947,166935.0,92789.0,5237.0,2.4717970490964944
63105.46926807702,166977.0,92798.0,5268.0,2.4818860166415107
63105.47935704456,166987.0,92824.0,5264.0,2.491974984186527
63105.489446012114,166987.0,92780.0,5256.0,2.502063951738819
63105.49953497966,166990.0,92774.0,5264.0,2.512152919283835
63105.509623947204,167043.0,92839.0,5276.0,2.5222418868288514
63105.51971291475,167024.0,92809.0,5285.0,2.5323308543738676
63105.5298018823,167009.0,92800.0,5312.0,2.54241982192616
63105.53989084985,167050.0,92831.0,5294.0,2.552508789471176
63105.54997981739,167062.0,92801.0,5284.0,2.562597757016192
63105.560068784944,167073.0,92822.0,5302.0,2.5726867245684844
63105.57015775249,167063.0,92811.0,5302.0,2.5827756921135006
63105.580246720034,167116.0,92857.0,5314.0,2.5928646596585168
63105.590335687586,167087.0,92807.0,5299.0,2.602953627210809
63105.60042465513,167100.0,92826.0,5307.0,2.613042594755825
63105.610513622676,167078.0,92810.0,5309.0,2.6231315623008413
63105.62060259023,167028.0,92797.0,5310.0,2.6332205298531335
63105.63069155777,166962.0,92761.0,5270.0,2.6433094973981497
63105.64078052532,166954.0,92803.0,5280.0,2.653398464943166
63105.65086949287,166893.0,92815.0,5263.0,2.663487432495458
63105.660958460416,166879.0,92765.0,5220.0,2.6735764000404743
63105.67104742796,166869.0,92772.0,5236.0,2.6836653675854905
63105.68113639551,166816.0,92762.0,5200.0,2.6937543351377826
63105.69122536306,166801.0,92774.0,5184.0,2.703843302682799
63105.7013143306,166754.0,92725.0,5140.0,2.713932270227815
63105.71140329815,166766.0,92767.0,5167.0,2.7240212377728312
63105.7214922657,166734.0,92747.0,5155.0,2.7341102053251234
63105.731581233245,166725.0,92731.0,5171.0,2.7441991728701396
63105.74167020079,166766.0,92764.0,5149.0,2.754288140415156
63105.75175916834,166713.0,92714.0,5117.0,2.764377107967448
63105.76184813589,166693.0,92706.0,5113.0,2.774466075512464
63105.77193710343,166707.0,92718.0,5125.0,2.7845550430574804
63105.782026070985,166725.0,92761.0,5134.0,2.7946440106097725
63105.79211503853,166676.0,92730.0,5125.0,2.8047329781547887
63105.802204006075,166721.0,92738.0,5135.0,2.814821945699805
63105.81229297363,166720.0,92721.0,5125.0,2.824910913252097
63105.82238194117,166706.0,92715.0,5117.0,2.8349998807971133
63105.83247090872,166702.0,92726.0,5102.0,2.8450888483421295
63105.84255987627,166729.0,92728.0,5141.0,2.8551778158944217
63105.852648843815,166771.0,92741.0,5135.0,2.865266783439438
63105.86273781136,166730.0,92708.0,5109.0,2.875355750984454
63105.87282677891,166750.0,92751.0,5165.0,2.8854447185367462
63105.88291574646,166734.0,92730.0,5151.0,2.8955336860817624
63105.893004714,166679.0,92695.0,5111.0,2.9056226536267786
63105.90309368155,166696.0,92704.0,5120.0,2.915711621171795
63105.9131826491,166739.0,92740.0,5154.0,2.925800588724087
63105.923271616644,166717.0,92736.0,5155.0,2.935889556269103
63105.93336058419,166706.0,92710.0,5166.0,2.9459785238141194
63105.94344955174,166722.0,92728.0,5142.0,2.9560674913664116
63105.95353851929,166686.0,92703.0,5139.0,2.9661564589114278
63105.96362748683,166703.0,92732.0,5140.0,2.976245426456444
63105.973716454384,166720.0,92742.0,5137.0,2.986334394008736
63105.98380542193,166735.0,92751.0,5122.0,2.9964233615537523
63105.993894389474,166713.0,92742.0,5157.0,3.0065123290987685
63106.003983357026,166696.0,92709.0,5161.0,3.0166012966510607
63106.01407232457,166714.0,92728.0,5133.0,3.026690264196077
63106.024161292116,166713.0,92693.0,5109.0,3.036779231741093
63106.03425025967,166693.0,92698.0,5129.0,3.0468681992933853
63106.044339227214,166707.0,92725.0,5145.0,3.0569571668384015
63106.05442819476,166748.0,92735.0,5150.0,3.0670461343834177
63106.064517162304,166740.0,92725.0,5186.0,3.077135101928434
63106.074606129856,166799.0,92764.0,5182.0,3.087224069480726
63106.0846950974,166731.0,92749.0,5170.0,3.0973130370257422
63106.094784064946,166785.0,92747.0,5170.0,3.1074020045707584
63106.1048730325,166790.0,92724.0,5149.0,3.1174909721230506
63106.11496200004,166803.0,92746.0,5156.0,3.127579939668067
63106.12505096759,166856.0,92732.0,5217.0,3.137668907213083
63106.13513993514,166824.0,92767.0,5181.0,3.147757874765375
63106.145228902686,166832.0,92742.0,5184.0,3.1578468423103914
63106.15531787023,166830.0,92742.0,5181.0,3.1679358098554076
63106.16540683778,166799.0,92717.0,5179.0,3.1780247774076997
63106.17549580533,166854.0,92753.0,5203.0,3.188113744952716
63106.18558477287,166842.0,92751.0,5189.0,3.198202712497732
63106.195673740425,166886.0,92792.0,5240.0,3.2082916800500243
63106.20576270797,166897.0,92804.0,5222.0,3.2183806475950405
63106.215851675515,166905.0,92782.0,5229.0,3.2284696151400567
63106.22594064307,166918.0,92806.0,5232.0,3.238558582692349
63106.23602961061,166896.0,92763.0,5224.0,3.248647550237365
63106.24611857816,166908.0,92782.0,5251.0,3.2587365177823813
63106.2562075457,166934.0,92784.0,5246.0,3.2688254853273975
63106.266296513255,166912.0,92780.0,5248.0,3.2789144528796896
63106.2763854808,166971.0,92802.0,5265.0,3.289003420424706
63106.286474448345,166917.0,92794.0,5253.0,3.299092387969722
63106.2965634159,166928.0,92763.0,5224.0,3.309181355522014
63106.30665238344,166947.0,92766.0,5255.0,3.3192703230670304
63106.31674135099,166969.0,92793.0,5245.0,3.3293592906120466
63106.32683031854,166961.0,92791.0,5252.0,3.3394482581643388
63106.336919286085,166988.0,92809.0,5265.0,3.349537225709355
63106.34700825363,166965.0,92810.0,5250.0,3.359626193254371
63106.35709722118,166996.0,92795.0,5269.0,3.3697151608066633
63106.36718618873,166991.0,92814.0,5270.0,3.3798041283516795
63106.37727515627,167035.0,92816.0,5283.0,3.3898930958966957
63106.387364123824,167045.0,92818.0,5306.0,3.399982063448988
63106.39745309137,167039.0,92819.0,5309.0,3.410071030994004
63106.407542058914,167082.0,92833.0,5302.0,3.4201599985390203
63106.41763102646,167071.0,92826.0,5298.0,3.4302489660840365
63106.42771999401,167038.0,92828.0,5298.0,3.4403379336363287
63106.43780896156,166919.0,92782.0,5253.0,3.450426901181345
63106.4478979291,166854.0,92766.0,5215.0,3.460515868726361
63106.457986896654,166820.0,92751.0,5202.0,3.4706048362786532
63106.4680758642,166807.0,92740.0,5214.0,3.4806938038236694
63106.478164831744,166827.0,92760.0,5184.0,3.4907827713686856
63106.488253799296,166794.0,92770.0,5205.0,3.500871738920978
63106.49834276684,166740.0,92719.0,5172.0,3.510960706465994
63106.508431734386,166757.0,92776.0,5174.0,3.52104967401101
63106.51852070194,166769.0,92743.0,5164.0,3.5311386415633024
63106.52860966948,166746.0,92728.0,5147.0,3.5412276091083186
63106.53869863703,166758.0,92747.0,5153.0,3.5513165766533348
63106.54878760458,166741.0,92743.0,5144.0,3.561405544205627
63106.558876572126,166774.0,92733.0,5160.0,3.571494511750643
63106.56896553967,166733.0,92737.0,5147.0,3.5815834792956593
63106.57905450722,166783.0,92735.0,5185.0,3.5916724468479515
63106.58914347477,166704.0,92705.0,5126.0,3.6017614143929677
63106.59923244231,166762.0,92723.0,5166.0,3.611850381937984
63106.60932140986,166769.0,92741.0,5164.0,3.621939349483
63106.61941037741,166794.0,92768.0,5187.0,3.6320283170352923
63106.629499344956,166807.0,92763.0,5201.0,3.6421172845803085
63106.6395883125,166780.0,92735.0,5183.0,3.6522062521253247
63106.64967728005,166774.0,92768.0,5166.0,3.662295219677617
63106.6597662476,166797.0,92751.0,5180.0,3.672384187222633
63106.66985521514,166771.0,92735.0,5184.0,3.6824731547676492
63106.679944182695,166787.0,92753.0,5176.0,3.6925621223199414
63106.69003315024,166757.0,92767.0,5224.0,3.7026510898649576
63106.700122117785,166752.0,92721.0,5189.0,3.712740057409974
63106.71021108534,166784.0,92761.0,5203.0,3.722829024962266
63106.72030005288,166763.0,92720.0,5166.0,3.732917992507282
63106.73038902043,166751.0,92725.0,5154.0,3.7430069600522984
63106.74047798798,166745.0,92728.0,5164.0,3.7530959276045905
63106.750566955525,166772.0,92767.0,5180.0,3.7631848951496067
63106.76065592307,166770.0,92739.0,5164.0,3.773273862694623
63106.77074489062,166743.0,92715.0,5151.0,3.783362830246915
63106.78083385817,166765.0,92719.0,5183.0,3.7934517977919313
63106.79092282571,166742.0,92744.0,5158.0,3.8035407653369475
63106.80101179326,166772.0,92736.0,5163.0,3.8136297328819637
63106.81110076081,166778.0,92744.0,5150.0,3.823718700434256
63106.821189728355,166801.0,92768.0,5205.0,3.833807667979272
63106.8312786959,166762.0,92748.0,5170.0,3.8438966355242883
63106.84136766345,166795.0,92753.0,5189.0,3.8539856030765804
63106.851456631,166773.0,92756.0,5177.0,3.8640745706215966
63106.86154559854,166780.0,92755.0,5168.0,3.874163538166613
63106.871634566094,166836.0,92766.0,5182.0,3.884252505718905
63106.88172353364,166829.0,92768.0,5240.0,3.894341473263921
63106.891812501184,166837.0,92771.0,5214.0,3.9044304408089374
63106.90190146874,166845.0,92755.0,5199.0,3.9145194083612296
63106.91199043628,166879.0,92787.0,5240.0,3.924608375906246
63106.92207940383,166843.0,92764.0,5190.0,3.934697343451262
63106.93216837138,166903.0,92748.0,5224.0,3.944786311003554
63106.942257338924,166892.0,92786.0,5223.0,3.9548752785485703
63106.95234630647,166909.0,92783.0,5276.0,3.9649642460935866
63106.96243527402,166927.0,92768.0,5264.0,3.9750532136458787
63106.972524241566,166929.0,92783.0,5240.0,3.985142181190895
63106.98261320911,166887.0,92750.0,5215.0,3.995231148735911
63106.992702176656,166906.0,92789.0,5232.0,4.005320116280927
63107.00279114421,166948.0,92790.0,5235.0,4.0154090838332195
63107.01288011175,166940.0,92776.0,5256.0,4.025498051378236
63107.0229690793,166956.0,92804.0,5295.0,4.035587018923252
63107.03305804685,166964.0,92790.0,5244.0,4.045675986475544
63107.043147014396,166994.0,92806.0,5298.0,4.05576495402056
63107.05323598194,166984.0,92795.0,5269.0,4.0658539215655765
63107.06332494949,166988.0,92764.0,5264.0,4.075942889117869
63107.07341391704,166983.0,92812.0,5257.0,4.086031856662885
63107.08350288458,166982.0,92788.0,5289.0,4.096120824207901
63107.093591852135,167001.0,92795.0,5279.0,4.106209791760193
63107.10368081968,167005.0,92816.0,5264.0,4.116298759305209
63107.113769787225,167039.0,92823.0,5315.0,4.126387726850226
63107.12385875478,166967.0,92771.0,5266.0,4.136476694402518
63107.13394772232,167028.0,92801.0,5299.0,4.146565661947534
63107.14403668987,167055.0,92828.0,5291.0,4.15665462949255
63107.15412565741,167039.0,92802.0,5324.0,4.166743597037566
63107.164214624965,167052.0,92810.0,5305.0,4.1768325645898585
63107.17430359251,167076.0,92816.0,5313.0,4.186921532134875
63107.184392560055,167073.0,92821.0,5309.0,4.197010499679891
63107.19448152761,167054.0,92811.0,5304.0,4.207099467232183
63107.20457049515,167115.0,92849.0,5327.0,4.217188434777199
63107.2146594627,167110.0,92823.0,5332.0,4.2272774023222155
63107.22474843025,167114.0,92841.0,5322.0,4.237366369874508
63107.234837397795,167142.0,92836.0,5338.0,4.247455337419524
63107.24492636534,167133.0,92816.0,5351.0,4.25754430496454
63107.25501533289,167115.0,92806.0,5333.0,4.267633272516832
63107.26510430044,167117.0,92835.0,5324.0,4.277722240061848
63107.27519326798,167119.0,92844.0,5325.0,4.287811207606865
63107.285282235534,167059.0,92811.0,5319.0,4.297900175159157
63107.29537120308,167030.0,92803.0,5319.0,4.307989142704173
63107.305460170624,167001.0,92799.0,5284.0,4.318078110249189
63107.31554913818,166982.0,92821.0,5312.0,4.328167077801481
63107.32563810572,166926.0,92762.0,5249.0,4.338256045346498
63107.33572707327,166899.0,92773.0,5247.0,4.348345012891514
63107.34581604081,166893.0,92794.0,5232.0,4.35843398043653
63107.355905008364,166839.0,92748.0,5244.0,4.368522947988822
63107.36599397591,166818.0,92784.0,5205.0,4.378611915533838
63107.376082943454,166814.0,92760.0,5199.0,4.3887008830788545
63107.38617191101,166792.0,92771.0,5186.0,4.398789850631147
63107.39626087855,166786.0,92732.0,5177.0,4.408878818176163
63107.4063498461,166805.0,92757.0,5182.0,4.418967785721179
63107.41643881365,166789.0,92746.0,5187.0,4.429056753273471
63107.426527781194,166783.0,92738.0,5205.0,4.4391457208184875
63107.43661674874,166785.0,92744.0,5184.0,4.449234688363504
63107.44670571629,166806.0,92747.0,5215.0,4.459323655915796
63107.456794683836,166766.0,92743.0,5166.0,4.469412623460812
63107.46688365138,166804.0,92730.0,5186.0,4.479501591005828
63107.47697261893,166823.0,92765.0,5192.0,4.48959055855812
63107.48706158648,166792.0,92734.0,5193.0,4.499679526103137
63107.49715055402,166803.0,92753.0,5204.0,4.509768493648153
63107.50723952157,166825.0,92774.0,5201.0,4.519857461193169
63107.51732848912,166795.0,92735.0,5180.0,4.529946428745461
63107.527417456666,166829.0,92733.0,5225.0,4.540035396290477
63107.53750642421,166834.0,92773.0,5194.0,4.550124363835494
63107.54759539176,166821.0,92747.0,5214.0,4.560213331387786
63107.55768435931,166785.0,92734.0,5230.0,4.570302298932802
63107.56777332685,166830.0,92782.0,5231.0,4.580391266477818
63107.577862294405,166827.0,92722.0,5214.0,4.59048023403011
63107.58795126195,166817.0,92744.0,5195.0,4.6005692015751265
63107.598040229495,166799.0,92720.0,5190.0,4.610658169120143
63107.60812919705,166805.0,92772.0,5222.0,4.620747136672435
63107.61821816459,166813.0,92730.0,5189.0,4.630836104217451
63107.62830713214,166787.0,92737.0,5206.0,4.640925071762467
63107.63839609969,166811.0,92748.0,5202.0,4.651014039314759
63107.648485067235,166804.0,92728.0,5202.0,4.661103006859776
63107.65857403478,166741.0,92695.0,5160.0,4.671191974404792
63107.66866300233,166800.0,92750.0,5195.0,4.681280941957084
63107.67875196988,166821.0,92728.0,5202.0,4.6913699095021
63107.68884093742,166791.0,92766.0,5209.0,4.701458877047116
63107.69892990497,166844.0,92768.0,5236.0,4.711547844592133
63107.70901887252,166833.0,92750.0,5201.0,4.721636812144425
63107.719107840065,166859.0,92787.0,5220.0,4.731725779689441
63107.72919680761,166809.0,92747.0,5203.0,4.741814747234457
63107.73928577516,166848.0,92757.0,5208.0,4.751903714786749
63107.74937474271,166867.0,92758.0,5230.0,4.7619926823317655
63107.75946371025,166868.0,92763.0,5259.0,4.772081649876782
63107.769552677804,166879.0,92762.0,5217.0,4.782170617429074
63107.77964164535,166901.0,92798.0,5265.0,4.79225958497409
63107.789730612894,166879.0,92764.0,5239.0,4.802348552519106
63107.79981958045,166890.0,92772.0,5240.0,4.8124375200713985
63107.80990854799,166910.0,92785.0,5265.0,4.822526487616415
63107.81999751554,166931.0,92751.0,5226.0,4.832615455161431
63107.83008648309,166945.0,92788.0,5254.0,4.842704422713723
63107.840175450634,166976.0,92781.0,5293.0,4.852793390258739
63107.85026441818,166944.0,92768.0,5273.0,4.862882357803755
63107.86035338573,166960.0,92762.0,5267.0,4.872971325356048
63107.870442353276,166976.0,92797.0,5285.0,4.883060292901064
63107.88053132082,167016.0,92821.0,5288.0,4.89314926044608
63107.890620288366,166984.0,92780.0,5271.0,4.903238227991096
63107.90070925592,166992.0,92819.0,5294.0,4.913327195543388
63107.910798223464,167016.0,92806.0,5297.0,4.923416163088405
63107.92088719101,166958.0,92753.0,5271.0,4.933505130633421
63107.93097615856,167014.0,92790.0,5298.0,4.943594098185713
63107.941065126106,166991.0,92778.0,5309.0,4.953683065730729
63107.95115409365,167022.0,92803.0,5301.0,4.963772033275745
63107.9612430612,167024.0,92788.0,5326.0,4.9738610008280375
63107.97133202875,167069.0,92841.0,5332.0,4.983949968373054
63107.98142099629,167076.0,92811.0,5341.0,4.99403893591807
63107.991509963846,167042.0,92810.0,5313.0,5.004127903470362
63108.00159893139,167059.0,92777.0,5311.0,5.014216871015378
63108.011687898936,167067.0,92822.0,5349.0,5.0243058385603945
63108.02177686649,167074.0,92812.0,5324.0,5.034394806112687
63108.03186583403,167061.0,92815.0,5316.0,5.044483773657703
63108.04195480158,167109.0,92824.0,5331.0,5.054572741202719
63108.05204376912,167080.0,92764.0,5330.0,5.064661708747735
63108.062132736675,167100.0,92798.0,5334.0,5.074750676300027
63108.07222170422,167146.0,92839.0,5360.0,5.084839643845044
63108.082310671765,167144.0,92818.0,5352.0,5.09492861139006
63108.09239963932,167122.0,92820.0,5353.0,5.105017578942352
63108.10248860686,167142.0,92845.0,5371.0,5.115106546487368
63108.11257757441,167147.0,92822.0,5374.0,5.125195514032384
63108.12266654196,167109.0,92817.0,5351.0,5.1352844815846765
63108.132755509505,167084.0,92825.0,5348.0,5.145373449129693
63108.14284447705,167024.0,92777.0,5347.0,5.155462416674709
63108.1529334446,167003.0,92781.0,5317.0,5.165551384227001
63108.16302241215,166976.0,92797.0,5305.0,5.175640351772017
63108.17311137969,166940.0,92801.0,5319.0,5.1857293193170335
63108.183200347245,166919.0,92757.0,5306.0,5.195818286869326
63108.19328931479,166828.0,92721.0,5225.0,5.205907254414342
63108.203378282335,166853.0,92777.0,5252.0,5.215996221959358
63108.21346724989,166852.0,92801.0,5264.0,5.22608518951165
63108.22355621743,166820.0,92768.0,5231.0,5.2361741570566664
63108.23364518498,166827.0,92778.0,5230.0,5.246263124601683
63108.24373415252,166818.0,92753.0,5212.0,5.256352092146699
63108.253823120074,166799.0,92726.0,5193.0,5.266441059698991
63108.26391208762,166838.0,92731.0,5234.0,5.276530027244007
63108.274001055164,166834.0,92775.0,5219.0,5.286618994789023
63108.28409002272,166824.0,92758.0,5215.0,5.296707962341316
63108.29417899026,166824.0,92740.0,5233.0,5.306796929886332
63108.30426795781,166849.0,92761.0,5240.0,5.316885897431348
63108.31435692536,166839.0,92753.0,5246.0,5.32697486498364
63108.324445892904,166849.0,92756.0,5224.0,5.337063832528656
63108.33453486045,166843.0,92751.0,5225.0,5.3471528000736726
63108.344623828,166848.0,92744.0,5227.0,5.357241767625965
63108.354712795546,166819.0,92760.0,5233.0,5.367330735170981
63108.36480176309,166876.0,92765.0,5243.0,5.377419702715997
63108.37489073064,166873.0,92769.0,5258.0,5.387508670268289
63108.38497969819,166865.0,92730.0,5245.0,5.3975976378133055
63108.39506866573,166863.0,92721.0,5249.0,5.407686605358322
63108.405157633286,166882.0,92754.0,5241.0,5.417775572910614
63108.41524660083,166893.0,92784.0,5260.0,5.42786454045563
63108.425335568376,166835.0,92748.0,5227.0,5.437953508000646
63108.43542453592,166886.0,92792.0,5256.0,5.4480424755456625
63108.44551350347,166854.0,92760.0,5241.0,5.458131443097955
63108.45560247102,166820.0,92725.0,5206.0,5.468220410642971
63108.46569143856,166855.0,92731.0,5238.0,5.478309378187987
63108.475780406116,166867.0,92764.0,5268.0,5.488398345740279
63108.48586937366,166842.0,92761.0,5206.0,5.498487313285295
63108.495958341206,166840.0,92731.0,5257.0,5.508576280830312
63108.50604730876,166860.0,92778.0,5263.0,5.518665248382604
63108.5161362763,166851.0,92728.0,5236.0,5.52875421592762
63108.52622524385,166879.0,92767.0,5265.0,5.538843183472636
63108.5363142114,166871.0,92767.0,5251.0,5.548932151024928
63108.546403178945,166904.0,92774.0,5267.0,5.5590211185699445
63108.55649214649,166863.0,92758.0,5222.0,5.569110086114961
63108.56658111404,166904.0,92771.0,5275.0,5.579199053667253
63108.57667008159,166904.0,92789.0,5259.0,5.589288021212269
63108.58675904913,166866.0,92727.0,5233.0,5.599376988757285
63108.59684801668,166904.0,92755.0,5267.0,5.6094659563023015
63108.60693698423,166919.0,92803.0,5287.0,5.619554923854594
63108.617025951775,166948.0,92774.0,5282.0,5.62964389139961
63108.62711491932,166921.0,92779.0,5279.0,5.639732858944626
63108.63720388687,166953.0,92785.0,5312.0,5.649821826496918
63108.64729285442,166966.0,92774.0,5271.0,5.659910794041934
63108.65738182196,166986.0,92786.0,5293.0,5.669999761586951
63108.667470789514,166990.0,92802.0,5298.0,5.680088729139243
63108.67755975706,167025.0,92806.0,5332.0,5.690177696684259
63108.687648724605,166981.0,92791.0,5278.0,5.700266664229275
63108.69773769216,167018.0,92801.0,5311.0,5.710355631781567
63108.7078266597,167049.0,92784.0,5335.0,5.720444599326584
63108.71791562725,167042.0,92789.0,5339.0,5.7305335668716
63108.7280045948,167060.0,92796.0,5344.0,5.740622534423892
63108.738093562344,167049.0,92806.0,5322.0,5.750711501968908
63108.74818252989,167032.0,92818.0,5342.0,5.760800469513924
63108.75827149744,167032.0,92798.0,5307.0,5.7708894370662165
63108.76836046499,167078.0,92835.0,5342.0,5.780978404611233
63108.77844943253,167076.0,92811.0,5339.0,5.791067372156249
63108.78853840008,167057.0,92797.0,5335.0,5.801156339701265
63108.79862736763,167072.0,92782.0,5341.0,5.811245307253557
63108.808716335174,167091.0,92804.0,5355.0,5.8213342747985735
63108.81880530272,167105.0,92808.0,5347.0,5.83142324234359
63108.82889427027,167070.0,92815.0,5338.0,5.841512209895882
63108.838983237816,167121.0,92806.0,5383.0,5.851601177440898
63108.84907220536,167130.0,92841.0,5344.0,5.861690144985914
63108.85916117291,167128.0,92822.0,5356.0,5.871779112538206
63108.86925014046,167126.0,92824.0,5372.0,5.881868080083223
63108.879339108,167140.0,92838.0,5395.0,5.891957047628239
63108.889428075556,167112.0,92808.0,5348.0,5.902046015180531
63108.8995170431,167127.0,92822.0,5378.0,5.912134982725547
63108.909606010646,167113.0,92809.0,5387.0,5.922223950270563
63108.9196949782,167063.0,92784.0,5365.0,5.9323129178228555
63108.92978394574,167028.0,92772.0,5350.0,5.942401885367872
63108.93987291329,167004.0,92793.0,5332.0,5.952490852912888
63108.94996188083,166936.0,92796.0,5310.0,5.962579820457904
63108.960050848385,166927.0,92792.0,5313.0,5.972668788010196
63108.97013981593,166927.0,92774.0,5306.0,5.9827577555552125
63108.980228783475,166885.0,92773.0,5281.0,5.992846723100229
63108.99031775103,166850.0,92758.0,5264.0,6.002935690652521
63109.00040671857,166829.0,92734.0,5266.0,6.013024658197537
63109.01049568612,166847.0,92759.0,5263.0,6.023113625742553
63109.02058465367,166812.0,92739.0,5219.0,6.033202593294845
63109.030673621215,166769.0,92738.0,5231.0,6.043291560839862
63109.04076258876,166839.0,92722.0,5243.0,6.053380528384878
63109.05085155631,166783.0,92736.0,5227.0,6.06346949593717
63109.06094052386,166805.0,92753.0,5267.0,6.073558463482186
63109.0710294914,166799.0,92740.0,5240.0,6.083647431027202
63109.081118458955,166803.0,92765.0,5265.0,6.093736398579495
63109.0912074265,166807.0,92745.0,5222.0,6.103825366124511
63109.101296394045,166831.0,92747.0,5247.0,6.113914333669527
63109.1113853616,166814.0,92760.0,5240.0,6.124003301221819
63109.12147432914,166803.0,92709.0,5252.0,6.134092268766835
63109.13156329669,166838.0,92721.0,5253.0,6.1441812363118515
63109.14165226423,166795.0,92716.0,5228.0,6.154270203856868
63109.151741231784,166844.0,92733.0,5237.0,6.16435917140916
63109.16183019933,166860.0,92770.0,5262.0,6.174448138954176
63109.171919166874,166858.0,92770.0,5279.0,6.184537106499192
63109.18200813443,166829.0,92706.0,5256.0,6.1946260740514845
63109.19209710197,166838.0,92755.0,5252.0,6.204715041596501
63109.20218606952,166833.0,92732.0,5258.0,6.214804009141517
63109.21227503707,166850.0,92775.0,5239.0,6.224892976693809
63109.222364004614,166778.0,92744.0,5261.0,6.234981944238825
63109.23245297216,166806.0,92736.0,5250.0,6.245070911783841
63109.24254193971,166798.0,92728.0,5233.0,6.255159879336134
63109.25263090726,166767.0,92696.0,5252.0,6.26524884688115
63109.2627198748,166792.0,92730.0,5251.0,6.275337814426166
63109.272808842354,166799.0,92727.0,5241.0,6.285426781978458
63109.2828978099,166770.0,92748.0,5253.0,6.295515749523474
63109.292986777444,166768.0,92717.0,5221.0,6.305604717068491
63109.303075744996,166775.0,92726.0,5231.0,6.315693684620783
63109.31316471254,166801.0,92731.0,5231.0,6.325782652165799
63109.323253680086,166807.0,92718.0,5240.0,6.335871619710815
63109.33334264763,166798.0,92694.0,5237.0,6.345960587255831
63109.34343161518,166791.0,92725.0,5237.0,6.3560495548081235
63109.35352058273,166812.0,92731.0,5252.0,6.36613852235314
63109.36360955027,166815.0,92765.0,5227.0,6.376227489898156
63109.373698517826,166837.0,92756.0,5276.0,6.386316457450448
63109.38378748537,166803.0,92718.0,5250.0,6.396405424995464
63109.393876452916,166839.0,92741.0,5261.0,6.4064943925404805
63109.40396542047,166840.0,92758.0,5278.0,6.416583360092773
63109.41405438801,166856.0,92748.0,5286.0,6.426672327637789
63109.42414335556,166858.0,92765.0,5286.0,6.436761295182805
63109.43423232311,166880.0,92749.0,5276.0,6.446850262735097
63109.444321290655,166898.0,92737.0,5268.0,6.456939230280113
63109.4544102582,166873.0,92721.0,5275.0,6.46702819782513
63109.46449922575,166899.0,92728.0,5301.0,6.477117165377422
63109.4745881933,166920.0,92748.0,5298.0,6.487206132922438
63109.48467716084,166938.0,92796.0,5322.0,6.497295100467454
63109.49476612839,166922.0,92763.0,5276.0,6.50738406801247
63109.50485509594,166944.0,92778.0,5308.0,6.5174730355647625
63109.514944063485,166948.0,92766.0,5309.0,6.527562003109779
63109.52503303103,166957.0,92764.0,5316.0,6.537650970654795
63109.53512199858,166949.0,92745.0,5314.0,6.547739938207087
63109.54521096613,166945.0,92769.0,5315.0,6.557828905752103
63109.55529993367,166953.0,92769.0,5302.0,6.5679178732971195
63109.565388901225,166927.0,92754.0,5348.0,6.578006840849412
63109.57547786877,166923.0,92767.0,5307.0,6.588095808394428
63109.585566836315,166916.0,92756.0,5326.0,6.598184775939444
63109.59565580387,166931.0,92776.0,5320.0,6.608273743491736
63109.60574477141,166940.0,92753.0,5345.0,6.618362711036752
63109.61583373896,166898.0,92759.0,5343.0,6.628451678581769
63109.62592270651,166906.0,92784.0,5345.0,6.638540646134061
63109.636011674054,166846.0,92769.0,5322.0,6.648629613679077
63109.6461006416,166846.0,92768.0,5325.0,6.658718581224093
63109.65618960915,166800.0,92768.0,5299.0,6.668807548776385
63109.6662785767,166765.0,92733.0,5323.0,6.678896516321402
63109.67636754424,166768.0,92754.0,5271.0,6.688985483866418
63109.68645651179,166726.0,92733.0,5267.0,6.699074451411434
63109.69654547934,166692.0,92700.0,5265.0,6.709163418963726
63109.706634446884,166678.0,92761.0,5258.0,6.719252386508742
63109.71672341443,166690.0,92696.0,5227.0,6.7293413540537586
63109.72681238198,166663.0,92713.0,5221.0,6.739430321606051
63109.736901349526,166660.0,92689.0,5209.0,6.749519289151067
63109.74699031707,166664.0,92714.0,5223.0,6.759608256696083
63109.75707928462,166631.0,92699.0,5196.0,6.769697224248375
63109.76716825217,166663.0,92717.0,5219.0,6.7797861917933915
63109.777257219714,166670.0,92697.0,5185.0,6.789875159338408
63109.787346187266,166667.0,92690.0,5214.0,6.7999641268907
63109.79743515481,166673.0,92671.0,5221.0,6.810053094435716
63109.807524122356,166690.0,92706.0,5216.0,6.820142061980732
63109.81761308991,166717.0,92732.0,5205.0,6.830231029533024
63109.82770205745,166702.0,92706.0,5232.0,6.840319997078041
63109.837791025,166732.0,92742.0,5236.0,6.850408964623057
63109.84787999255,166727.0,92725.0,5237.0,6.860497932175349
63109.857968960096,166750.0,92736.0,5198.0,6.870586899720365
63109.86805792764,166742.0,92707.0,5225.0,6.880675867265381
63109.878146895186,166776.0,92746.0,5226.0,6.890764834810398
63109.88823586274,166765.0,92731.0,5247.0,6.90085380236269
63109.89832483028,166736.0,92713.0,5260.0,6.910942769907706
63109.90841379783,166763.0,92764.0,5268.0,6.921031737452722
63109.91850276538,166775.0,92694.0,5264.0,6.931120705005014
63109.928591732925,166750.0,92722.0,5252.0,6.9412096725500305
63109.93868070047,166738.0,92702.0,5251.0,6.951298640095047
63109.94876966802,166762.0,92735.0,5258.0,6.961387607647339
63109.95885863557,166714.0,92725.0,5224.0,6.971476575192355
63109.96894760311,166743.0,92727.0,5230.0,6.981565542737371
63109.979036570665,166727.0,92672.0,5225.0,6.9916545102896634
63109.98912553821,166732.0,92697.0,5241.0,7.00174347783468
63109.999214505755,166725.0,92689.0,5226.0,7.011832445379696
63110.00930347331,166741.0,92723.0,5225.0,7.021921412931988
63110.01939244085,166740.0,92719.0,5245.0,7.032010380477004
63110.0294814084,166740.0,92741.0,5247.0,7.04209934802202
63110.03957037594,166756.0,92758.0,5242.0,7.052188315567037
63110.049659343495,166752.0,92731.0,5233.0,7.062277283119329
63110.05974831104,166792.0,92737.0,5235.0,7.072366250664345
63110.069837278585,166782.0,92731.0,5243.0,7.082455218209361
63110.07992624614,166756.0,92715.0,5241.0,7.092544185761653
63110.09001521368,166778.0,92726.0,5228.0,7.1026331533066696
63110.10010418123,166775.0,92704.0,5263.0,7.112722120851686
63110.11019314878,166808.0,92753.0,5286.0,7.122811088403978
63110.120282116324,166825.0,92715.0,5261.0,7.132900055948994
63110.13037108387,166836.0,92742.0,5280.0,7.14298902349401
63110.14046005142,166838.0,92743.0,5263.0,7.1530779910463025
63110.15054901897,166844.0,92727.0,5249.0,7.163166958591319
63110.16063798651,166845.0,92780.0,5279.0,7.173255926136335
63110.170726954064,166862.0,92758.0,5273.0,7.183344893688627
63110.18081592161,166873.0,92744.0,5280.0,7.193433861233643
63110.190904889154,166869.0,92750.0,5290.0,7.2035228287786595
63110.200993856706,166913.0,92736.0,5322.0,7.213611796330952
63110.21108282425,166925.0,92746.0,5298.0,7.223700763875968
63110.221171791796,166944.0,92788.0,5307.0,7.233789731420984
63110.23126075934,166935.0,92766.0,5306.0,7.243878698966
63110.24134972689,166992.0,92815.0,5329.0,7.253967666518292
63110.25143869444,166982.0,92785.0,5314.0,7.264056634063309
63110.26152766198,166995.0,92811.0,5326.0,7.274145601608325
63110.271616629536,167022.0,92823.0,5341.0,7.284234569160617
63110.28170559708,166998.0,92786.0,5347.0,7.294323536705633
63110.291794564626,166990.0,92813.0,5357.0,7.304412504250649
63110.30188353218,167023.0,92812.0,5359.0,7.3145014718029415
63110.31197249972,167031.0,92782.0,5367.0,7.324590439347958
63110.32206146727,166960.0,92790.0,5364.0,7.334679406892974
63110.33215043482,166932.0,92774.0,5381.0,7.344768374445266
63110.342239402366,166881.0,92773.0,5345.0,7.354857341990282
63110.35232836991,166820.0,92764.0,5333.0,7.3649463095352985
63110.36241733746,166813.0,92795.0,5336.0,7.375035277087591
63110.37250630501,166772.0,92765.0,5322.0,7.385124244632607
63110.38259527255,166777.0,92765.0,5313.0,7.395213212177623
63110.392684240105,166725.0,92739.0,5303.0,7.405302179729915
63110.40277320765,166760.0,92753.0,5323.0,7.415391147274931
63110.412862175195,166651.0,92718.0,5293.0,7.425480114819948
63110.42295114274,166659.0,92735.0,5295.0,7.435569082364964
63110.43304011029,166626.0,92731.0,5289.0,7.445658049917256
63110.44312907784,166592.0,92738.0,5271.0,7.455747017462272
63110.45321804538,166596.0,92699.0,5260.0,7.465835985007288
63110.463307012935,166594.0,92680.0,5307.0,7.475924952559581
63110.47339598048,166562.0,92695.0,5301.0,7.486013920104597
63110.483484948025,166574.0,92691.0,5297.0,7.496102887649613
63110.49357391558,166520.0,92705.0,5287.0,7.506191855201905
63110.50366288312,166551.0,92692.0,5280.0,7.516280822746921
63110.51375185067,166572.0,92682.0,5272.0,7.5263697902919375
63110.52384081822,166547.0,92670.0,5262.0,7.53645875784423
63110.533929785764,166565.0,92696.0,5305.0,7.546547725389246
63110.54401875331,166564.0,92686.0,5298.0,7.556636692934262
63110.55410772086,166539.0,92658.0,5269.0,7.566725660486554
63110.56419668841,166532.0,92712.0,5312.0,7.5768146280315705
63110.57428565595,166568.0,92670.0,5303.0,7.586903595576587
63110.5843746235,166606.0,92694.0,5317.0,7.596992563121603
63110.59446359105,166630.0,92711.0,5312.0,7.607081530673895
63110.604552558594,166649.0,92700.0,5336.0,7.617170498218911
63110.61464152614,166593.0,92688.0,5319.0,7.627259465763927
63110.62473049369,166659.0,92709.0,5327.0,7.63734843331622
63110.63481946124,166673.0,92711.0,5333.0,7.647437400861236
63110.64490842878,166657.0,92703.0,5316.0,7.657526368406252
63110.654997396334,166689.0,92720.0,5327.0,7.667615335958544
63110.66508636388,166704.0,92719.0,5372.0,7.67770430350356
63110.675175331424,166722.0,92715.0,5349.0,7.687793271048577
63110.685264298976,166720.0,92729.0,5335.0,7.697882238600869
63110.69535326652,166733.0,92753.0,5356.0,7.707971206145885
63110.705442234066,166735.0,92730.0,5349.0,7.718060173690901
63110.71553120162,166757.0,92726.0,5355.0,7.728149141243193
63110.72562016916,166804.0,92750.0,5347.0,7.7382381087882095
63110.73570913671,166807.0,92772.0,5394.0,7.748327076333226
63110.74579810426,166781.0,92726.0,5348.0,7.758416043885518
63110.755887071806,166806.0,92743.0,5364.0,7.768505011430534
63110.76597603935,166826.0,92782.0,5393.0,7.77859397897555
63110.776065006896,166802.0,92754.0,5356.0,7.7886829465205665
63110.78615397445,166828.0,92793.0,5397.0,7.798771914072859
63110.79624294199,166830.0,92748.0,5372.0,7.808860881617875
63110.80633190954,166814.0,92769.0,5405.0,7.818949849162891
63110.81642087709,166787.0,92726.0,5351.0,7.829038816715183
63110.826509844635,166819.0,92750.0,5410.0,7.839127784260199
63110.83659881218,166816.0,92743.0,5384.0,7.849216751805216
63110.84668777973,166792.0,92730.0,5361.0,7.859305719357508
63110.85677674728,166833.0,92739.0,5362.0,7.869394686902524
63110.86686571482,166838.0,92729.0,5392.0,7.87948365444754
63110.876954682375,166836.0,92738.0,5385.0,7.889572621999832
63110.88704364992,166856.0,92761.0,5366.0,7.8996615895448485
63110.897132617465,166890.0,92773.0,5411.0,7.909750557089865
63110.90722158502,166888.0,92733.0,5356.0,7.919839524642157
63110.91731055256,166936.0,92763.0,5391.0,7.929928492187173
63110.92739952011,166979.0,92776.0,5373.0,7.940017459732189
63110.93748848766,167005.0,92804.0,5412.0,7.9501064272844815
63110.947577455205,167011.0,92793.0,5393.0,7.960195394829498
63110.95766642275,167006.0,92789.0,5391.0,7.970284362374514
63110.967755390295,167011.0,92798.0,5414.0,7.98037332991953
63110.97784435785,166990.0,92781.0,5382.0,7.990462297471822
63110.98793332539,166959.0,92748.0,5379.0,8.000551265016838
63110.99802229294,166971.0,92760.0,5405.0,8.010640232561855
63111.00811126049,166895.0,92764.0,5393.0,8.020729200114147
63111.018200228034,166876.0,92727.0,5341.0,8.030818167659163
63111.02828919558,166860.0,92778.0,5362.0,8.04090713520418
63111.03837816313,166808.0,92750.0,5310.0,8.050996102756471
63111.04846713068,166744.0,92721.0,5276.0,8.061085070301488
63111.05855609822,166722.0,92725.0,5248.0,8.071174037846504
63111.068645065774,166650.0,92699.0,5254.0,8.081263005398796
63111.07873403332,166651.0,92707.0,5225.0,8.091351972943812
63111.088823000864,166583.0,92670.0,5194.0,8.101440940488828
63111.098911968416,166594.0,92692.0,5202.0,8.11152990804112
63111.10900093596,166516.0,92662.0,5155.0,8.121618875586137
63111.11908990351,166527.0,92669.0,5161.0,8.131707843131153
63111.12917887105,166524.0,92673.0,5126.0,8.14179681067617
63111.139267838604,166473.0,92646.0,5143.0,8.151885778228461
63111.14935680615,166463.0,92677.0,5141.0,8.161974745773477
63111.159445773694,166462.0,92662.0,5134.0,8.172063713318494
63111.169534741246,166464.0,92673.0,5130.0,8.182152680870786
63111.17962370879,166433.0,92620.0,5098.0,8.192241648415802
63111.189712676336,166419.0,92625.0,5114.0,8.202330615960818
63111.19980164389,166425.0,92638.0,5110.0,8.21241958351311
63111.20989061143,166395.0,92617.0,5113.0,8.222508551058127
63111.21997957898,166403.0,92635.0,5096.0,8.232597518603143
63111.23006854653,166416.0,92667.0,5148.0,8.242686486155435
63111.240157514076,166387.0,92644.0,5081.0,8.252775453700451
63111.25024648162,166416.0,92612.0,5117.0,8.262864421245467
63111.26033544917,166450.0,92658.0,5127.0,8.27295338879776
63111.27042441672,166382.0,92626.0,5080.0,8.283042356342776
63111.28051338426,166386.0,92628.0,5083.0,8.293131323887792
63111.290602351815,166394.0,92642.0,5090.0,8.303220291440084
63111.30069131936,166381.0,92625.0,5082.0,8.3133092589851
63111.310780286905,166382.0,92602.0,5068.0,8.323398226530117
63111.32086925445,166387.0,92632.0,5052.0,8.333487194075133
63111.330958222,166390.0,92620.0,5084.0,8.343576161627425
63111.34104718955,166367.0,92624.0,5096.0,8.353665129172441
63111.35113615709,166382.0,92629.0,5079.0,8.363754096717457
63111.361225124645,166381.0,92631.0,5089.0,8.37384306426975
63111.37131409219,166360.0,92618.0,5070.0,8.383932031814766
63111.381403059735,166389.0,92590.0,5049.0,8.394020999359782
63111.39149202729,166389.0,92653.0,5085.0,8.404109966912074
63111.40158099483,166347.0,92580.0,5050.0,8.41419893445709
63111.41166996238,166366.0,92624.0,5064.0,8.424287902002106
63111.42175892993,166373.0,92615.0,5055.0,8.434376869554399
63111.431847897475,166414.0,92633.0,5098.0,8.444465837099415
63111.44193686502,166367.0,92617.0,5052.0,8.454554804644431
63111.45202583257,166407.0,92627.0,5072.0,8.464643772196723
63111.46211480012,166430.0,92627.0,5067.0,8.47473273974174
63111.47220376766,166395.0,92634.0,5069.0,8.484821707286756
63111.48229273521,166444.0,92667.0,5086.0,8.494910674831772
63111.49238170276,166444.0,92645.0,5089.0,8.504999642384064
63111.502470670304,166430.0,92618.0,5096.0,8.51508860992908
63111.51255963785,166418.0,92606.0,5089.0,8.525177577474096
63111.5226486054,166474.0,92665.0,5080.0,8.535266545026388
63111.53273757295,166495.0,92627.0,5118.0,8.545355512571405
63111.54282654049,166453.0,92637.0,5130.0,8.555444480116421
63111.552915508044,166490.0,92662.0,5105.0,8.565533447668713
63111.56300447559,166522.0,92679.0,5133.0,8.57562241521373
63111.573093443134,166515.0,92654.0,5121.0,8.585711382758745
63111.583182410686,166502.0,92633.0,5123.0,8.595800350311038
63111.59327137823,166547.0,92685.0,5125.0,8.605889317856054
63111.603360345776,166523.0,92653.0,5117.0,8.61597828540107
63111.61344931333,166557.0,92670.0,5136.0,8.626067252953362
63111.62353828087,166552.0,92639.0,5132.0,8.636156220498378
63111.63362724842,166598.0,92707.0,5167.0,8.646245188043395
63111.64371621597,166584.0,92657.0,5149.0,8.656334155595687
63111.653805183516,166584.0,92682.0,5142.0,8.666423123140703
63111.66389415106,166629.0,92696.0,5144.0,8.67651209068572
63111.673983118606,166576.0,92670.0,5146.0,8.686601058230735
63111.68407208616,166616.0,92711.0,5176.0,8.696690025783028
63111.6941610537,166581.0,92687.0,5154.0,8.706778993328044
63111.70425002125,166556.0,92657.0,5143.0,8.71686796087306
63111.7143389888,166506.0,92640.0,5129.0,8.726956928425352
63111.724427956346,166523.0,92683.0,5124.0,8.737045895970368
63111.73451692389,166467.0,92657.0,5104.0,8.747134863515384
63111.74460589144,166407.0,92643.0,5107.0,8.757223831067677
63111.75469485899,166380.0,92632.0,5051.0,8.767312798612693
63111.76478382653,166355.0,92629.0,5074.0,8.777401766157709
63111.774872794085,166296.0,92618.0,5000.0,8.787490733710001
63111.78496176163,166277.0,92603.0,5020.0,8.797579701255017
63111.795050729175,166294.0,92617.0,5033.0,8.807668668800034
63111.80513969673,166180.0,92609.0,5006.0,8.817757636352326
63111.81522866427,166216.0,92565.0,4973.0,8.827846603897342
63111.82531763182,166202.0,92579.0,4985.0,8.837935571442358
63111.83540659937,166218.0,92595.0,4996.0,8.84802453899465
63111.845495566915,166166.0,92553.0,4959.0,8.858113506539667
63111.85558453446,166204.0,92608.0,4972.0,8.868202474084683
63111.865673502005,166174.0,92591.0,4970.0,8.878291441629699
63111.87576246956,166181.0,92568.0,4981.0,8.888380409181991
63111.8858514371,166184.0,92608.0,4981.0,8.898469376727007
63111.89594040465,166172.0,92561.0,4981.0,8.908558344272024
63111.9060293722,166163.0,92580.0,4959.0,8.918647311824316
63111.916118339745,166144.0,92582.0,4958.0,8.928736279369332
63111.92620730729,166164.0,92600.0,4976.0,8.938825246914348
63111.93629627484,166131.0,92551.0,4993.0,8.94891421446664
63111.94638524239,166151.0,92587.0,4961.0,8.959003182011656
63111.95647420993,166154.0,92573.0,4969.0,8.969092149556673
63111.966563177484,166156.0,92580.0,4961.0,8.979181117108965
63111.97665214503,166169.0,92567.0,4966.0,8.989270084653981
63111.986741112574,166152.0,92597.0,4966.0,8.999359052198997
63111.99683008013,166161.0,92617.0,4992.0,9.00944801975129
63112.00691904767,166133.0,92602.0,4973.0,9.019536987296306
63112.01700801522,166151.0,92597.0,4962.0,9.029625954841322
63112.02709698276,166164.0,92594.0,4968.0,9.039714922386338
63112.037185950314,166160.0,92560.0,4957.0,9.04980388993863
63112.04727491786,166173.0,92590.0,4994.0,9.059892857483646
63112.057363885404,166177.0,92614.0,4975.0,9.069981825028663
63112.067452852956,166161.0,92576.0,4955.0,9.080070792580955
63112.0775418205,166124.0,92562.0,4977.0,9.090159760125971
63112.087630788046,166152.0,92595.0,4989.0,9.100248727670987
63112.0977197556,166151.0,92572.0,4976.0,9.11033769522328
63112.10780872314,166164.0,92593.0,4966.0,9.120426662768296
63112.11789769069,166154.0,92603.0,4992.0,9.130515630313312
63112.12798665824,166176.0,92614.0,4983.0,9.140604597865604
63112.138075625786,166187.0,92575.0,4964.0,9.15069356541062
63112.14816459333,166194.0,92595.0,4982.0,9.160782532955636
63112.15825356088,166203.0,92596.0,5006.0,9.170871500507928
63112.16834252843,166195.0,92597.0,4992.0,9.180960468052945
63112.17843149597,166191.0,92600.0,4986.0,9.19104943559796
63112.188520463525,166238.0,92615.0,4994.0,9.201138403150253
63112.19860943107,166239.0,92608.0,5028.0,9.21122737069527
63112.208698398616,166249.0,92641.0,5024.0,9.221316338240285
63112.21878736616,166263.0,92640.0,5018.0,9.231405305785302
63112.22887633371,166275.0,92634.0,5021.0,9.241494273337594
63112.23896530126,166294.0,92620.0,5025.0,9.25158324088261
63112.2490542688,166316.0,92627.0,5027.0,9.261672208427626
63112.259143236355,166309.0,92652.0,5040.0,9.271761175979918
63112.2692322039,166325.0,92646.0,5026.0,9.281850143524935
63112.279321171445,166305.0,92637.0,5068.0,9.29193911106995
63112.289410139,166358.0,92671.0,5039.0,9.302028078622243
63112.29949910654,166321.0,92624.0,5052.0,9.312117046167259
63112.30958807409,166353.0,92660.0,5075.0,9.322206013712275
63112.31967704164,166367.0,92668.0,5062.0,9.332294981264567
63112.329766009185,166423.0,92655.0,5069.0,9.342383948809584
63112.33985497673,166357.0,92653.0,5035.0,9.3524729163546
63112.34994394428,166400.0,92665.0,5090.0,9.362561883906892
63112.36003291183,166403.0,92658.0,5068.0,9.372650851451908
63112.37012187937,166415.0,92666.0,5074.0,9.382739818996924
63112.380210846924,166398.0,92651.0,5083.0,9.392828786549217
63112.39029981447,166399.0,92660.0,5077.0,9.402917754094233
63112.400388782014,166440.0,92688.0,5089.0,9.413006721639249
63112.41047774956,166430.0,92681.0,5080.0,9.423095689184265
63112.42056671711,166480.0,92712.0,5118.0,9.433184656736557
63112.43065568466,166481.0,92726.0,5121.0,9.443273624281574
63112.4407446522,166458.0,92693.0,5093.0,9.45336259182659
63112.450833619754,166432.0,92707.0,5118.0,9.463451559378882
63112.4609225873,166419.0,92692.0,5103.0,9.473540526923898
63112.471011554844,166351.0,92664.0,5056.0,9.483629494468914
63112.4811005224,166314.0,92657.0,5049.0,9.493718462021207
63112.49118948994,166293.0,92665.0,5053.0,9.503807429566223
63112.50127845749,166216.0,92632.0,4997.0,9.513896397111239
63112.51136742504,166176.0,92613.0,5033.0,9.523985364663531
63112.521456392584,166167.0,92620.0,4980.0,9.534074332208547
63112.53154536013,166157.0,92639.0,4989.0,9.544163299753563
63112.54163432768,166097.0,92599.0,4931.0,9.554252267305856
63112.551723295226,166121.0,92640.0,4967.0,9.564341234850872
63112.56181226277,166074.0,92608.0,4945.0,9.574430202395888
63112.571901230316,166052.0,92581.0,4904.0,9.584519169940904
63112.58199019787,166028.0,92574.0,4909.0,9.594608137493196
63112.59207916541,166034.0,92576.0,4934.0,9.604697105038213
63112.60216813296,166032.0,92582.0,4918.0,9.614786072583229
63112.61225710051,166016.0,92581.0,4934.0,9.624875040135521
63112.622346068056,166065.0,92593.0,4950.0,9.634964007680537
63112.6324350356,166016.0,92577.0,4915.0,9.645052975225553
63112.64252400315,166058.0,92600.0,4930.0,9.655141942777846
63112.6526129707,166053.0,92604.0,4938.0,9.665230910322862
63112.66270193824,166053.0,92620.0,4959.0,9.675319877867878
63112.672790905795,166042.0,92580.0,4906.0,9.68540884542017
63112.68287987334,166052.0,92593.0,4931.0,9.695497812965186
63112.692968840885,166066.0,92586.0,4920.0,9.705586780510203
63112.70305780844,166070.0,92610.0,4917.0,9.715675748062495
63112.71314677598,166050.0,92574.0,4951.0,9.72576471560751
63112.72323574353,166074.0,92607.0,4933.0,9.735853683152527
63112.73332471108,166039.0,92632.0,4943.0,9.74594265070482
63112.743413678625,166039.0,92603.0,4926.0,9.756031618249835
63112.75350264617,166056.0,92610.0,4939.0,9.766120585794852
63112.763591613715,166051.0,92605.0,4939.0,9.776209553339868
63112.77368058127,166071.0,92621.0,4948.0,9.78629852089216
63112.78376954881,166031.0,92588.0,4920.0,9.796387488437176
63112.79385851636,166077.0,92639.0,4944.0,9.806476455982192
63112.80394748391,166051.0,92611.0,4937.0,9.816565423534485
63112.814036451455,166028.0,92624.0,4932.0,9.8266543910795
63112.824125419,166076.0,92634.0,4957.0,9.836743358624517
63112.83421438655,166062.0,92636.0,4958.0,9.84683232617681
63112.8443033541,166065.0,92603.0,4935.0,9.856921293721825
63112.85439232164,166062.0,92613.0,4949.0,9.867010261266842
63112.864481289194,166119.0,92625.0,4945.0,9.877099228819134
63112.87457025674,166088.0,92627.0,4951.0,9.88718819636415
63112.884659224284,166043.0,92600.0,4936.0,9.897277163909166
63112.89474819184,166094.0,92625.0,4954.0,9.907366131461458
63112.90483715938,166084.0,92635.0,4970.0,9.917455099006474
63112.91492612693,166081.0,92614.0,4947.0,9.92754406655149
63112.92501509447,166139.0,92638.0,4965.0,9.937633034096507
63112.935104062024,166165.0,92633.0,4967.0,9.947722001648799
63112.94519302957,166169.0,92669.0,4991.0,9.957810969193815
63112.955281997114,166197.0,92649.0,5006.0,9.967899936738831
63112.96537096467,166153.0,92632.0,4988.0,9.977988904291124
63112.97545993221,166218.0,92642.0,4994.0,9.98807787183614
63112.98554889976,166206.0,92667.0,5002.0,9.998166839381156
63112.99563786731,166257.0,92671.0,5012.0,10.008255806933448
63113.005726834854,166178.0,92636.0,4984.0,10.018344774478464
63113.0158158024,166246.0,92664.0,5017.0,10.02843374202348
63113.02590476995,166239.0,92684.0,5010.0,10.038522709575773
63113.035993737496,166229.0,92645.0,5013.0,10.048611677120789
63113.04608270504,166283.0,92689.0,5046.0,10.058700644665805
63113.05617167259,166267.0,92669.0,5032.0,10.068789612218097
63113.06626064014,166268.0,92647.0,5029.0,10.078878579763114
63113.07634960768,166259.0,92672.0,5016.0,10.08896754730813
63113.086438575236,166295.0,92675.0,5040.0,10.099056514860422
63113.09652754278,166309.0,92692.0,5037.0,10.109145482405438
63113.106616510326,166285.0,92715.0,5042.0,10.119234449950454
63113.11670547787,166314.0,92664.0,5049.0,10.12932341749547
63113.12679444542,166340.0,92706.0,5042.0,10.139412385047763
63113.13688341297,166306.0,92694.0,5029.0,10.149501352592779
63113.14697238051,166312.0,92699.0,5047.0,10.159590320137795
63113.157061348065,166366.0,92707.0,5084.0,10.169679287690087
63113.16715031561,166360.0,92684.0,5086.0,10.179768255235103
63113.177239283155,166379.0,92698.0,5077.0,10.18985722278012
63113.18732825071,166369.0,92696.0,5063.0,10.199946190332412
63113.19741721825,166418.0,92726.0,5073.0,10.210035157877428
63113.2075061858,166408.0,92701.0,5098.0,10.220124125422444
63113.21759515335,166384.0,92714.0,5084.0,10.230213092974736
63113.227684120895,166365.0,92694.0,5082.0,10.240302060519753
63113.23777308844,166378.0,92719.0,5102.0,10.250391028064769
63113.24786205599,166317.0,92682.0,5087.0,10.260479995617061
63113.25795102354,166260.0,92680.0,5045.0,10.270568963162077
63113.26803999108,166183.0,92679.0,5021.0,10.280657930707093
63113.278128958635,166147.0,92658.0,4986.0,10.290746898259385
63113.28821792618,166156.0,92647.0,4987.0,10.300835865804402
63113.298306893725,166110.0,92648.0,4965.0,10.310924833349418
63113.30839586127,166119.0,92658.0,4966.0,10.321013800894434
63113.31848482882,166080.0,92619.0,4942.0,10.331102768446726
63113.32857379637,166083.0,92640.0,4922.0,10.341191735991742
63113.33866276391,166042.0,92624.0,4924.0,10.351280703536759
63113.348751731464,166026.0,92624.0,4923.0,10.36136967108905
63113.35884069901,166003.0,92606.0,4899.0,10.371458638634067
63113.368929666554,166044.0,92583.0,4949.0,10.381547606179083
63113.37901863411,165979.0,92620.0,4890.0,10.391636573731375
63113.38910760165,166020.0,92592.0,4908.0,10.401725541276392
63113.3991965692,166005.0,92665.0,4927.0,10.411814508821408
63113.40928553675,165996.0,92597.0,4912.0,10.4219034763737
63113.419374504294,166011.0,92614.0,4917.0,10.431992443918716
63113.42946347184,166025.0,92626.0,4926.0,10.442081411463732
63113.43955243939,166039.0,92631.0,4931.0,10.452170379016025
63113.449641406936,166047.0,92637.0,4944.0,10.46225934656104
63113.45973037448,166025.0,92619.0,4928.0,10.472348314106057
63113.46981934203,166026.0,92624.0,4922.0,10.482437281658349
63113.47990830958,166021.0,92593.0,4929.0,10.492526249203365
63113.48999727712,166021.0,92618.0,4928.0,10.502615216748381
63113.50008624467,166051.0,92618.0,4951.0,10.512704184293398
63113.51017521222,166032.0,92620.0,4933.0,10.52279315184569
63113.520264179766,166045.0,92604.0,4913.0,10.532882119390706
63113.53035314731,166039.0,92625.0,4929.0,10.542971086935722
63113.54044211486,166032.0,92645.0,4953.0,10.553060054488014
63113.55053108241,166033.0,92613.0,4935.0,10.56314902203303
63113.56062004995,166025.0,92605.0,4930.0,10.573237989578047
63113.570709017506,166020.0,92620.0,4912.0,10.583326957130339
63113.58079798505,166006.0,92598.0,4923.0,10.593415924675355
63113.590886952596,166032.0,92634.0,4923.0,10.603504892220371
63113.60097592015,166051.0,92638.0,4922.0,10.613593859772664
63113.61106488769,166017.0,92600.0,4913.0,10.62368282731768
63113.62115385524,166057.0,92630.0,4938.0,10.633771794862696
63113.63124282279,166053.0,92630.0,4940.0,10.643860762414988
63113.641331790335,166067.0,92650.0,4939.0,10.653949729960004
63113.65142075788,166060.0,92629.0,4953.0,10.66403869750502
63113.661509725425,166039.0,92601.0,4925.0,10.674127665050037
63113.67159869298,166051.0,92635.0,4930.0,10.684216632602329
63113.68168766052,166044.0,92637.0,4945.0,10.694305600147345
63113.69177662807,166092.0,92669.0,4980.0,10.704394567692361
63113.70186559562,166136.0,92630.0,4990.0,10.714483535244653
63113.711954563165,166118.0,92650.0,4967.0,10.72457250278967
63113.72204353071,166146.0,92644.0,4949.0,10.734661470334686
63113.73213249826,166171.0,92677.0,4990.0,10.744750437886978
63113.74222146581,166141.0,92652.0,4959.0,10.754839405431994
63113.75231043335,166183.0,92663.0,4987.0,10.76492837297701
63113.762399400905,166222.0,92676.0,5022.0,10.775017340529303
63113.77248836845,166178.0,92647.0,4991.0,10.785106308074319
63113.782577335995,166205.0,92665.0,5002.0,10.795195275619335
63113.79266630355,166229.0,92669.0,5002.0,10.805284243171627
63113.80275527109,166231.0,92697.0,5016.0,10.815373210716643
63113.81284423864,166211.0,92673.0,4994.0,10.82546217826166
63113.82293320619,166280.0,92685.0,5048.0,10.835551145813952
63113.833022173734,166255.0,92691.0,5033.0,10.845640113358968
63113.84311114128,166278.0,92683.0,5041.0,10.855729080903984
63113.853200108824,166285.0,92670.0,5037.0,10.865818048449
63113.86328907638,166315.0,92722.0,5048.0,10.875907016001293
63113.87337804392,166306.0,92693.0,5045.0,10.885995983546309
63113.88346701147,166292.0,92701.0,5047.0,10.896084951091325
63113.89355597902,166337.0,92736.0,5059.0,10.906173918643617
63113.903644946564,166338.0,92678.0,5082.0,10.916262886188633
63113.91373391411,166333.0,92706.0,5051.0,10.92635185373365
63113.92382288166,166345.0,92678.0,5065.0,10.936440821285942
63113.933911849206,166320.0,92726.0,5068.0,10.946529788830958
63113.94400081675,166348.0,92693.0,5052.0,10.956618756375974
63113.9540897843,166348.0,92717.0,5070.0,10.966707723928266
63113.96417875185,166383.0,92719.0,5078.0,10.976796691473282
63113.97426771939,166404.0,92716.0,5073.0,10.986885659018299
63113.984356686946,166401.0,92706.0,5084.0,10.99697462657059
63113.99444565449,166408.0,92733.0,5093.0,11.007063594115607
63114.004534622036,166371.0,92714.0,5083.0,11.017152561660623
63114.01462358958,166316.0,92700.0,5067.0,11.02724152920564
63114.02471255713,166329.0,92723.0,5075.0,11.037330496757932
63114.03480152468,166243.0,92658.0,5042.0,11.047419464302948
63114.04489049222,166236.0,92679.0,5025.0,11.057508431847964
63114.054979459775,166173.0,92655.0,5003.0,11.067597399400256
63114.06506842732,166156.0,92652.0,4993.0,11.077686366945272
63114.075157394866,166098.0,92632.0,4984.0,11.087775334490289
63114.08524636242,166109.0,92650.0,4958.0,11.09786430204258
63114.09533532996,166105.0,92650.0,4962.0,11.107953269587597
63114.10542429751,166064.0,92633.0,4954.0,11.118042237132613
63114.11551326506,166078.0,92624.0,4931.0,11.128131204684905
63114.125602232605,166057.0,92637.0,4927.0,11.138220172229921
63114.13569120015,166046.0,92639.0,4932.0,11.148309139774938
63114.1457801677,166058.0,92638.0,4914.0,11.15839810732723
63114.15586913525,166050.0,92643.0,4948.0,11.168487074872246
63114.16595810279,166064.0,92633.0,4936.0,11.178576042417262
63114.176047070345,166052.0,92615.0,4918.0,11.188665009969554
63114.18613603789,166075.0,92622.0,4955.0,11.19875397751457
63114.196225005435,166061.0,92642.0,4935.0,11.208842945059587
63114.20631397298,166045.0,92624.0,4908.0,11.218931912604603
63114.21640294053,166031.0,92629.0,4922.0,11.229020880156895
63114.22649190808,166092.0,92671.0,4960.0,11.239109847701911
63114.23658087562,166076.0,92613.0,4944.0,11.249198815246928
63114.246669843174,166084.0,92649.0,4945.0,11.25928778279922
63114.25675881072,166086.0,92640.0,4957.0,11.269376750344236
63114.266847778264,166068.0,92623.0,4973.0,11.279465717889252
63114.27693674582,166120.0,92634.0,4967.0,11.289554685441544
63114.28702571336,166110.0,92651.0,4961.0,11.29964365298656
63114.29711468091,166151.0,92642.0,4966.0,11.309732620531577
63114.30720364846,166097.0,92631.0,4948.0,11.319821588083869
63114.317292616004,166142.0,92659.0,4970.0,11.329910555628885
63114.32738158355,166121.0,92645.0,4951.0,11.339999523173901
63114.3374705511,166043.0,92630.0,4934.0,11.350088490726193
63114.34755951865,166071.0,92675.0,4937.0,11.36017745827121
63114.35764848619,166085.0,92641.0,4969.0,11.370266425816226
63114.367737453744,166128.0,92641.0,4954.0,11.380355393368518
63114.37782642129,166089.0,92628.0,4952.0,11.390444360913534
63114.387915388834,166143.0,92650.0,4983.0,11.40053332845855
63114.39800435638,166122.0,92654.0,4959.0,11.410622296003567
63114.40809332393,166145.0,92654.0,4954.0,11.420711263555859
63114.418182291476,166133.0,92670.0,4959.0,11.430800231100875
63114.42827125902,166186.0,92683.0,4993.0,11.440889198645891
63114.43836022657,166163.0,92653.0,4956.0,11.450978166198183
63114.44844919412,166175.0,92669.0,4976.0,11.4610671337432
63114.45853816166,166194.0,92692.0,4977.0,11.471156101288216
63114.468627129216,166133.0,92623.0,4985.0,11.481245068840508
63114.47871609676,166181.0,92695.0,4993.0,11.491334036385524
63114.488805064306,166231.0,92677.0,5010.0,11.50142300393054
63114.49889403186,166223.0,92670.0,4991.0,11.511511971482832
63114.5089829994,166232.0,92660.0,5009.0,11.521600939027849
63114.51907196695,166295.0,92696.0,5005.0,11.531689906572865
63114.5291609345,166249.0,92680.0,5014.0,11.541778874125157
63114.539249902045,166280.0,92697.0,5027.0,11.551867841670173
63114.54933886959,166326.0,92724.0,5025.0,11.56195680921519
63114.559427837135,166338.0,92711.0,5051.0,11.572045776760206
63114.56951680469,166321.0,92714.0,5015.0,11.582134744312498
63114.57960577223,166337.0,92710.0,5046.0,11.592223711857514
63114.58969473978,166327.0,92725.0,5066.0,11.60231267940253
63114.59978370733,166338.0,92703.0,5047.0,11.612401646954822
63114.609872674875,166321.0,92708.0,5048.0,11.622490614499839
63114.61996164242,166372.0,92706.0,5057.0,11.632579582044855
63114.63005060997,166408.0,92725.0,5079.0,11.642668549597147
63114.64013957752,166399.0,92715.0,5042.0,11.652757517142163
63114.65022854506,166421.0,92741.0,5089.0,11.66284648468718
63114.660317512615,166427.0,92730.0,5081.0,11.672935452239471
63114.67040648016,166429.0,92735.0,5078.0,11.683024419784488
63114.680495447705,166424.0,92755.0,5084.0,11.693113387329504
63114.69058441526,166457.0,92748.0,5081.0,11.703202354881796
63114.7006733828,166472.0,92739.0,5083.0,11.713291322426812
63114.71076235035,166463.0,92738.0,5088.0,11.723380289971828
63114.7208513179,166514.0,92767.0,5104.0,11.73346925752412
63114.730940285444,166457.0,92733.0,5100.0,11.743558225069137
63114.74102925299,166433.0,92733.0,5072.0,11.753647192614153
63114.751118220534,166444.0,92742.0,5103.0,11.76373616015917
63114.76120718809,166443.0,92749.0,5102.0,11.773825127711461
63114.77129615563,166388.0,92725.0,5046.0,11.783914095256478
63114.78138512318,166365.0,92715.0,5051.0,11.794003062801494
63114.79147409073,166316.0,92725.0,5025.0,11.804092030353786
63114.801563058274,166260.0,92670.0,5015.0,11.814180997898802
63114.81165202582,166224.0,92718.0,5003.0,11.824269965443818
63114.82174099337,166229.0,92676.0,4982.0,11.83435893299611
63114.83182996092,166225.0,92672.0,4982.0,11.844447900541127
63114.84191892846,166177.0,92650.0,4952.0,11.854536868086143
63114.852007896014,166216.0,92683.0,4963.0,11.864625835638435
63114.86209686356,166163.0,92660.0,4953.0,11.874714803183451
63114.872185831104,166136.0,92662.0,4912.0,11.884803770728467
63114.882274798656,166132.0,92683.0,4949.0,11.89489273828076
63114.8923637662,166136.0,92643.0,4925.0,11.904981705825776
63114.902452733746,166153.0,92661.0,4950.0,11.915070673370792
63114.9125417013,166154.0,92647.0,4934.0,11.925159640923084
63114.92263066884,166177.0,92679.0,4961.0,11.9352486084681
63114.93271963639,166134.0,92653.0,4944.0,11.945337576013117
63114.94280860393,166165.0,92664.0,4941.0,11.955426543558133
63114.952897571486,166170.0,92696.0,4959.0,11.965515511110425
63114.96298653903,166176.0,92653.0,4945.0,11.975604478655441
63114.973075506576,166209.0,92681.0,4949.0,11.985693446200457
63114.98316447413,166199.0,92675.0,4955.0,11.99578241375275
63114.99325344167,166189.0,92668.0,4988.0,12.005871381297766
63115.00334240922,166158.0,92656.0,4946.0,12.015960348842782
63115.01343137677,166210.0,92702.0,5002.0,12.026049316395074
63115.023520344315,166243.0,92670.0,4994.0,12.03613828394009
63115.03360931186,166221.0,92659.0,4975.0,12.046227251485107
63115.04369827941,166220.0,92673.0,4963.0,12.056316219037399
63115.05378724696,166254.0,92681.0,4981.0,12.066405186582415
63115.0638762145,166188.0,92665.0,4967.0,12.076494154127431
63115.073965182055,166216.0,92680.0,4973.0,12.086583121679723
63115.0840541496,166223.0,92701.0,4973.0,12.09667208922474
63115.094143117145,166199.0,92676.0,4942.0,12.106761056769756
63115.10423208469,166236.0,92682.0,4959.0,12.116850024314772
63115.11432105224,166230.0,92681.0,4978.0,12.126938991867064
63115.12441001979,166235.0,92694.0,5003.0,12.13702795941208
63115.13449898733,166227.0,92662.0,4976.0,12.147116926957096
63115.144587954885,166203.0,92706.0,4983.0,12.157205894509389
63115.15467692243,166265.0,92681.0,4986.0,12.167294862054405
63115.164765889975,166289.0,92701.0,5002.0,12.177383829599421
63115.17485485753,166306.0,92715.0,4985.0,12.187472797151713
63115.18494382507,166342.0,92717.0,5023.0,12.19756176469673
63115.19503279262,166311.0,92709.0,5015.0,12.207650732241746
63115.20512176017,166292.0,92696.0,4993.0,12.217739699794038
63115.215210727714,166320.0,92723.0,5013.0,12.227828667339054
63115.22529969526,166332.0,92710.0,5006.0,12.23791763488407
63115.23538866281,166359.0,92718.0,5027.0,12.248006602436362
63115.24547763036,166367.0,92695.0,5018.0,12.258095569981379
63115.2555665979,166404.0,92731.0,5058.0,12.268184537526395
63115.265655565454,166372.0,92717.0,5049.0,12.278273505078687
63115.275744533,166411.0,92745.0,5043.0,12.288362472623703
63115.285833500544,166433.0,92771.0,5050.0,12.29845144016872
63115.29592246809,166407.0,92702.0,5040.0,12.308540407713735
63115.30601143564,166479.0,92761.0,5048.0,12.318629375266028
63115.316100403186,166464.0,92750.0,5070.0,12.328718342811044
63115.32618937073,166458.0,92756.0,5100.0,12.33880731035606
63115.33627833828,166462.0,92726.0,5076.0,12.348896277908352
63115.34636730583,166471.0,92781.0,5105.0,12.358985245453368
63115.35645627337,166523.0,92758.0,5100.0,12.369074212998385
63115.366545240926,166524.0,92766.0,5088.0,12.379163180550677
63115.37663420847,166521.0,92765.0,5094.0,12.389252148095693
63115.386723176016,166539.0,92760.0,5111.0,12.39934111564071
63115.39681214357,166564.0,92770.0,5108.0,12.409430083193001
63115.40690111111,166581.0,92785.0,5117.0,12.419519050738018
63115.41699007866,166596.0,92780.0,5144.0,12.429608018283034
63115.42707904621,166562.0,92763.0,5097.0,12.439696985835326
63115.437168013756,166612.0,92766.0,5141.0,12.449785953380342
63115.4472569813,166619.0,92786.0,5134.0,12.459874920925358
63115.457345948846,166655.0,92814.0,5160.0,12.469963888470375
63115.4674349164,166635.0,92771.0,5130.0,12.480052856022667
63115.47752388394,166669.0,92805.0,5151.0,12.490141823567683
63115.48761285149,166697.0,92770.0,5142.0,12.500230791112699
63115.49770181904,166672.0,92797.0,5146.0,12.510319758664991
63115.507790786585,166698.0,92829.0,5168.0,12.520408726210007
63115.51787975413,166667.0,92800.0,5173.0,12.530497693755024
63115.52796872168,166640.0,92810.0,5140.0,12.540586661307316
63115.53805768923,166582.0,92778.0,5135.0,12.550675628852332
63115.54814665677,166563.0,92795.0,5154.0,12.560764596397348
63115.558235624325,166512.0,92754.0,5074.0,12.57085356394964
63115.56832459187,166520.0,92739.0,5078.0,12.580942531494657
63115.578413559415,166480.0,92750.0,5044.0,12.591031499039673
63115.58850252697,166435.0,92726.0,5058.0,12.601120466591965
63115.59859149451,166475.0,92752.0,5051.0,12.611209434136981
63115.60868046206,166431.0,92753.0,5036.0,12.621298401681997
63115.61876942961,166452.0,92741.0,5020.0,12.63138736923429
63115.628858397155,166389.0,92716.0,5010.0,12.641476336779306
63115.6389473647,166413.0,92726.0,5003.0,12.651565304324322
63115.649036332245,166418.0,92727.0,5012.0,12.661654271869338
63115.6591252998,166409.0,92719.0,5039.0,12.67174323942163
63115.66921426734,166390.0,92700.0,4999.0,12.681832206966646
63115.67930323489,166434.0,92774.0,5035.0,12.691921174511663
63115.68939220244,166425.0,92736.0,5021.0,12.702010142063955
63115.699481169984,166411.0,92705.0,5005.0,12.712099109608971
63115.70957013753,166474.0,92755.0,5017.0,12.722188077153987
63115.71965910508,166481.0,92756.0,5042.0,12.73227704470628
63115.72974807263,166470.0,92731.0,5032.0,12.742366012251296
63115.73983704017,166507.0,92742.0,5062.0,12.752454979796312
63115.749926007724,166500.0,92736.0,5062.0,12.762543947348604
63115.76001497527,166467.0,92701.0,5018.0,12.77263291489362
63115.770103942814,166497.0,92742.0,5049.0,12.782721882438636
63115.780192910366,166508.0,92744.0,5037.0,12.792810849990929
63115.79028187791,166493.0,92724.0,5032.0,12.802899817535945
63115.800370845456,166512.0,92734.0,5046.0,12.812988785080961
63115.81045981301,166523.0,92766.0,5059.0,12.823077752633253
63115.82054878055,166519.0,92766.0,5057.0,12.83316672017827
63115.8306377481,166501.0,92742.0,5053.0,12.843255687723286
63115.84072671564,166503.0,92762.0,5025.0,12.853344655268302
63115.850815683196,166522.0,92755.0,5052.0,12.863433622820594
63115.86090465074,166508.0,92764.0,5080.0,12.87352259036561
63115.870993618286,166502.0,92714.0,5044.0,12.883611557910626
63115.88108258584,166509.0,92732.0,5038.0,12.893700525462918
63115.89117155338,166529.0,92747.0,5052.0,12.903789493007935
63115.90126052093,166520.0,92744.0,5030.0,12.91387846055295
63115.91134948848,166551.0,92762.0,5068.0,12.923967428105243
63115.921438456025,166557.0,92769.0,5070.0,12.93405639565026
63115.93152742357,166544.0,92758.0,5074.0,12.944145363195275
63115.94161639112,166535.0,92768.0,5068.0,12.954234330747568
63115.95170535867,166564.0,92773.0,5091.0,12.964323298292584
63115.96179432621,166550.0,92726.0,5067.0,12.9744122658376
63115.971883293765,166600.0,92770.0,5080.0,12.984501233389892
63115.98197226131,166583.0,92764.0,5089.0,12.994590200934908
63115.992061228855,166596.0,92774.0,5076.0,13.004679168479925
63116.0021501964,166620.0,92760.0,5074.0,13.01476813602494
63116.01223916395,166643.0,92780.0,5105.0,13.024857103577233
63116.0223281315,166664.0,92760.0,5109.0,13.03494607112225
63116.03241709904,166651.0,92769.0,5095.0,13.045035038667265
63116.042506066595,166660.0,92766.0,5125.0,13.055124006219557
63116.05259503414,166724.0,92776.0,5152.0,13.065212973764574
63116.062684001685,166722.0,92796.0,5120.0,13.07530194130959
63116.07277296924,166706.0,92782.0,5139.0,13.085390908861882
63116.08286193678,166746.0,92816.0,5183.0,13.095479876406898
63116.09295090433,166728.0,92798.0,5146.0,13.105568843951914
63116.10303987188,166762.0,92768.0,5143.0,13.115657811504207
63116.113128839424,166799.0,92831.0,5175.0,13.125746779049223
63116.12321780697,166770.0,92800.0,5193.0,13.135835746594239
63116.13330677452,166768.0,92778.0,5150.0,13.145924714146531
63116.14339574207,166799.0,92803.0,5171.0,13.156013681691547
63116.15348470961,166794.0,92830.0,5183.0,13.166102649236564
63116.163573677164,166801.0,92791.0,5170.0,13.176191616788856
63116.17366264471,166826.0,92815.0,5177.0,13.186280584333872
63116.183751612254,166843.0,92815.0,5192.0,13.196369551878888
63116.1938405798,166828.0,92802.0,5196.0,13.206458519423904
63116.20392954735,166816.0,92803.0,5223.0,13.216547486976197
63116.2140185149,166876.0,92811.0,5252.0,13.226636454521213
63116.22410748244,166872.0,92835.0,5213.0,13.236725422066229
63116.234196449994,166908.0,92825.0,5241.0,13.246814389618521
63116.24428541754,166907.0,92811.0,5226.0,13.256903357163537
63116.254374385084,166926.0,92817.0,5236.0,13.266992324708553
63116.264463352636,166907.0,92838.0,5220.0,13.277081292260846
63116.27455232018,166880.0,92818.0,5212.0,13.287170259805862
63116.284641287726,166859.0,92809.0,5200.0,13.297259227350878
63116.29473025528,166833.0,92802.0,5196.0,13.30734819490317
63116.30481922282,166818.0,92826.0,5197.0,13.317437162448186
63116.31490819037,166824.0,92842.0,5198.0,13.327526129993203
63116.32499715792,166746.0,92811.0,5143.0,13.337615097545495
63116.335086125466,166704.0,92769.0,5117.0,13.347704065090511
63116.34517509301,166696.0,92812.0,5127.0,13.357793032635527
63116.35526406056,166668.0,92800.0,5114.0,13.36788200018782
63116.36535302811,166657.0,92754.0,5107.0,13.377970967732836
63116.37544199565,166643.0,92754.0,5108.0,13.388059935277852
63116.3855309632,166660.0,92784.0,5106.0,13.398148902822868
63116.39561993075,166638.0,92761.0,5091.0,13.40823787037516
63116.405708898295,166629.0,92734.0,5104.0,13.418326837920176
63116.41579786584,166654.0,92753.0,5080.0,13.428415805465193
63116.42588683339,166659.0,92773.0,5094.0,13.438504773017485
63116.43597580094,166694.0,92773.0,5110.0,13.448593740562501
63116.44606476848,166671.0,92749.0,5097.0,13.458682708107517
63116.456153736035,166677.0,92757.0,5097.0,13.46877167565981
63116.46624270358,166673.0,92774.0,5098.0,13.478860643204825
63116.476331671125,166665.0,92802.0,5104.0,13.488949610749842
63116.48642063868,166655.0,92748.0,5098.0,13.499038578302134
63116.49650960622,166669.0,92753.0,5106.0,13.50912754584715
63116.50659857377,166690.0,92775.0,5106.0,13.519216513392166
63116.51668754132,166693.0,92759.0,5096.0,13.529305480944458
63116.526776508865,166725.0,92773.0,5127.0,13.539394448489475
63116.53686547641,166693.0,92758.0,5129.0,13.54948341603449
63116.546954443955,166719.0,92791.0,5117.0,13.559572383579507
63116.55704341151,166682.0,92791.0,5137.0,13.5696613511318
63116.56713237905,166761.0,92802.0,5124.0,13.579750318676815
63116.5772213466,166714.0,92758.0,5136.0,13.589839286221832
63116.58731031415,166748.0,92784.0,5128.0,13.599928253774124
63116.597399281694,166727.0,92795.0,5133.0,13.61001722131914
63116.60748824924,166698.0,92793.0,5139.0,13.620106188864156
63116.61757721679,166689.0,92752.0,5113.0,13.630195156416448
63116.62766618434,166744.0,92779.0,5136.0,13.640284123961465
63116.63775515188,166717.0,92771.0,5126.0,13.65037309150648
63116.647844119434,166710.0,92758.0,5125.0,13.660462059058773
63116.65793308698,166735.0,92765.0,5117.0,13.670551026603789
63116.668022054524,166724.0,92752.0,5133.0,13.680639994148805
63116.678111022076,166743.0,92772.0,5137.0,13.690728961701097
63116.68819998962,166718.0,92792.0,5118.0,13.700817929246114
63116.69828895717,166741.0,92819.0,5155.0,13.71090689679113
63116.70837792472,166739.0,92788.0,5125.0,13.720995864343422
63116.718466892264,166776.0,92798.0,5145.0,13.731084831888438
63116.72855585981,166764.0,92773.0,5167.0,13.741173799433454
63116.738644827354,166773.0,92769.0,5162.0,13.75126276697847
63116.748733794906,166766.0,92789.0,5133.0,13.761351734530763
63116.75882276245,166817.0,92797.0,5158.0,13.771440702075779
63116.768911729996,166833.0,92796.0,5181.0,13.781529669620795
63116.77900069755,166830.0,92801.0,5150.0,13.791618637173087
63116.78908966509,166860.0,92817.0,5176.0,13.801707604718104
63116.79917863264,166856.0,92816.0,5167.0,13.81179657226312
63116.80926760019,166874.0,92811.0,5205.0,13.821885539815412
63116.819356567736,166853.0,92806.0,5195.0,13.831974507360428
63116.82944553528,166904.0,92825.0,5221.0,13.842063474905444
63116.83953450283,166898.0,92814.0,5203.0,13.852152442457736
63116.84962347038,166887.0,92825.0,5209.0,13.862241410002753
63116.85971243792,166928.0,92826.0,5214.0,13.872330377547769
63116.869801405475,166912.0,92793.0,5203.0,13.882419345100061
63116.87989037302,166942.0,92828.0,5201.0,13.892508312645077
63116.889979340565,166913.0,92840.0,5212.0,13.902597280190093
63116.90006830812,166943.0,92867.0,5247.0,13.912686247742386
63116.91015727566,166966.0,92833.0,5210.0,13.922775215287402
63116.92024624321,166982.0,92832.0,5231.0,13.932864182832418
63116.93033521075,166980.0,92858.0,5246.0,13.942953150377434
63116.940424178305,166972.0,92822.0,5246.0,13.953042117929726
63116.95051314585,166983.0,92865.0,5237.0,13.963131085474743
63116.960602113395,166997.0,92845.0,5250.0,13.973220053019759
63116.97069108095,166999.0,92839.0,5257.0,13.983309020572051
63116.98078004849,166989.0,92840.0,5234.0,13.993397988117067
63116.99086901604,166987.0,92853.0,5266.0,14.003486955662083
63117.00095798359,166954.0,92833.0,5238.0,14.013575923214376
63117.011046951135,166915.0,92842.0,5205.0,14.023664890759392
63117.02113591868,166872.0,92843.0,5222.0,14.033753858304408
63117.03122488623,166858.0,92810.0,5188.0,14.0438428258567
63117.04131385378,166866.0,92814.0,5181.0,14.053931793401716
63117.05140282132,166799.0,92817.0,5179.0,14.064020760946732
63117.061491788874,166840.0,92803.0,5179.0,14.074109728499025
63117.07158075642,166760.0,92779.0,5139.0,14.08419869604404
63117.081669723964,166790.0,92793.0,5141.0,14.094287663589057
63117.09175869151,166769.0,92810.0,5133.0,14.104376631134073
63117.10184765906,166765.0,92815.0,5136.0,14.114465598686365
63117.11193662661,166775.0,92788.0,5102.0,14.124554566231382
63117.12202559415,166778.0,92787.0,5107.0,14.134643533776398
63117.132114561704,166749.0,92774.0,5144.0,14.14473250132869
63117.14220352925,166780.0,92755.0,5129.0,14.154821468873706
63117.152292496794,166781.0,92799.0,5154.0,14.164910436418722
63117.162381464346,166762.0,92787.0,5136.0,14.174999403971015
63117.17247043189,166794.0,92786.0,5137.0,14.18508837151603
63117.182559399436,166806.0,92808.0,5145.0,14.195177339061047
63117.19264836699,166821.0,92811.0,5153.0,14.205266306613339
63117.20273733453,166780.0,92768.0,5155.0,14.215355274158355
63117.21282630208,166829.0,92804.0,5143.0,14.225444241703372
63117.22291526963,166815.0,92823.0,5154.0,14.235533209255664
63117.233004237176,166850.0,92773.0,5159.0,14.24562217680068
63117.24309320472,166833.0,92799.0,5151.0,14.255711144345696
63117.25318217227,166867.0,92797.0,5174.0,14.265800111897988
63117.26327113982,166879.0,92819.0,5189.0,14.275889079443004
63117.27336010736,166827.0,92767.0,5167.0,14.28597804698802
63117.28344907491,166824.0,92805.0,5170.0,14.296067014533037
63117.29353804246,166869.0,92802.0,5178.0,14.306155982085329
63117.303627010006,166847.0,92814.0,5154.0,14.316244949630345
63117.31371597755,166852.0,92801.0,5141.0,14.326333917175361
63117.3238049451,166890.0,92821.0,5203.0,14.336422884727654
63117.33389391265,166854.0,92804.0,5171.0,14.34651185227267
63117.34398288019,166859.0,92786.0,5157.0,14.356600819817686
63117.354071847745,166860.0,92825.0,5182.0,14.366689787369978
63117.36416081529,166861.0,92799.0,5162.0,14.376778754914994
63117.374249782835,166875.0,92808.0,5177.0,14.38686772246001
63117.38433875039,166877.0,92797.0,5157.0,14.396956690012303
63117.39442771793,166893.0,92824.0,5185.0,14.407045657557319
63117.40451668548,166850.0,92777.0,5170.0,14.417134625102335
63117.41460565303,166884.0,92828.0,5197.0,14.427223592654627
63117.424694620575,166877.0,92825.0,5177.0,14.437312560199643
63117.43478358812,166901.0,92803.0,5169.0,14.44740152774466
63117.44487255567,166909.0,92831.0,5189.0,14.457490495296952
63117.45496152322,166930.0,92828.0,5190.0,14.467579462841968
63117.46505049076,166944.0,92837.0,5222.0,14.477668430386984
63117.47513945831,166939.0,92802.0,5184.0,14.487757397932
63117.48522842586,166949.0,92851.0,5212.0,14.497846365484293
63117.495317393405,166976.0,92833.0,5217.0,14.507935333029309
63117.50540636095,167016.0,92824.0,5207.0,14.518024300574325
63117.5154953285,167016.0,92841.0,5207.0,14.528113268126617
63117.52558429605,167031.0,92855.0,5239.0,14.538202235671633
63117.53567326359,167024.0,92832.0,5235.0,14.54829120321665
63117.545762231144,167008.0,92886.0,5220.0,14.558380170768942
63117.55585119869,167052.0,92870.0,5265.0,14.568469138313958
63117.565940166234,167016.0,92835.0,5222.0,14.578558105858974
63117.57602913379,167064.0,92846.0,5231.0,14.588647073411266
63117.58611810133,167070.0,92841.0,5235.0,14.598736040956283
63117.59620706888,167102.0,92872.0,5287.0,14.608825008501299
63117.60629603643,167080.0,92839.0,5234.0,14.61891397605359
63117.616385003974,167114.0,92865.0,5264.0,14.629002943598607
63117.62647397152,167129.0,92886.0,5274.0,14.639091911143623
63117.636562939064,167093.0,92848.0,5253.0,14.64918087868864
63117.646651906616,167104.0,92855.0,5239.0,14.659269846240932
63117.65674087416,167096.0,92864.0,5271.0,14.669358813785948
63117.666829841706,167065.0,92847.0,5272.0,14.679447781330964
63117.67691880926,167000.0,92815.0,5231.0,14.689536748883256
63117.6870077768,166984.0,92868.0,5246.0,14.699625716428272
63117.69709674435,166964.0,92828.0,5207.0,14.709714683973289
63117.7071857119,166954.0,92818.0,5203.0,14.71980365152558
63117.717274679446,166911.0,92813.0,5158.0,14.729892619070597
63117.72736364699,166909.0,92821.0,5182.0,14.739981586615613
63117.73745261454,166868.0,92796.0,5153.0,14.750070554167905
63117.74754158209,166858.0,92830.0,5144.0,14.760159521712922
63117.75763054963,166849.0,92820.0,5141.0,14.770248489257938
63117.767719517185,166830.0,92817.0,5123.0,14.78033745681023
63117.77780848473,166844.0,92790.0,5088.0,14.790426424355246
63117.787897452276,166833.0,92787.0,5128.0,14.800515391900262
63117.79798641983,166832.0,92814.0,5148.0,14.810604359452554
63117.80807538737,166800.0,92765.0,5110.0,14.82069332699757
63117.81816435492,166794.0,92758.0,5100.0,14.830782294542587
63117.82825332246,166821.0,92788.0,5122.0,14.840871262087603
63117.838342290015,166833.0,92785.0,5128.0,14.850960229639895
63117.84843125756,166866.0,92818.0,5117.0,14.861049197184911
63117.858520225105,166871.0,92802.0,5154.0,14.871138164729928
63117.86860919266,166864.0,92798.0,5129.0,14.88122713228222
63117.8786981602,166854.0,92770.0,5111.0,14.891316099827236
63117.88878712775,166864.0,92813.0,5158.0,14.901405067372252
63117.8988760953,166853.0,92793.0,5139.0,14.911494034924544
63117.908965062845,166883.0,92799.0,5143.0,14.92158300246956
63117.91905403039,166879.0,92806.0,5111.0,14.931671970014577
63117.92914299794,166882.0,92797.0,5156.0,14.941760937566869
63117.93923196549,166899.0,92804.0,5151.0,14.951849905111885
63117.94932093303,166880.0,92818.0,5147.0,14.961938872656901
63117.959409900584,166903.0,92822.0,5149.0,14.972027840209194
63117.96949886813,166903.0,92801.0,5179.0,14.98211680775421
63117.979587835674,166862.0,92787.0,5158.0,14.992205775299226
63117.98967680322,166878.0,92803.0,5150.0,15.002294742844242
63117.99976577077,166865.0,92812.0,5185.0,15.012383710396534
63118.00985473832,166866.0,92779.0,5125.0,15.02247267794155
63118.01994370586,166863.0,92816.0,5143.0,15.032561645486567
63118.030032673414,166891.0,92811.0,5159.0,15.042650613038859
63118.04012164096,166923.0,92808.0,5188.0,15.052739580583875
63118.050210608504,166877.0,92794.0,5147.0,15.062828548128891
63118.06029957606,166884.0,92801.0,5128.0,15.072917515681183
63118.0703885436,166905.0,92808.0,5151.0,15.0830064832262
63118.08047751115,166899.0,92816.0,5154.0,15.093095450771216
63118.0905664787,166934.0,92793.0,5182.0,15.103184418323508
63118.100655446244,166925.0,92806.0,5205.0,15.113273385868524
63118.11074441379,166958.0,92829.0,5174.0,15.12336235341354
63118.12083338134,166964.0,92824.0,5143.0,15.133451320965833
63118.130922348886,166980.0,92827.0,5218.0,15.143540288510849
63118.14101131643,166940.0,92804.0,5172.0,15.153629256055865
63118.15110028398,166989.0,92826.0,5189.0,15.163718223608157
63118.16118925153,167005.0,92836.0,5184.0,15.173807191153173
63118.17127821907,166986.0,92815.0,5170.0,15.18389615869819
63118.18136718662,167047.0,92846.0,5215.0,15.193985126243206
63118.19145615417,167024.0,92841.0,5219.0,15.204074093795498
63118.201545121716,167027.0,92843.0,5223.0,15.214163061340514
63118.21163408926,167052.0,92863.0,5209.0,15.22425202888553
63118.22172305681,167050.0,92862.0,5251.0,15.234340996437822
63118.23181202436,167044.0,92850.0,5218.0,15.244429963982839
63118.2419009919,167087.0,92839.0,5237.0,15.254518931527855
63118.251989959455,167097.0,92853.0,5225.0,15.264607899080147
63118.262078927,167091.0,92840.0,5205.0,15.274696866625163
63118.272167894545,167113.0,92849.0,5238.0,15.28478583417018
63118.2822568621,167128.0,92875.0,5260.0,15.294874801722472
63118.29234582964,167156.0,92853.0,5253.0,15.304963769267488
63118.30243479719,167134.0,92851.0,5241.0,15.315052736812504
63118.31252376474,167129.0,92870.0,5246.0,15.325141704364796
63118.322612732285,167133.0,92871.0,5257.0,15.335230671909812
63118.33270169983,167102.0,92846.0,5253.0,15.345319639454829
63118.34279066738,167055.0,92836.0,5236.0,15.35540860700712
63118.35287963493,167052.0,92877.0,5246.0,15.365497574552137
63118.36296860247,167007.0,92838.0,5220.0,15.375586542097153
63118.37305757002,166944.0,92813.0,5182.0,15.38567550964217
63118.38314653757,166972.0,92862.0,5189.0,15.395764477194462
63118.393235505115,166916.0,92835.0,5170.0,15.405853444739478
63118.40332447266,166866.0,92808.0,5144.0,15.415942412284494
63118.41341344021,166849.0,92790.0,5125.0,15.426031379836786
63118.42350240776,166845.0,92806.0,5152.0,15.436120347381802
63118.4335913753,166818.0,92817.0,5108.0,15.446209314926818
63118.443680342854,166815.0,92798.0,5091.0,15.45629828247911
63118.4537693104,166799.0,92774.0,5068.0,15.466387250024127
63118.463858277944,166803.0,92787.0,5108.0,15.476476217569143
63118.4739472455,166788.0,92785.0,5096.0,15.486565185121435
63118.48403621304,166786.0,92793.0,5081.0,15.496654152666451
63118.49412518059,166773.0,92764.0,5083.0,15.506743120211468
63118.50421414814,166759.0,92783.0,5069.0,15.51683208776376
63118.514303115684,166771.0,92786.0,5077.0,15.526921055308776
63118.52439208323,166780.0,92776.0,5082.0,15.537010022853792
63118.534481050774,166762.0,92796.0,5104.0,15.547098990398808
63118.544570018326,166757.0,92759.0,5077.0,15.5571879579511
63118.55465898587,166766.0,92804.0,5100.0,15.567276925496117
63118.56474795342,166779.0,92776.0,5082.0,15.577365893041133
63118.57483692097,166765.0,92753.0,5083.0,15.587454860593425
63118.584925888514,166802.0,92802.0,5102.0,15.597543828138441
63118.59501485606,166810.0,92800.0,5114.0,15.607632795683458
63118.60510382361,166795.0,92783.0,5098.0,15.61772176323575
63118.615192791156,166774.0,92791.0,5070.0,15.627810730780766
63118.6252817587,166801.0,92806.0,5112.0,15.637899698325782
63118.63537072625,166769.0,92781.0,5096.0,15.647988665878074
63118.6454596938,166793.0,92779.0,5099.0,15.65807763342309
63118.65554866134,166797.0,92790.0,5085.0,15.668166600968107
63118.665637628896,166786.0,92757.0,5087.0,15.678255568520399
63118.67572659644,166787.0,92779.0,5103.0,15.688344536065415
63118.685815563986,166791.0,92790.0,5092.0,15.698433503610431
63118.69590453154,166810.0,92762.0,5105.0,15.708522471162723
63118.70599349908,166770.0,92781.0,5082.0,15.71861143870774
63118.71608246663,166794.0,92788.0,5078.0,15.728700406252756
63118.72617143417,166794.0,92797.0,5116.0,15.738789373797772
63118.736260401725,166808.0,92796.0,5105.0,15.748878341350064
63118.74634936927,166796.0,92779.0,5101.0,15.75896730889508
63118.756438336815,166808.0,92809.0,5119.0,15.769056276440097
63118.76652730437,166813.0,92802.0,5104.0,15.779145243992389
63118.77661627191,166819.0,92768.0,5104.0,15.789234211537405
63118.78670523946,166854.0,92810.0,5097.0,15.799323179082421
63118.79679420701,166812.0,92791.0,5104.0,15.809412146634713
63118.806883174555,166851.0,92793.0,5113.0,15.81950111417973
63118.8169721421,166881.0,92810.0,5136.0,15.829590081724746
63118.82706110965,166900.0,92833.0,5131.0,15.839679049277038
63118.8371500772,166882.0,92801.0,5134.0,15.849768016822054
63118.84723904474,166917.0,92814.0,5130.0,15.85985698436707
63118.857328012295,166917.0,92828.0,5153.0,15.869945951919362
63118.86741697984,166914.0,92829.0,5177.0,15.880034919464379
63118.877505947385,166942.0,92853.0,5166.0,15.890123887009395
63118.88759491494,166961.0,92870.0,5196.0,15.900212854561687
63118.89768388248,166953.0,92831.0,5175.0,15.910301822106703
63118.90777285003,166972.0,92822.0,5150.0,15.92039078965172
63118.91786181757,166992.0,92839.0,5161.0,15.930479757196736
63118.927950785124,167015.0,92851.0,5212.0,15.940568724749028
63118.93803975267,167005.0,92850.0,5190.0,15.950657692294044
63118.948128720214,166985.0,92849.0,5175.0,15.96074665983906
63118.95821768777,167031.0,92854.0,5224.0,15.970835627391352
63118.96830665531,167014.0,92844.0,5204.0,15.980924594936369
63118.97839562286,167054.0,92870.0,5211.0,15.991013562481385
63118.98848459041,167065.0,92881.0,5212.0,16.001102530033677
63118.998573557954,167047.0,92847.0,5196.0,16.011191497578693
63119.0086625255,167060.0,92859.0,5214.0,16.02128046512371
63119.01875149305,167063.0,92878.0,5233.0,16.031369432676
63119.028840460596,167053.0,92866.0,5231.0,16.041458400221018
63119.03892942814,167007.0,92839.0,5220.0,16.051547367766034
63119.04901839569,167012.0,92868.0,5198.0,16.061636335318326
63119.05910736324,166982.0,92839.0,5200.0,16.071725302863342
63119.06919633078,166899.0,92821.0,5218.0,16.08181427040836
63119.07928529833,166911.0,92852.0,5184.0,16.091903237953375
63119.08937426588,166871.0,92847.0,5156.0,16.101992205505667
63119.099463233426,166834.0,92807.0,5129.0,16.112081173050683
63119.10955220097,166762.0,92776.0,5094.0,16.1221701405957
63119.11964116852,166764.0,92775.0,5077.0,16.13225910814799
63119.12973013607,166745.0,92768.0,5107.0,16.142348075693008
63119.13981910361,166753.0,92786.0,5078.0,16.152437043238024
63119.149908071166,166722.0,92777.0,5081.0,16.162526010790316
63119.15999703871,166729.0,92792.0,5095.0,16.172614978335332
63119.170086006256,166696.0,92758.0,5049.0,16.18270394588035
63119.18017497381,166700.0,92771.0,5058.0,16.19279291343264
63119.19026394135,166722.0,92813.0,5068.0,16.202881880977657
63119.2003529089,166701.0,92786.0,5054.0,16.212970848522673
63119.21044187645,166703.0,92766.0,5063.0,16.223059816074965
63119.220530843995,166712.0,92778.0,5057.0,16.23314878361998
63119.23061981154,166735.0,92806.0,5064.0,16.243237751164997
63119.24070877909,166694.0,92765.0,5059.0,16.25332671871729
63119.25079774664,166730.0,92808.0,5080.0,16.263415686262306
63119.26088671418,166718.0,92781.0,5054.0,16.273504653807322
63119.27097568173,166701.0,92761.0,5095.0,16.28359362135234
63119.28106464928,166720.0,92785.0,5056.0,16.29368258890463
63119.291153616825,166740.0,92775.0,5092.0,16.303771556449647
63119.30124258437,166726.0,92778.0,5078.0,16.313860523994663
63119.31133155192,166716.0,92747.0,5073.0,16.323949491546955
63119.32142051947,166757.0,92799.0,5094.0,16.33403845909197
63119.33150948701,166725.0,92781.0,5066.0,16.344127426636987
63119.341598454565,166711.0,92775.0,5107.0,16.35421639418928
63119.35168742211,166735.0,92783.0,5083.0,16.364305361734296
63119.361776389655,166701.0,92817.0,5082.0,16.374394329279312
63119.37186535721,166721.0,92793.0,5113.0,16.384483296831604
63119.38195432475,166736.0,92814.0,5099.0,16.39457226437662
63119.3920432923,166731.0,92779.0,5091.0,16.404661231921636
63119.40213225985,166718.0,92787.0,5066.0,16.41475019947393
63119.412221227394,166733.0,92786.0,5091.0,16.424839167018945
63119.42231019494,166769.0,92790.0,5100.0,16.43492813456396
63119.432399162484,166756.0,92788.0,5092.0,16.445017102108977
63119.44248813004,166731.0,92739.0,5083.0,16.45510606966127
63119.45257709758,166741.0,92779.0,5078.0,16.465195037206286
63119.46266606513,166742.0,92784.0,5080.0,16.475284004751302
63119.47275503268,166761.0,92790.0,5103.0,16.485372972303594
63119.482844000224,166752.0,92790.0,5087.0,16.49546193984861
63119.49293296777,166793.0,92792.0,5113.0,16.505550907393626
63119.50302193532,166776.0,92779.0,5107.0,16.51563987494592
63119.513110902866,166820.0,92801.0,5123.0,16.525728842490935
63119.52319987041,166812.0,92816.0,5105.0,16.53581781003595
63119.53328883796,166852.0,92821.0,5158.0,16.545906777588243
63119.54337780551,166822.0,92795.0,5152.0,16.55599574513326
63119.55346677305,166831.0,92830.0,5165.0,16.566084712678276
63119.563555740606,166875.0,92809.0,5157.0,16.576173680230568
63119.57364470815,166880.0,92802.0,5173.0,16.586262647775584
63119.583733675696,166901.0,92833.0,5188.0,16.5963516153206
63119.59382264325,166893.0,92834.0,5174.0,16.606440582872892
63119.60391161079,166904.0,92844.0,5184.0,16.61652955041791
63119.61400057834,166920.0,92852.0,5179.0,16.626618517962925
63119.62408954588,166910.0,92843.0,5176.0,16.63670748550794
63119.634178513435,166953.0,92829.0,5173.0,16.646796453060233
63119.64426748098,166943.0,92822.0,5211.0,16.65688542060525
63119.654356448526,166933.0,92837.0,5185.0,16.666974388150265
63119.66444541608,166940.0,92871.0,5201.0,16.677063355702558
63119.67453438362,166988.0,92853.0,5199.0,16.687152323247574
63119.68462335117,166952.0,92852.0,5242.0,16.69724129079259
63119.69471231872,167001.0,92874.0,5228.0,16.707330258344882
63119.704801286265,167004.0,92867.0,5221.0,16.7174192258899
63119.71489025381,167022.0,92866.0,5210.0,16.727508193434915
63119.72497922136,167041.0,92865.0,5187.0,16.737597160987207
63119.73506818891,167071.0,92874.0,5239.0,16.747686128532223
63119.74515715645,167028.0,92841.0,5222.0,16.75777509607724
63119.755246124005,167053.0,92871.0,5232.0,16.76786406362953
63119.76533509155,167041.0,92874.0,5234.0,16.777953031174548
63119.775424059095,167090.0,92882.0,5268.0,16.788041998719564
63119.78551302665,167088.0,92897.0,5258.0,16.798130966271856
63119.79560199419,167082.0,92871.0,5295.0,16.808219933816872
63119.80569096174,167039.0,92873.0,5255.0,16.81830890136189
63119.81577992928,167035.0,92907.0,5249.0,16.828397868906904
63119.825868896834,166971.0,92872.0,5228.0,16.838486836459197
63119.83595786438,166928.0,92843.0,5217.0,16.848575804004213
63119.846046831924,166912.0,92856.0,5197.0,16.85866477154923
63119.85613579948,166890.0,92826.0,5162.0,16.86875373910152
63119.86622476702,166872.0,92811.0,5174.0,16.878842706646537
63119.87631373457,166798.0,92798.0,5142.0,16.888931674191554
63119.88640270212,166812.0,92818.0,5115.0,16.899020641743846
63119.896491669664,166762.0,92785.0,5122.0,16.909109609288862
63119.90658063721,166782.0,92781.0,5114.0,16.919198576833878
63119.91666960476,166743.0,92794.0,5088.0,16.92928754438617
63119.92675857231,166744.0,92803.0,5104.0,16.939376511931187
63119.93684753985,166732.0,92800.0,5115.0,16.949465479476203
63119.946936507404,166707.0,92761.0,5070.0,16.959554447028495
63119.95702547495,166715.0,92806.0,5107.0,16.96964341457351
63119.967114442494,166724.0,92769.0,5097.0,16.979732382118527
63119.977203410046,166768.0,92798.0,5126.0,16.98982134967082
63119.98729237759,166725.0,92760.0,5091.0,16.999910317215836
63119.997381345136,166703.0,92775.0,5090.0,17.009999284760852
63120.00747031268,166724.0,92783.0,5100.0,17.020088252305868
63120.01755928023,166762.0,92776.0,5105.0,17.03017721985816
63120.02764824778,166715.0,92790.0,5099.0,17.040266187403176
63120.03773721532,166719.0,92803.0,5138.0,17.050355154948193
63120.047826182876,166752.0,92791.0,5109.0,17.060444122500485
63120.05791515042,166742.0,92785.0,5093.0,17.0705330900455
63120.068004117966,166757.0,92773.0,5140.0,17.080622057590517
63120.07809308552,166721.0,92768.0,5106.0,17.09071102514281
63120.08818205306,166749.0,92783.0,5109.0,17.100799992687826
63120.09827102061,166737.0,92783.0,5110.0,17.110888960232842
63120.10835998816,166764.0,92787.0,5134.0,17.120977927785134
63120.118448955705,166770.0,92821.0,5105.0,17.13106689533015
63120.12853792325,166758.0,92796.0,5122.0,17.141155862875166
63120.1386268908,166739.0,92810.0,5143.0,17.15124483042746
63120.14871585835,166728.0,92773.0,5119.0,17.161333797972475
63120.15880482589,166708.0,92808.0,5114.0,17.17142276551749
63120.16889379344,166757.0,92791.0,5125.0,17.181511733062507
63120.17898276099,166772.0,92789.0,5130.0,17.1916007006148
63120.189071728535,166724.0,92795.0,5116.0,17.201689668159815
63120.19916069608,166775.0,92816.0,5128.0,17.21177863570483
63120.20924966363,166761.0,92794.0,5133.0,17.221867603257124
63120.21933863118,166799.0,92796.0,5154.0,17.23195657080214
63120.22942759872,166729.0,92808.0,5131.0,17.242045538347156
63120.239516566275,166752.0,92815.0,5156.0,17.25213450589945
63120.24960553382,166781.0,92810.0,5147.0,17.262223473444465
63120.259694501365,166808.0,92797.0,5122.0,17.27231244098948
63120.26978346892,166798.0,92824.0,5165.0,17.282401408541773
63120.27987243646,166794.0,92815.0,5131.0,17.29249037608679
63120.28996140401,166839.0,92816.0,5160.0,17.302579343631805
63120.30005037156,166854.0,92840.0,5169.0,17.312668311184098
63120.310139339104,166843.0,92815.0,5148.0,17.322757278729114
63120.32022830665,166842.0,92817.0,5171.0,17.33284624627413
63120.3303172742,166876.0,92842.0,5200.0,17.342935213826422
63120.34040624175,166894.0,92847.0,5198.0,17.35302418137144
63120.35049520929,166898.0,92844.0,5187.0,17.363113148916455
63120.36058417684,166923.0,92873.0,5213.0,17.37320211646147
63120.37067314439,166914.0,92839.0,5183.0,17.383291084013763
63120.380762111934,167007.0,92863.0,5227.0,17.39338005155878
63120.39085107948,167041.0,92902.0,5281.0,17.403469019103795
63120.40094004703,167066.0,92866.0,5249.0,17.413557986656087
63120.411029014576,167067.0,92850.0,5245.0,17.423646954201104
63120.42111798212,167091.0,92912.0,5232.0,17.43373592174612
63120.431206949674,167072.0,92884.0,5284.0,17.443824889298412
63120.44129591722,167110.0,92882.0,5277.0,17.453913856843428
63120.451384884764,167089.0,92880.0,5249.0,17.464002824388444
63120.461473852316,167121.0,92906.0,5302.0,17.474091791940737
63120.47156281986,167099.0,92858.0,5266.0,17.484180759485753
63120.481651787406,167136.0,92883.0,5278.0,17.49426972703077
63120.49174075496,167149.0,92901.0,5273.0,17.50435869458306
63120.5018297225,167130.0,92890.0,5281.0,17.514447662128077
63120.51191869005,167139.0,92878.0,5279.0,17.524536629673094
63120.52200765759,167122.0,92883.0,5318.0,17.53462559721811
63120.532096625146,167091.0,92897.0,5283.0,17.544714564770402
63120.54218559269,167067.0,92872.0,5273.0,17.554803532315418
63120.552274560236,167051.0,92888.0,5252.0,17.564892499860434
63120.56236352779,167020.0,92880.0,5260.0,17.574981467412726
63120.57245249533,166966.0,92873.0,5230.0,17.585070434957743
63120.58254146288,166923.0,92845.0,5214.0,17.59515940250276
63120.59263043043,166931.0,92865.0,5233.0,17.60524837005505
63120.602719397975,166902.0,92835.0,5183.0,17.615337337600067
63120.61280836552,166859.0,92809.0,5150.0,17.625426305145083
63120.62289733307,166848.0,92820.0,5180.0,17.635515272697376
63120.63298630062,166836.0,92816.0,5189.0,17.645604240242392
63120.64307526816,166844.0,92813.0,5158.0,17.655693207787408
63120.653164235715,166809.0,92795.0,5137.0,17.6657821753397
63120.66325320326,166836.0,92834.0,5170.0,17.675871142884716
63120.673342170805,166780.0,92798.0,5122.0,17.685960110429733
63120.68343113836,166810.0,92808.0,5157.0,17.696049077982025
63120.6935201059,166826.0,92823.0,5134.0,17.70613804552704
63120.70360907345,166798.0,92799.0,5163.0,17.716227013072057
63120.71369804099,166830.0,92819.0,5149.0,17.726315980617073
63120.723787008545,166827.0,92813.0,5162.0,17.736404948169366
63120.73387597609,166838.0,92792.0,5164.0,17.74649391571438
63120.743964943635,166800.0,92796.0,5140.0,17.756582883259398
63120.75405391119,166871.0,92827.0,5173.0,17.76667185081169
63120.76414287873,166863.0,92824.0,5192.0,17.776760818356706
63120.77423184628,166847.0,92822.0,5180.0,17.786849785901722
63120.78432081383,166872.0,92854.0,5171.0,17.796938753454015
63120.794409781374,166876.0,92825.0,5203.0,17.80702772099903
63120.80449874892,166826.0,92814.0,5158.0,17.817116688544047
63120.81458771647,166868.0,92833.0,5183.0,17.82720565609634
63120.82467668402,166853.0,92851.0,5188.0,17.837294623641355
63120.83476565156,166873.0,92801.0,5175.0,17.84738359118637
63120.844854619114,166856.0,92810.0,5161.0,17.857472558738664
63120.85494358666,166864.0,92825.0,5186.0,17.86756152628368
63120.865032554204,166873.0,92843.0,5169.0,17.877650493828696
63120.875121521756,166832.0,92796.0,5159.0,17.88773946138099
63120.8852104893,166871.0,92834.0,5154.0,17.897828428926005
63120.895299456846,166863.0,92818.0,5170.0,17.90791739647102
63120.90538842439,166843.0,92817.0,5181.0,17.918006364016037
63120.91547739194,166861.0,92854.0,5189.0,17.92809533156833
63120.92556635949,166881.0,92818.0,5218.0,17.938184299113345
63120.93565532703,166866.0,92826.0,5190.0,17.94827326665836
63120.945744294586,166874.0,92801.0,5174.0,17.958362234210654
63120.95583326213,166904.0,92851.0,5175.0,17.96845120175567
63120.965922229676,166878.0,92816.0,5210.0,17.978540169300686
63120.97601119723,166911.0,92834.0,5199.0,17.98862913685298
63120.98610016477,166923.0,92824.0,5203.0,17.998718104397994
63120.99618913232,166949.0,92819.0,5223.0,18.00880707194301
63121.00627809987,166936.0,92825.0,5197.0,18.018896039495303
63121.016367067416,166961.0,92842.0,5215.0,18.02898500704032
63121.02645603496,166986.0,92876.0,5226.0,18.039073974585335
63121.03654500251,166960.0,92824.0,5211.0,18.049162942137627
63121.04663397006,166992.0,92858.0,5227.0,18.059251909682644
63121.0567229376,167007.0,92875.0,5228.0,18.06934087722766
63121.06681190515,166997.0,92849.0,5254.0,18.079429844772676
63121.0769008727,166995.0,92828.0,5243.0,18.089518812324968
63121.086989840245,167057.0,92881.0,5238.0,18.099607779869984
63121.09707880779,167045.0,92875.0,5248.0,18.109696747415
63121.10716777534,167061.0,92846.0,5290.0,18.119785714967293
63121.11725674289,167088.0,92906.0,5287.0,18.12987468251231
63121.12734571043,167089.0,92848.0,5281.0,18.139963650057325
63121.137434677985,167081.0,92885.0,5277.0,18.150052617609617
63121.14752364553,167062.0,92841.0,5272.0,18.160141585154634
63121.157612613075,167125.0,92898.0,5265.0,18.17023055269965
63121.16770158063,167107.0,92879.0,5277.0,18.180319520251942
63121.17779054817,167127.0,92895.0,5291.0,18.190408487796958
63121.18787951572,167122.0,92871.0,5344.0,18.200497455341974
63121.19796848327,167146.0,92866.0,5301.0,18.210586422894266
63121.208057450815,167149.0,92867.0,5298.0,18.220675390439283
63121.21814641836,167153.0,92885.0,5299.0,18.2307643579843
63121.22823538591,167184.0,92908.0,5296.0,18.24085332553659
63121.23832435346,167157.0,92875.0,5308.0,18.250942293081607
63121.248413321,167174.0,92903.0,5311.0,18.261031260626623
63121.25850228855,167196.0,92900.0,5318.0,18.27112022817164
63121.2685912561,167222.0,92901.0,5323.0,18.28120919572393
63121.278680223644,167181.0,92873.0,5313.0,18.291298163268948
63121.28876919119,167258.0,92935.0,5346.0,18.301387130813964
63121.29885815874,167244.0,92912.0,5355.0,18.311476098366256
63121.30894712629,167256.0,92885.0,5360.0,18.321565065911273
63121.31903609383,167296.0,92945.0,5386.0,18.33165403345629
63121.329125061384,167265.0,92919.0,5321.0,18.34174300100858
63121.33921402893,167227.0,92918.0,5328.0,18.351831968553597
63121.349302996474,167259.0,92893.0,5354.0,18.361920936098613
63121.359391964026,167275.0,92939.0,5357.0,18.372009903650905
63121.36948093157,167253.0,92888.0,5334.0,18.38209887119592
63121.379569899116,167230.0,92921.0,5373.0,18.392187838740938
63121.38965886667,167166.0,92920.0,5323.0,18.40227680629323
63121.39974783421,167158.0,92873.0,5299.0,18.412365773838246
63121.40983680176,167095.0,92866.0,5273.0,18.422454741383262
63121.41992576931,167075.0,92892.0,5296.0,18.432543708935555
63121.430014736856,167048.0,92871.0,5261.0,18.44263267648057
63121.4401037044,166991.0,92882.0,5222.0,18.452721644025587
63121.450192671946,166997.0,92877.0,5245.0,18.462810611570603
63121.4602816395,167003.0,92862.0,5270.0,18.472899579122895
63121.47037060704,166966.0,92844.0,5228.0,18.48298854666791
63121.48045957459,166938.0,92820.0,5210.0,18.493077514212928
63121.49054854214,166991.0,92870.0,5239.0,18.50316648176522
63121.500637509685,166966.0,92824.0,5207.0,18.513255449310236
63121.51072647723,166957.0,92847.0,5223.0,18.523344416855252
63121.52081544478,166989.0,92842.0,5223.0,18.533433384407545
63121.53090441233,166972.0,92826.0,5235.0,18.54352235195256
63121.54099337987,166952.0,92831.0,5219.0,18.553611319497577
63121.551082347425,166978.0,92845.0,5235.0,18.56370028704987
63121.56117131497,166979.0,92861.0,5247.0,18.573789254594885
63121.571260282515,166966.0,92847.0,5228.0,18.5838782221399
63121.58134925007,167012.0,92876.0,5263.0,18.593967189692194
63121.59143821761,167008.0,92827.0,5269.0,18.60405615723721
63121.60152718516,166989.0,92843.0,5222.0,18.614145124782226
63121.6116161527,166991.0,92822.0,5235.0,18.624234092327242
63121.621705120255,167016.0,92829.0,5260.0,18.634323059879534
63121.6317940878,167026.0,92864.0,5253.0,18.64441202742455
63121.641883055345,167019.0,92866.0,5236.0,18.654500994969567
63121.6519720229,167038.0,92864.0,5276.0,18.66458996252186
63121.66206099044,167012.0,92828.0,5255.0,18.674678930066875
63121.67214995799,167018.0,92855.0,5250.0,18.68476789761189
63121.68223892554,167016.0,92829.0,5235.0,18.694856865164184
63121.692327893084,167032.0,92878.0,5271.0,18.7049458327092
63121.70241686063,167005.0,92843.0,5242.0,18.715034800254216
63121.71250582818,167025.0,92862.0,5245.0,18.725123767806508
63121.72259479573,167015.0,92861.0,5286.0,18.735212735351524
63121.73268376327,166993.0,92832.0,5239.0,18.74530170289654
63121.742772730824,167027.0,92839.0,5251.0,18.755390670448833
63121.75286169837,167011.0,92859.0,5249.0,18.76547963799385
63121.762950665914,167050.0,92873.0,5269.0,18.775568605538865
63121.77303963347,167011.0,92839.0,5234.0,18.785657573091157
63121.78312860101,167039.0,92884.0,5268.0,18.795746540636173
63121.79321756856,167035.0,92862.0,5253.0,18.80583550818119
63121.8033065361,167035.0,92838.0,5256.0,18.815924475726206
63121.813395503654,167040.0,92827.0,5253.0,18.826013443278498
63121.8234844712,167042.0,92850.0,5266.0,18.836102410823514
63121.833573438744,167080.0,92869.0,5256.0,18.84619137836853
63121.843662406296,167078.0,92881.0,5280.0,18.856280345920823
63121.85375137384,167107.0,92872.0,5327.0,18.86636931346584
63121.863840341386,167066.0,92842.0,5291.0,18.876458281010855
63121.87392930894,167101.0,92869.0,5286.0,18.886547248563147
63121.88401827648,167139.0,92863.0,5300.0,18.896636216108163
63121.89410724403,167174.0,92912.0,5332.0,18.90672518365318
63121.90419621158,167176.0,92902.0,5335.0,18.91681415120547
63121.914285179126,167174.0,92900.0,5322.0,18.926903118750488
63121.92437414667,167180.0,92916.0,5307.0,18.936992086295504
63121.93446311422,167172.0,92876.0,5320.0,18.947081053847796
63121.94455208177,167230.0,92901.0,5335.0,18.957170021392812
63121.95464104931,167232.0,92913.0,5341.0,18.96725898893783
63121.96473001686,167225.0,92903.0,5339.0,18.977347956482845
63121.97481898441,167213.0,92896.0,5345.0,18.987436924035137
63121.984907951955,167237.0,92919.0,5340.0,18.997525891580153
63121.9949969195,167205.0,92861.0,5376.0,19.00761485912517
63122.00508588705,167259.0,92911.0,5353.0,19.01770382667746
63122.0151748546,167253.0,92883.0,5344.0,19.027792794222478
63122.02526382214,167234.0,92882.0,5347.0,19.037881761767494
63122.035352789695,167261.0,92912.0,5333.0,19.047970729319786
63122.04544175724,167284.0,92919.0,5368.0,19.058059696864802
63122.055530724785,167292.0,92913.0,5368.0,19.06814866440982
63122.06561969234,167298.0,92899.0,5369.0,19.07823763196211
63122.07570865988,167303.0,92907.0,5371.0,19.088326599507127
63122.08579762743,167320.0,92924.0,5372.0,19.098415567052143
63122.09588659498,167350.0,92951.0,5395.0,19.108504534604435
63122.105975562525,167304.0,92923.0,5349.0,19.11859350214945
63122.11606453007,167373.0,92947.0,5409.0,19.128682469694468
63122.12615349762,167345.0,92911.0,5393.0,19.13877143724676
63122.13624246517,167343.0,92918.0,5378.0,19.148860404791776
63122.14633143271,167374.0,92946.0,5427.0,19.158949372336792
63122.15642040026,167413.0,92962.0,5415.0,19.16903833988181
63122.16650936781,167383.0,92931.0,5402.0,19.1791273074341
63122.176598335354,167377.0,92926.0,5408.0,19.189216274979117
63122.1866873029,167368.0,92973.0,5426.0,19.199305242524133
63122.19677627045,167336.0,92929.0,5387.0,19.209394210076425
63122.206865238,167324.0,92926.0,5400.0,19.21948317762144
63122.21695420554,167285.0,92906.0,5379.0,19.229572145166458
63122.227043173094,167245.0,92890.0,5354.0,19.23966111271875
63122.23713214064,167249.0,92935.0,5384.0,19.249750080263766
63122.247221108184,167231.0,92898.0,5344.0,19.259839047808782
63122.257310075736,167171.0,92863.0,5334.0,19.269928015361074
63122.26739904328,167144.0,92874.0,5327.0,19.28001698290609
63122.277488010826,167146.0,92857.0,5301.0,19.290105950451107
63122.28757697838,167155.0,92882.0,5298.0,19.3001949180034
63122.297665945924,167126.0,92892.0,5312.0,19.310283885548415
63122.30775491347,167110.0,92859.0,5272.0,19.32037285309343
63122.31784388102,167131.0,92906.0,5300.0,19.330461820645723
63122.327932848566,167119.0,92868.0,5300.0,19.34055078819074
63122.33802181611,167127.0,92872.0,5268.0,19.350639755735756
63122.348110783656,167130.0,92846.0,5299.0,19.360728723280772
63122.35819975121,167098.0,92847.0,5302.0,19.370817690833064
63122.36828871875,167114.0,92866.0,5272.0,19.38090665837808
63122.3783776863,167104.0,92873.0,5325.0,19.390995625923097
63122.38846665385,167147.0,92879.0,5309.0,19.40108459347539
63122.398555621396,167122.0,92855.0,5305.0,19.411173561020405
63122.40864458894,167147.0,92878.0,5314.0,19.42126252856542
63122.41873355649,167179.0,92886.0,5315.0,19.431351496117713
63122.42882252404,167197.0,92913.0,5340.0,19.44144046366273
63122.43891149158,167153.0,92856.0,5332.0,19.451529431207746
63122.449000459135,167168.0,92869.0,5313.0,19.461618398760038
63122.45908942668,167159.0,92892.0,5320.0,19.471707366305054
63122.469178394225,167173.0,92893.0,5322.0,19.48179633385007
63122.47926736178,167193.0,92896.0,5351.0,19.491885301402363
63122.48935632932,167175.0,92879.0,5320.0,19.50197426894738
63122.49944529687,167204.0,92881.0,5338.0,19.512063236492395
63122.50953426441,167158.0,92866.0,5315.0,19.52215220403741
63122.519623231965,167166.0,92863.0,5307.0,19.532241171589703
63122.52971219951,167189.0,92892.0,5327.0,19.54233013913472
63122.539801167055,167223.0,92913.0,5299.0,19.552419106679736
63122.54989013461,167189.0,92908.0,5361.0,19.562508074232028
63122.55997910215,167239.0,92910.0,5375.0,19.572597041777044
63122.5700680697,167208.0,92877.0,5328.0,19.58268600932206
63122.58015703725,167219.0,92880.0,5344.0,19.592774976874352
63122.590246004795,167257.0,92869.0,5347.0,19.60286394441937
63122.60033497234,167280.0,92919.0,5356.0,19.612952911964385
63122.61042393989,167264.0,92901.0,5360.0,19.623041879516677
63122.62051290744,167259.0,92895.0,5351.0,19.633130847061693
63122.63060187498,167277.0,92923.0,5361.0,19.64321981460671
63122.640690842534,167303.0,92894.0,5368.0,19.653308782159
63122.65077981008,167301.0,92908.0,5375.0,19.663397749704018
63122.660868777624,167317.0,92927.0,5395.0,19.673486717249034
63122.67095774518,167325.0,92923.0,5386.0,19.683575684801326
63122.68104671272,167317.0,92895.0,5381.0,19.693664652346342
63122.69113568027,167340.0,92918.0,5395.0,19.70375361989136
63122.70122464781,167344.0,92909.0,5390.0,19.713842587436375
63122.711313615364,167355.0,92907.0,5377.0,19.723931554988667
63122.72140258291,167337.0,92885.0,5394.0,19.734020522533683
63122.731491550454,167372.0,92923.0,5397.0,19.7441094900787
63122.741580518006,167410.0,92959.0,5412.0,19.75419845763099
63122.75166948555,167404.0,92954.0,5435.0,19.764287425176008
63122.761758453096,167423.0,92948.0,5426.0,19.774376392721024
63122.77184742065,167405.0,92934.0,5423.0,19.784465360273316
63122.78193638819,167416.0,92931.0,5390.0,19.794554327818332
63122.79202535574,167413.0,92921.0,5402.0,19.80464329536335
63122.80211432329,167460.0,92962.0,5430.0,19.81473226291564
63122.812203290836,167442.0,92946.0,5425.0,19.824821230460657
63122.82229225838,167425.0,92968.0,5412.0,19.834910198005673
63122.83238122593,167452.0,92919.0,5426.0,19.844999165557965
63122.84247019348,167437.0,92904.0,5426.0,19.85508813310298
63122.85255916102,167440.0,92938.0,5445.0,19.865177100647998
63122.862648128576,167456.0,92960.0,5448.0,19.87526606820029
63122.87273709612,167411.0,92933.0,5422.0,19.885355035745306
63122.882826063666,167393.0,92950.0,5438.0,19.895444003290322
63122.89291503121,167369.0,92922.0,5415.0,19.90553297083534
63122.90300399876,167335.0,92931.0,5408.0,19.91562193838763
63122.91309296631,167334.0,92919.0,5382.0,19.925710905932647
