timestamp,time_from_segment_start_sec,selected_channel_name,backup_channel_name,selected_channel_raw,selected_channel_clipped,selected_channel_detrended,selected_channel_filtered,selected_channel_filtered_z
63102.99102504391,0.0,PPG_2,PPG_1,86960.0,86960.0,129.58375390639412,-4.464444807438297,-0.20763863865586032
63103.00111891197,0.0100938680552644,PPG_2,PPG_1,86995.0,86995.0,164.54593464806385,2.7504182543581863,0.12810941577400742
63103.01121278003,0.0201877361178048,PPG_2,PPG_1,87020.0,87020.0,189.50811538973358,9.45807986500277,0.44025454122661273
63103.02130664809,0.0302816041730693,PPG_2,PPG_1,86978.0,86978.0,147.4702961314033,15.209606498002437,0.7079053421484498
63103.03140051614,0.0403754722283338,PPG_2,PPG_1,86989.0,86989.0,158.43247687307303,19.64427239453194,0.9142752252707395
63103.0414943842,0.0504693402835982,PPG_2,PPG_1,86988.0,86988.0,157.39465761474275,22.512570044780656,1.047753206397796
63103.05158825226,0.0605632083461387,PPG_2,PPG_1,86974.0,86974.0,143.35683835641248,23.686261804156292,1.1023716684996419
63103.061682120315,0.0706570764014031,PPG_2,PPG_1,87014.0,87014.0,183.3190190980822,23.160031113534288,1.0778832022537377
63103.07177598837,0.0807509444566676,PPG_2,PPG_1,87004.0,87004.0,173.28119983975193,21.0468644391077,0.9795457017983792
63103.081869856425,0.0908448125119321,PPG_2,PPG_1,86980.0,86980.0,149.24338058142166,17.56591914982949,0.8175577890075627
63103.09196372449,0.1009386805744725,PPG_2,PPG_1,86960.0,86960.0,129.20556132310594,13.020717986977491,0.6060440798284518
63103.10205759254,0.111032548629737,PPG_2,PPG_1,86979.0,86979.0,148.16774206477567,7.768874596347452,0.3616463434512711
63103.1121514606,0.1211264166850014,PPG_2,PPG_1,86963.0,86963.0,132.1299228064454,2.1882791673615967,0.10194993039479466
63103.122245328654,0.1312202847402659,PPG_2,PPG_1,86944.0,86944.0,113.09210354811512,-3.355713099404288,-0.15604313217587565
63103.13233919671,0.1413141527955304,PPG_2,PPG_1,86947.0,86947.0,116.05428428978485,-8.539639778405313,-0.39728032294083815
63103.14243306477,0.1514080208580708,PPG_2,PPG_1,86942.0,86942.0,111.01646503145457,-13.105526421520711,-0.6097566435643934
63103.15252693283,0.1615018889133352,PPG_2,PPG_1,86935.0,86935.0,103.9786457731243,-16.876100042192036,-0.7852225874612908
63103.16262080088,0.1715957569685997,PPG_2,PPG_1,86941.0,86941.0,109.94082651479403,-19.760160608316664,-0.9194341054957216
63103.17271466894,0.1816896250238642,PPG_2,PPG_1,86922.0,86922.0,90.90300725646375,-21.748047892589657,-1.0119416530962637
63103.182808537,0.1917834930864046,PPG_2,PPG_1,86965.0,86965.0,133.86518799813348,-22.897876713693012,-1.0654496388066277
63103.192902405055,0.2018773611416691,PPG_2,PPG_1,86973.0,86973.0,141.8273687398032,-23.31465520781299,-1.0848446803105962
63103.20299627311,0.2119712291969335,PPG_2,PPG_1,86939.0,86939.0,107.78954948147293,-23.12736880425248,-1.076129193255884
63103.213090141166,0.222065097252198,PPG_2,PPG_1,86946.0,86946.0,114.75173022314266,-22.470525281226028,-1.0455625791660417
63103.22318400923,0.2321589653147384,PPG_2,PPG_1,86946.0,86946.0,114.71391096481238,-21.473333214356206,-0.999157637938914
63103.23327787728,0.2422528333700029,PPG_2,PPG_1,86929.0,86929.0,97.67609170648211,-20.254818709736444,-0.9424533220403956
63103.24337174534,0.2523467014252674,PPG_2,PPG_1,86950.0,86950.0,118.63827244815184,-18.921452354531134,-0.8804043052027902
63103.253465613394,0.2624405694805318,PPG_2,PPG_1,86937.0,86937.0,105.60045318982156,-17.564642915862745,-0.8172643501734064
63103.26355948146,0.2725344375430722,PPG_2,PPG_1,86979.0,86979.0,147.5626339314913,-16.256932627903115,-0.7564092540780631
63103.27365334951,0.2826283055983367,PPG_2,PPG_1,86941.0,86941.0,109.52481467316102,-15.047901481998776,-0.7001462520632445
63103.28374721757,0.2927221736536012,PPG_2,PPG_1,86958.0,86958.0,126.48699541483074,-13.96239930825478,-0.6496317461339816
63103.29384108562,0.3028160417088656,PPG_2,PPG_1,86959.0,86959.0,127.44917615651502,-13.002881436862062,-0.6049799965787271
63103.30393495368,0.3129099097641301,PPG_2,PPG_1,86935.0,86935.0,103.41135689818475,-12.155365147015589,-0.5655403089538423
63103.31402882174,0.3230037778266705,PPG_2,PPG_1,86956.0,86956.0,124.37353763985448,-11.397079896294146,-0.5302530421752548
63103.324122689795,0.333097645881935,PPG_2,PPG_1,86958.0,86958.0,126.3357183815242,-10.70347532258894,-0.4979757301638478
63103.33421655785,0.3431915139371995,PPG_2,PPG_1,86970.0,86970.0,138.29789912319393,-10.053067110812904,-0.4677085872092816
63103.344310425906,0.3532853819924639,PPG_2,PPG_1,86940.0,86940.0,108.26007986486366,-9.430685258529818,-0.43874566799283954
63103.35440429397,0.3633792500550044,PPG_2,PPG_1,86956.0,86956.0,124.22226060653338,-8.830454247908792,-0.4108135517075578
63103.364498162024,0.3734731181102688,PPG_2,PPG_1,86960.0,86960.0,128.1844413482031,-8.258049727800557,-0.38417635813546686
63103.37459203008,0.3835669861655333,PPG_2,PPG_1,86977.0,86977.0,145.14662208987284,-7.730693640918864,-0.35963552088800427
63103.384685898134,0.3936608542207978,PPG_2,PPG_1,86932.0,86932.0,100.10880283154256,-7.274949515873983,-0.3384271899756833
63103.3947797662,0.4037547222833382,PPG_2,PPG_1,86960.0,86960.0,128.0709835732123,-6.923424684905199,-0.322068767498269
63103.40487363425,0.4138485903386026,PPG_2,PPG_1,86964.0,86964.0,132.03316431488201,-6.709784392834482,-0.31212688616300344
63103.41496750231,0.4239424583938671,PPG_2,PPG_1,86971.0,86971.0,138.99534505655174,-6.660582838318735,-0.3098372618053273
63103.42506137036,0.4340363264491316,PPG_2,PPG_1,86986.0,86986.0,153.95752579822147,-6.784963893583503,-0.3156254100980103
63103.435155238425,0.444130194511672,PPG_2,PPG_1,86965.0,86965.0,132.9197065398912,-7.0662441598182175,-0.32871495889871977
63103.44524910648,0.4542240625669365,PPG_2,PPG_1,86959.0,86959.0,126.88188728156092,-7.459336481605248,-0.3470077499220399
63103.455342974536,0.4643179306222009,PPG_2,PPG_1,86946.0,86946.0,113.84406802323065,-7.894894809851338,-0.36727672246480325
63103.46543684259,0.4744117986774654,PPG_2,PPG_1,86994.0,86994.0,161.80624876490037,-8.287581434448539,-0.38555063412187546
63103.475530710646,0.4845056667327299,PPG_2,PPG_1,86955.0,86955.0,122.7684295065701,-8.545558386311335,-0.3975557489707378
63103.48562457871,0.4945995347952703,PPG_2,PPG_1,86964.0,86964.0,131.73061024823983,-8.581063458330563,-0.39920799915909827
63103.49571844677,0.5046934028505348,PPG_2,PPG_1,86956.0,86956.0,123.6927909899241,-8.323031782945566,-0.38720033771774304
63103.50581231482,0.5147872709057992,PPG_2,PPG_1,86943.0,86943.0,110.65497173159383,-7.730414749720341,-0.35962254251592707
63103.515906182874,0.5248811389610637,PPG_2,PPG_1,86959.0,86959.0,126.61715247326356,-6.8025325114859445,-0.31644297645086333
63103.52600005094,0.5349750070236041,PPG_2,PPG_1,86950.0,86950.0,117.57933321493329,-5.582716523193227,-0.2596780952155777
63103.53609391899,0.5450688750788686,PPG_2,PPG_1,86978.0,86978.0,145.541513956603,-4.153151169011807,-0.19315239926879363
63103.54618778705,0.555162743134133,PPG_2,PPG_1,86974.0,86974.0,141.50369469827274,-2.6214605265899174,-0.12187424072623447
63103.5562816551,0.5652566111893975,PPG_2,PPG_1,86993.0,86993.0,160.46587543994247,-1.1022899653135412,-0.0511787117983895
63103.566375523165,0.5753504792519379,PPG_2,PPG_1,86981.0,86981.0,148.4280561816122,0.30129528196205274,0.014137984022848316
63103.57646939122,0.5854443473072024,PPG_2,PPG_1,86989.0,86989.0,156.39023692328192,1.5120667919472146,0.07048197494197883
63103.58656325928,0.5955382153624669,PPG_2,PPG_1,86985.0,86985.0,152.35241766495164,2.485848515077699,0.11579750154034725
63103.59665712733,0.6056320834177313,PPG_2,PPG_1,86970.0,86970.0,137.31459840662137,3.2112079774554747,0.14955254667005935
63103.606750995394,0.6157259514802718,PPG_2,PPG_1,86965.0,86965.0,132.2767791482911,3.7031738004344796,0.17244647639491
63103.61684486345,0.6258198195355362,PPG_2,PPG_1,86982.0,86982.0,149.23895988996082,3.9943672349237977,0.18599734052845543
63103.626938731504,0.6359136875908007,PPG_2,PPG_1,86966.0,86966.0,133.20114063163055,4.127477075029726,0.19219168814922763
63103.63703259956,0.6460075556460652,PPG_2,PPG_1,86988.0,86988.0,155.16332137330028,4.151437620886495,0.1933067067692047
63103.647126467615,0.6561014237013296,PPG_2,PPG_1,87007.0,87007.0,174.12550211497,4.121199813972017,0.1918995719760969
63103.65722033568,0.66619529176387,PPG_2,PPG_1,86990.0,86990.0,157.08768285663973,4.098611706048819,0.1908484205926946
63103.66731420373,0.6762891598191345,PPG_2,PPG_1,86971.0,86971.0,138.04986359830946,4.150528178382589,0.19326438530742684
63103.67740807179,0.686383027874399,PPG_2,PPG_1,86971.0,86971.0,138.01204433997918,4.342154588125729,0.20218183719772231
63103.68750193984,0.6964768959296634,PPG_2,PPG_1,86972.0,86972.0,138.9742250816489,4.728186028979857,0.22014604581892647
63103.697595807906,0.7065707639922039,PPG_2,PPG_1,87000.0,87000.0,166.9364058233332,5.346611859774929,0.24892486916182155
63103.70768967596,0.7166646320474683,PPG_2,PPG_1,86988.0,86988.0,154.89858656500292,6.217627192348673,0.2894580990769853
63103.717783544016,0.7267585001027328,PPG_2,PPG_1,86998.0,86998.0,164.86076730667264,7.34600549714402,0.34196787192381417
63103.72787741207,0.7368523681579973,PPG_2,PPG_1,86977.0,86977.0,143.82294804834237,8.723748162408784,0.40608196742439945
63103.737971280134,0.7469462362205377,PPG_2,PPG_1,87003.0,87003.0,169.7851287900121,10.331541932201675,0.4809016314303319
63103.74806514819,0.7570401042758022,PPG_2,PPG_1,86999.0,86999.0,165.74730953168182,12.139631416752078,0.5650421787246201
63103.75815901624,0.7671339723310666,PPG_2,PPG_1,87012.0,87012.0,178.70949027335155,14.108556932811519,0.6566673288726088
63103.7682528843,0.7772278403863311,PPG_2,PPG_1,86991.0,86991.0,157.67167101502127,16.188727783767888,0.7534693485517489
63103.778346752355,0.7873217084415955,PPG_2,PPG_1,86972.0,86972.0,138.633851756691,18.3180461838836,0.8525584794163555
63103.78844062042,0.797415576504136,PPG_2,PPG_1,87016.0,87016.0,182.59603249836073,20.419601748022153,0.9503556497704234
63103.79853448847,0.8075094445594004,PPG_2,PPG_1,87009.0,87009.0,175.55821324003045,22.403296156869736,1.0426680793549352
63103.80862835653,0.8176033126146649,PPG_2,PPG_1,86998.0,86998.0,164.52039398170018,24.172979223593014,1.1250213605635568
63103.81872222458,0.8276971806699294,PPG_2,PPG_1,87046.0,87046.0,212.4825747233699,25.63706321578181,1.193153402390128
63103.828816092646,0.8377910487324698,PPG_2,PPG_1,87026.0,87026.0,192.44475546503963,26.719180196935593,1.2435103763168707
63103.8389099607,0.8478849167877343,PPG_2,PPG_1,87011.0,87011.0,177.40693620670936,27.3651740571291,1.2735720947273106
63103.84900382876,0.8579787848429987,PPG_2,PPG_1,86982.0,86982.0,148.3691169483791,27.543875278074516,1.2818880650711366
63103.85909769681,0.8680726528982632,PPG_2,PPG_1,87049.0,87049.0,215.3312976900488,27.243323497163487,1.2679017045772503
63103.869191564874,0.8781665209608036,PPG_2,PPG_1,87025.0,87025.0,191.29347843171854,26.466710805714715,1.2317615591626896
63103.87928543293,0.8882603890160681,PPG_2,PPG_1,87002.0,87002.0,168.25565917338827,25.2290603852764,1.1741667417465702
63103.889379300985,0.8983542570713325,PPG_2,PPG_1,87007.0,87007.0,173.217839915058,23.552333153983643,1.0961392170528517
63103.89947316904,0.908448125126597,PPG_2,PPG_1,87003.0,87003.0,169.18002065674227,21.45898472871122,0.9987239709131642
63103.9095670371,0.9185419931891374,PPG_2,PPG_1,87008.0,87008.0,174.142201398412,18.967418786747146,0.8827774296783453
63103.91966090516,0.928635861244402,PPG_2,PPG_1,86984.0,86984.0,150.10438214008173,16.09229619871529,0.748981845907598
63103.92975477321,0.9387297292996664,PPG_2,PPG_1,87023.0,87023.0,189.06656288175145,12.850568025367258,0.5981260475549843
63103.93984864127,0.9488235973549308,PPG_2,PPG_1,87023.0,87023.0,189.02874362342118,9.272502938347786,0.43161860572266564
63103.94994250932,0.9589174654101952,PPG_2,PPG_1,87002.0,87002.0,167.9909243650909,5.414539304024292,0.25208591422307575
63103.960036377386,0.9690113334727356,PPG_2,PPG_1,87011.0,87011.0,176.95310510676063,1.3688049613888211,0.06381519825168568
63103.97013024544,0.9791052015280002,PPG_2,PPG_1,87009.0,87009.0,174.91528584843036,-2.7345778775640883,-0.12713822566767308
63103.9802241135,0.9891990695832646,PPG_2,PPG_1,86995.0,86995.0,160.87746659010008,-6.733541297286716,-0.3132324282059771
63103.99031798155,0.9992929376385292,PPG_2,PPG_1,86966.0,86966.0,131.8396473317698,-10.448036204760536,-0.48608871497012995
63104.000411849614,1.0093868057010695,PPG_2,PPG_1,86984.0,86984.0,149.80182807343954,-13.699671486442487,-0.6374055466534734
63104.01050571767,1.019480673756334,PPG_2,PPG_1,86987.0,86987.0,152.76400881510926,-16.33261038452346,-0.7599309646540322
63104.020599585725,1.0295745418115985,PPG_2,PPG_1,86970.0,86970.0,135.726189556779,-18.231767579363417,-0.8483094034078277
63104.03069345378,1.039668409866863,PPG_2,PPG_1,86944.0,86944.0,109.68837029844872,-19.336681178077804,-0.8997272318411628
63104.04078732184,1.0497622779294034,PPG_2,PPG_1,86981.0,86981.0,146.65055104011844,-19.64941817798704,-0.9142806389354362
63104.0508811899,1.0598561459846678,PPG_2,PPG_1,86992.0,86992.0,157.61273178178817,-19.233531913948152,-0.8949271179026482
63104.06097505795,1.0699500140399325,PPG_2,PPG_1,86972.0,86972.0,137.5749125234579,-18.203196262667888,-0.8469798197537984
63104.07106892601,1.0800438820951968,PPG_2,PPG_1,87002.0,87002.0,167.53709326512762,-16.705817276902273,-0.7772983750875718
63104.08116279407,1.0901377501577372,PPG_2,PPG_1,87000.0,87000.0,165.49927400679735,-14.902718662529244,-0.69339008098196
63104.09125666213,1.1002316182130016,PPG_2,PPG_1,86986.0,86986.0,151.46145474846708,-12.951405958228573,-0.6025845537748915
63104.10135053018,1.110325486268266,PPG_2,PPG_1,86993.0,86993.0,158.42363549015136,-10.991764849556718,-0.5113914591891797
63104.11144439824,1.1204193543235306,PPG_2,PPG_1,87002.0,87002.0,167.38581623182108,-9.136792712622249,-0.42506919906269497
63104.12153826629,1.130513222378795,PPG_2,PPG_1,87014.0,87014.0,179.3479969734908,-7.467061272992104,-0.34736722780218804
63104.131632134355,1.1406070904413357,PPG_2,PPG_1,86993.0,86993.0,158.31017771516053,-6.028900535889482,-0.2804415404670498
63104.14172600241,1.1507009584966,PPG_2,PPG_1,87020.0,87020.0,185.27235845683026,-4.837445112106323,-0.22499643540423753
63104.151819870465,1.1607948265518644,PPG_2,PPG_1,86984.0,86984.0,149.2345391985,-3.884947172998651,-0.1806713626807879
63104.16191373852,1.1708886946071289,PPG_2,PPG_1,86993.0,86993.0,158.19671994016971,-3.1528862378983784,-0.14660446042930905
63104.17200760658,1.1809825626696693,PPG_2,PPG_1,86995.0,86995.0,160.15890068183944,-2.6246026785485186,-0.12202046268468154
63104.18210147464,1.1910764307249335,PPG_2,PPG_1,86993.0,86993.0,158.12108142350917,-2.2943598544026975,-0.10665241137910682
63104.19219534269,1.2011702987801982,PPG_2,PPG_1,87008.0,87008.0,173.0832621651789,-2.169936480200326,-0.10086229374884319
63104.20228921075,1.211264166835463,PPG_2,PPG_1,87007.0,87007.0,172.04544290684862,-2.26837407919866,-0.10544314747584502
63104.21238307881,1.221358034898003,PPG_2,PPG_1,87034.0,87034.0,199.00762364851835,-2.6068509804728826,-0.12119437658427022
63104.22247694687,1.2314519029532676,PPG_2,PPG_1,86996.0,86996.0,160.96980439018807,-3.192336360675729,-0.14844029596160768
63104.23257081492,1.241545771008532,PPG_2,PPG_1,87009.0,87009.0,173.9319851318578,-4.013741775703557,-0.18666489809634057
63104.24266468298,1.2516396390637965,PPG_2,PPG_1,87007.0,87007.0,171.89416587352753,-5.037939337604246,-0.23432655651101142
63104.25275855104,1.261733507126337,PPG_2,PPG_1,87023.0,87023.0,187.85634661519725,-6.208596946046207,-0.2888038225479974
63104.262852419095,1.2718273751816014,PPG_2,PPG_1,87020.0,87020.0,184.81852735686698,-7.447300560901733,-0.3464476510088845
63104.27294628715,1.2819212432368658,PPG_2,PPG_1,86974.0,86974.0,138.7807080985367,-8.65833184800546,-0.4028037308147197
63104.283040155206,1.2920151112921303,PPG_2,PPG_1,87008.0,87008.0,172.74288884020643,-9.737587795188773,-0.4530275647801055
63104.29313402326,1.3021089793473948,PPG_2,PPG_1,87007.0,87007.0,171.70506958187616,-10.58286508168758,-0.4923630590181717
63104.30322789132,1.3122028474099352,PPG_2,PPG_1,87026.0,87026.0,190.66725032356044,-11.102274883767858,-0.5165341110543047
63104.31332175938,1.3222967154651997,PPG_2,PPG_1,86987.0,86987.0,151.62943106523016,-11.221077345812345,-0.5220626561079349
63104.323415627434,1.332390583520464,PPG_2,PPG_1,87013.0,87013.0,177.5916118068999,-10.889293820658269,-0.5066229073409463
63104.33350949549,1.3424844515757286,PPG_2,PPG_1,86996.0,86996.0,160.55379254856962,-10.090356329974686,-0.4694438637734441
63104.34360336355,1.352578319638269,PPG_2,PPG_1,86980.0,86980.0,144.51597329023934,-8.848353672916613,-0.41164651237088784
63104.35369723161,1.3626721876935337,PPG_2,PPG_1,87000.0,87000.0,164.47815403190907,-7.230463215505242,-0.3363569928465546
63104.36379109966,1.372766055748798,PPG_2,PPG_1,87014.0,87014.0,178.4403347735788,-5.341256281727536,-0.24844159556202983
63104.37388496772,1.3828599238040624,PPG_2,PPG_1,87041.0,87041.0,205.40251551524852,-3.307739892425884,-0.15381066972027502
63104.38397883578,1.3929537918666028,PPG_2,PPG_1,87024.0,87024.0,188.36469625691825,-1.258588863988037,-0.05845217640749136
63104.394072703835,1.4030476599218673,PPG_2,PPG_1,87042.0,87042.0,206.32687699858798,0.6957272546542431,0.032493116518372486
63104.40416657189,1.4131415279771318,PPG_2,PPG_1,87032.0,87032.0,196.2890577402577,2.4761517950173073,0.11534625875628575
63104.414260439946,1.4232353960323962,PPG_2,PPG_1,87009.0,87009.0,173.25123848192743,4.039202930881261,0.18808379699447453
63104.42435430801,1.4333292640949369,PPG_2,PPG_1,87019.0,87019.0,183.21341922359716,5.3732751058625015,0.2501656595859794
63104.43444817606,1.4434231321502011,PPG_2,PPG_1,87046.0,87046.0,210.17559996526688,6.4909455347696,0.3021771348953828
63104.44454204412,1.4535170002054656,PPG_2,PPG_1,87028.0,87028.0,192.1377807069366,7.4209039262671865,0.3454533160192278
63104.454635912174,1.46361086826073,PPG_2,PPG_1,87009.0,87009.0,173.09996144860634,8.200213623328322,0.38171896823542595
63104.46472978023,1.4737047363159943,PPG_2,PPG_1,87041.0,87041.0,205.06214219027606,8.866583925257741,0.41272891679388646
63104.47482364829,1.483798604378535,PPG_2,PPG_1,87034.0,87034.0,198.0243229319458,9.4520488151593,0.4399738826425522
63104.48491751635,1.4938924724337994,PPG_2,PPG_1,87036.0,87036.0,199.98650367361552,9.979453161688701,0.46451696568216444
63104.4950113844,1.503986340489064,PPG_2,PPG_1,87036.0,87036.0,199.94868441528524,10.46099354033067,0.4869257409941391
63104.50510525246,1.5140802085443283,PPG_2,PPG_1,87015.0,87015.0,178.91086515696952,10.89758344984623,0.5072427188006537
63104.51519912052,1.5241740766068688,PPG_2,PPG_1,87050.0,87050.0,213.87304589863925,11.279499748596825,0.5250154267733869
63104.525292988576,1.5342679446621332,PPG_2,PPG_1,87041.0,87041.0,204.83522664030897,11.589650930415791,0.5394485012452
63104.53538685663,1.5443618127173977,PPG_2,PPG_1,87058.0,87058.0,221.7974073819787,11.809164827508582,0.5496637143737041
63104.545480724686,1.5544556807726622,PPG_2,PPG_1,87027.0,87027.0,190.75958812364843,11.922629601210016,0.5549438668437214
63104.55557459275,1.5645495488352026,PPG_2,PPG_1,87032.0,87032.0,195.72176886531815,11.920567133705312,0.5548478886600611
63104.5656684608,1.574643416890467,PPG_2,PPG_1,87052.0,87052.0,215.68394960698788,11.799591917847257,0.549218233182101
63104.57576232886,1.5847372849457315,PPG_2,PPG_1,87037.0,87037.0,200.6461303486576,11.562391660365117,0.5381799744822799
63104.585856196914,1.594831153000996,PPG_2,PPG_1,87051.0,87051.0,214.60831109032733,11.218232278807992,0.5221643076869604
63104.59595006498,1.6049250210635364,PPG_2,PPG_1,87033.0,87033.0,196.57049183199706,10.78286902307846,0.5019044129627704
63104.60604393303,1.6150188891188009,PPG_2,PPG_1,87033.0,87033.0,196.5326725736668,10.277113084949132,0.4783687518159333
63104.61613780109,1.6251127571740651,PPG_2,PPG_1,87049.0,87049.0,212.4948533153365,9.724856065693999,0.45266913448820256
63104.62623166914,1.6352066252293298,PPG_2,PPG_1,87042.0,87042.0,205.45703405700624,9.151831319471682,0.4260030783154876
63104.6363255372,1.6453004932845945,PPG_2,PPG_1,87022.0,87022.0,185.41921479867597,8.58535253197535,0.3996416423258312
63104.64641940526,1.6553943613471347,PPG_2,PPG_1,87053.0,87053.0,216.3813955403457,8.054697295437911,0.3749472771362994
63104.65651327331,1.6654882294023992,PPG_2,PPG_1,87052.0,87052.0,215.34357628201542,7.592320858659108,0.35343030755101074
63104.66660714137,1.6755820974576636,PPG_2,PPG_1,87043.0,87043.0,206.30575702368515,7.235383235887381,0.33681999750465635
63104.676701009426,1.685675965512928,PPG_2,PPG_1,87035.0,87035.0,198.26793776535487,7.02551958374556,0.32705386441264195
63104.68679487749,1.6957698335754685,PPG_2,PPG_1,87054.0,87054.0,217.2301185070246,7.005474189540209,0.3261210397634308
63104.696888745544,1.705863701630733,PPG_2,PPG_1,87027.0,87027.0,190.19229924869433,7.213358742979012,0.3357950742898354
63104.7069826136,1.7159575696859974,PPG_2,PPG_1,87038.0,87038.0,201.1544799903786,7.6761671190606275,0.3573321444341103
63104.717076481655,1.726051437741262,PPG_2,PPG_1,87051.0,87051.0,214.11666073204833,8.404198293724447,0.3912115193250877
63104.72717034972,1.7361453058038023,PPG_2,PPG_1,87039.0,87039.0,202.07884147371806,9.387766312277185,0.43698245715163253
63104.73726421777,1.7462391738590668,PPG_2,PPG_1,87056.0,87056.0,219.04102221538778,10.59634357290428,0.4932243373381553
63104.74735808583,1.7563330419143313,PPG_2,PPG_1,87050.0,87050.0,213.0032029570575,11.979095316940793,0.5575715333754654
63104.75745195388,1.7664269099695955,PPG_2,PPG_1,87056.0,87056.0,218.96538369872724,13.465653929808186,0.626749445387272
63104.76754582194,1.7765207780248602,PPG_2,PPG_1,87034.0,87034.0,196.92756444039696,14.966514167212809,0.6965928922224609
63104.77763969,1.7866146460874006,PPG_2,PPG_1,87061.0,87061.0,223.8897451820667,16.373552351477127,0.7620702725731352
63104.787733558056,1.796708514142665,PPG_2,PPG_1,87046.0,87046.0,208.85192592373642,17.562330756759124,0.8173908009467241
63104.79782742611,1.8068023821979295,PPG_2,PPG_1,87038.0,87038.0,200.81410666540614,18.397757026776738,0.8562678721226493
63104.80792129417,1.816896250253194,PPG_2,PPG_1,87089.0,87089.0,251.77628740707587,18.74372561547957,0.8723677314763069
63104.81801516223,1.8269901183157344,PPG_2,PPG_1,87048.0,87048.0,210.7384681487456,18.476084665090198,0.8599128965599229
63104.828109030284,1.837083986370999,PPG_2,PPG_1,87048.0,87048.0,210.70064889041532,17.496556696066868,0.8143299649030975
63104.83820289834,1.8471778544262631,PPG_2,PPG_1,87071.0,87071.0,233.66282963208505,15.745156246568436,0.732827476441414
63104.848296766395,1.857271722481528,PPG_2,PPG_1,87077.0,87077.0,239.62501037375478,13.210299574885726,0.6148663746870967
63104.85839063446,1.8673655905440685,PPG_2,PPG_1,87046.0,87046.0,208.5871911154245,9.935447198188616,0.4624691213222763
63104.86848450251,1.8774594585993327,PPG_2,PPG_1,87029.0,87029.0,191.54937185709423,6.019807055503657,0.2802524183171585
63104.87857837057,1.8875533266545972,PPG_2,PPG_1,87078.0,87078.0,240.51155259876396,1.6126600131643645,0.07516314186409666
63104.88867223862,1.8976471947098617,PPG_2,PPG_1,87032.0,87032.0,194.47373334043368,-3.096528030323018,-0.14398179685516904
63104.898766106686,1.907741062772402,PPG_2,PPG_1,87038.0,87038.0,200.4359140821034,-7.891232065042668,-0.3671062744004601
63104.90885997474,1.9178349308276663,PPG_2,PPG_1,87025.0,87025.0,187.3980948237877,-12.54477272206893,-0.5836616280398149
63104.9189538428,1.927928798882931,PPG_2,PPG_1,87014.0,87014.0,176.3602755654574,-16.839792308005105,-0.7835329848992453
63104.92904771085,1.9380226669381957,PPG_2,PPG_1,87009.0,87009.0,171.32245630712714,-20.58686912777104,-0.9579054908304128
63104.93914157891,1.94811653499346,PPG_2,PPG_1,87027.0,87027.0,189.28463704879687,-23.638671190592305,-1.099922961754132
63104.94923544697,1.9582104030560004,PPG_2,PPG_1,87018.0,87018.0,180.2468177904666,-25.897617049759866,-1.205044385512529
63104.959329315025,1.9683042711112648,PPG_2,PPG_1,87006.0,87006.0,168.20899853213632,-27.317417938869934,-1.2711156861198347
63104.96942318308,1.9783981391665293,PPG_2,PPG_1,87034.0,87034.0,196.17117927380605,-27.900220224669084,-1.2982367460621176
63104.979517051135,1.9884920072217935,PPG_2,PPG_1,87023.0,87023.0,185.13336001547577,-27.690836699019563,-1.2884929559493516
63104.9896109192,1.9985858752843344,PPG_2,PPG_1,87016.0,87016.0,178.0955407571455,-26.769652168094243,-1.2456250717802437
63104.99970478725,2.008679743339598,PPG_2,PPG_1,87031.0,87031.0,193.05772149881523,-25.246043398348377,-1.1747230081134823
63105.00979865531,2.018773611394863,PPG_2,PPG_1,87008.0,87008.0,170.01990224048495,-23.253026916338783,-1.0819767701669005
63105.01989252336,2.0288674794501276,PPG_2,PPG_1,87025.0,87025.0,186.98208298215468,-20.942245567781463,-0.9744431502844791
63105.029986391426,2.038961347512668,PPG_2,PPG_1,87014.0,87014.0,175.9442637238244,-18.477572387466108,-0.8597480801204853
63105.04008025948,2.0490552155679325,PPG_2,PPG_1,87056.0,87056.0,217.90644446549413,-16.02576950486108,-0.7456519371127194
63105.05017412754,2.059149083623197,PPG_2,PPG_1,87031.0,87031.0,192.86862520716386,-13.744364320454562,-0.6394853549517024
63105.06026799559,2.0692429516784614,PPG_2,PPG_1,87049.0,87049.0,210.83080594883359,-11.769361612032789,-0.547577398949386
63105.070361863654,2.079336819741002,PPG_2,PPG_1,87026.0,87026.0,187.7929866905033,-10.205912305134328,-0.47482133157917894
63105.08045573171,2.0894306877962663,PPG_2,PPG_1,87052.0,87052.0,213.75516743217304,-9.12301795148203,-0.42442818214893624
63105.090549599765,2.0995245558515307,PPG_2,PPG_1,87038.0,87038.0,199.71734817384277,-8.551406526764989,-0.3978278957547487
63105.10064346782,2.109618423906795,PPG_2,PPG_1,87041.0,87041.0,202.6795289155125,-8.483681726862883,-0.3946762808718292
63105.110737335875,2.1197122919620597,PPG_2,PPG_1,87061.0,87061.0,222.64170965719677,-8.876674180647399,-0.412964424476722
63105.12083120394,2.1298061600246,PPG_2,PPG_1,87028.0,87028.0,189.6038903988665,-9.656427161826501,-0.44925070518980115
63105.13092507199,2.139900028079865,PPG_2,PPG_1,87024.0,87024.0,185.56607114053622,-10.726043463488201,-0.49902595236960917
63105.14101894005,2.149993896135129,PPG_2,PPG_1,87029.0,87029.0,190.52825188220595,-11.974902505953644,-0.5571423698502362
63105.151112808104,2.1600877641903935,PPG_2,PPG_1,87060.0,87060.0,221.49043262387568,-13.285904643725235,-0.6181506541849647
63105.161206676166,2.170181632252934,PPG_2,PPG_1,87046.0,87046.0,207.4526133655454,-14.539012106681703,-0.6764647745051391
63105.17130054422,2.1802755003081984,PPG_2,PPG_1,87061.0,87061.0,222.41479410721513,-15.61375830585015,-0.7264787445952174
63105.18139441228,2.190369368363463,PPG_2,PPG_1,87007.0,87007.0,168.37697484888486,-16.39530935350535,-0.7628486994287775
63105.19148828033,2.2004632364187273,PPG_2,PPG_1,87037.0,87037.0,198.33915559055458,-16.785583503029578,-0.7810103450864573
63105.201582148395,2.2105571044812677,PPG_2,PPG_1,87038.0,87038.0,199.3013363322243,-16.71621476922141,-0.7777822287362411
63105.21167601645,2.220650972536532,PPG_2,PPG_1,87015.0,87015.0,176.26351707389404,-16.158740437310623,-0.7518398205809529
63105.221769884505,2.2307448405917967,PPG_2,PPG_1,87025.0,87025.0,186.22569781556376,-15.129320436391927,-0.7039351327803247
63105.23186375256,2.240838708647061,PPG_2,PPG_1,87076.0,87076.0,237.1878785572335,-13.686864413378386,-0.6368095616947315
63105.24195762062,2.2509325767096016,PPG_2,PPG_1,87031.0,87031.0,192.15005929890322,-11.924978415498082,-0.5548191218417755
63105.25205148868,2.261026444764866,PPG_2,PPG_1,87033.0,87033.0,194.11224004057294,-9.960817371562682,-0.46341568931092386
63105.26214535673,2.2711203128201305,PPG_2,PPG_1,87056.0,87056.0,217.07442078224267,-7.9238981433220514,-0.36862641028304277
63105.27223922479,2.281214180875395,PPG_2,PPG_1,87052.0,87052.0,213.0366015239124,-5.944854373727344,-0.276530401033558
63105.28233309285,2.291308048930659,PPG_2,PPG_1,87047.0,87047.0,207.99878226558212,-4.1433875393010124,-0.1926980428033285
63105.29242696091,2.3014019169932,PPG_2,PPG_1,87075.0,87075.0,235.96096300725185,-2.61654166619612,-0.12164533855677065
63105.30252082896,2.3114957850484643,PPG_2,PPG_1,87061.0,87061.0,221.92314374892158,-1.4293507941925983,-0.06639868701286307
63105.31261469702,2.321589653103729,PPG_2,PPG_1,87055.0,87055.0,215.88532449060585,-0.6098779009152269,-0.028264015956835597
63105.32270856507,2.3316835211589932,PPG_2,PPG_1,87061.0,87061.0,221.84750523227558,-0.1500027702023426,-0.006863446175392475
63105.332802433135,2.3417773892215337,PPG_2,PPG_1,87025.0,87025.0,185.8096859739453,-0.011188748441158955,-0.0004036509811233531
63105.34289630119,2.351871257276798,PPG_2,PPG_1,87074.0,87074.0,234.77186671561503,-0.1321103999778517,-0.00603081381070891
63105.352990169245,2.3619651253320626,PPG_2,PPG_1,87062.0,87062.0,222.73404745728476,-0.4347894378840626,-0.02011616750672354
63105.3630840373,2.372058993387327,PPG_2,PPG_1,87071.0,87071.0,231.6962281989545,-0.8286050021687926,-0.03844261506093054
63105.37317790536,2.3821528614498675,PPG_2,PPG_1,87059.0,87059.0,219.6584089406242,-1.2148242632821677,-0.05641556401248953
63105.38327177342,2.392246729505132,PPG_2,PPG_1,87049.0,87049.0,209.62058968229394,-1.494434115228062,-0.06942737906513474
63105.393365641474,2.4023405975603964,PPG_2,PPG_1,87051.0,87051.0,211.58277042396367,-1.5791167221500515,-0.07336813584382648
63105.40345950953,2.412434465615661,PPG_2,PPG_1,87032.0,87032.0,192.5449511656334,-1.4023351474325325,-0.0651414974084081
63105.413553377584,2.4225283336709253,PPG_2,PPG_1,87089.0,87089.0,249.50713190730312,-0.9267156643444213,-0.043008254583420835
63105.42364724565,2.4326222017334658,PPG_2,PPG_1,87040.0,87040.0,200.46931264897285,-0.1457673448451441,-0.006666348072326297
63105.4337411137,2.4427160697887302,PPG_2,PPG_1,87073.0,87073.0,233.43149339064257,0.9188870848322369,0.042877995367411215
63105.44383498176,2.4528099378439947,PPG_2,PPG_1,87043.0,87043.0,203.3936741323123,2.222481498708214,0.10354155675114204
63105.45392884981,2.462903805899259,PPG_2,PPG_1,87083.0,87083.0,243.35585487398203,3.7035664568654987,0.1724647489014905
63105.464022717875,2.4729976739617996,PPG_2,PPG_1,87063.0,87063.0,223.31803561565175,5.292216687171763,0.2463935566177769
63105.47411658593,2.483091542017064,PPG_2,PPG_1,87070.0,87070.0,230.28021635732148,6.919168504519376,0.32210475205515565
63105.484210453986,2.4931854100723285,PPG_2,PPG_1,87091.0,87091.0,251.2423970989912,8.524089630799207,0.3967907358425836
63105.49430432204,2.503279278127593,PPG_2,PPG_1,87063.0,87063.0,223.20457784066093,10.061346443124862,0.468327919497582
63105.5043981901,2.5133731461901334,PPG_2,PPG_1,87081.0,87081.0,241.16675858233066,11.502156276417924,0.5353768841401785
63105.51449205816,2.523467014245398,PPG_2,PPG_1,87069.0,87069.0,229.12893932401494,12.833029327736977,0.597309873560251
63105.524585926214,2.5335608823006623,PPG_2,PPG_1,87083.0,87083.0,243.09112006568466,14.051734389411243,0.6540230571475611
63105.53467979427,2.543654750355927,PPG_2,PPG_1,87082.0,87082.0,242.0533008073544,15.162216779788727,0.7057000326985057
63105.54477366233,2.5537486184184672,PPG_2,PPG_1,87066.0,87066.0,226.01548154902412,16.169051499933534,0.7525537006788495
63105.55486753039,2.5638424864737317,PPG_2,PPG_1,87079.0,87079.0,238.97766229069384,17.071877199068844,0.7945672454097301
63105.56496139844,2.573936354528996,PPG_2,PPG_1,87046.0,87046.0,205.93984303236357,17.86143733130201,0.8313099078805363
63105.5750552665,2.5840302225842606,PPG_2,PPG_1,87098.0,87098.0,257.9020237740333,18.520068883769422,0.8619597290113056
63105.58514913455,2.594124090639525,PPG_2,PPG_1,87104.0,87104.0,263.864204515703,19.028589927782374,0.8856240660474518
63105.595243002615,2.6042179587020655,PPG_2,PPG_1,87076.0,87076.0,235.82638525737275,19.37779744314958,0.9018746508295326
63105.60533687067,2.61431182675733,PPG_2,PPG_1,87096.0,87096.0,255.78856599904248,19.57959555133841,0.9112654489128379
63105.615430738726,2.6244056948125944,PPG_2,PPG_1,87111.0,87111.0,270.7507467407122,19.67374941295612,0.9156469563072878
63105.62552460678,2.634499562867859,PPG_2,PPG_1,87109.0,87109.0,268.71292748238193,19.728463199201354,0.9181930957315549
63105.63561847485,2.6445934309303993,PPG_2,PPG_1,87069.0,87069.0,228.67510822405166,19.83285525816963,0.9230510438861246
63105.6457123429,2.654687298985664,PPG_2,PPG_1,87078.0,87078.0,237.63728896572138,20.080365993001408,0.9345691069399207
63105.655806210954,2.6647811670409283,PPG_2,PPG_1,87064.0,87064.0,223.5994697073911,20.546683492571912,0.956269476286697
63105.66590007901,2.6748750350961927,PPG_2,PPG_1,87067.0,87067.0,226.56165044906083,21.269493769290932,0.9899058935064992
63105.67599394707,2.684968903158733,PPG_2,PPG_1,87088.0,87088.0,247.52383119073056,22.236661739060168,1.0349136450570948
63105.68608781513,2.6950627712139976,PPG_2,PPG_1,87091.0,87091.0,250.4860119324003,23.385799175064424,1.0883894567400525
63105.69618168318,2.705156639269262,PPG_2,PPG_1,87116.0,87116.0,275.44819267407,24.613852603890745,1.1455376722963015
63105.70627555124,2.7152505073245266,PPG_2,PPG_1,87069.0,87069.0,228.41037341573974,25.792144228521312,1.2003701919342025
63105.7163694193,2.725344375387067,PPG_2,PPG_1,87128.0,87128.0,287.372554157424,26.782172323396352,1.246441753353753
63105.72646328736,2.735438243442331,PPG_2,PPG_1,87085.0,87085.0,244.33473489909375,27.449708768848392,1.2775059691125128
63105.73655715541,2.745532111497596,PPG_2,PPG_1,87091.0,87091.0,250.29691564076347,27.676338142590364,1.2880523052880992
63105.746651023466,2.7556259795528604,PPG_2,PPG_1,87112.0,87112.0,271.2590963824332,27.368217980997642,1.273713745581657
63105.75674489152,2.765719847608125,PPG_2,PPG_1,87097.0,87097.0,256.2212771241029,26.46243774090375,1.2315627094846782
63105.766838759584,2.7758137156706653,PPG_2,PPG_1,87101.0,87101.0,260.18345786577265,24.93086095424848,1.160289849289683
63105.77693262764,2.7859075837259297,PPG_2,PPG_1,87063.0,87063.0,222.14563860744238,22.780623844212155,1.060227253496238
63105.787026495695,2.796001451781194,PPG_2,PPG_1,87114.0,87114.0,273.1078193491121,20.051892811168756,0.9332440900516084
63105.79712036375,2.8060953198364587,PPG_2,PPG_1,87086.0,87086.0,245.07000009078183,16.814992025374877,0.7826129371240574
63105.80721423181,2.816189187898999,PPG_2,PPG_1,87096.0,87096.0,255.03218083245156,13.167417864294963,0.6128708481222601
63105.81730809987,2.8262830559542635,PPG_2,PPG_1,87077.0,87077.0,235.99436157412129,9.22878550523354,0.42958418830031736
63105.82740196792,2.836376924009528,PPG_2,PPG_1,87061.0,87061.0,219.956542315791,5.132265341509799,0.23895012315972433
63105.83749583598,2.8464707920647925,PPG_2,PPG_1,87066.0,87066.0,224.91872305746074,1.0139245631264229,0.04730062240300301
63105.84758970404,2.856564660127333,PPG_2,PPG_1,87080.0,87080.0,238.88090379913046,-2.996766782289131,-0.13933934631272826
63105.857683572096,2.866658528182598,PPG_2,PPG_1,87074.0,87074.0,232.8430845408002,-6.7832480137852285,-0.3155455605847248
63105.86777744015,2.876752396237862,PPG_2,PPG_1,87043.0,87043.0,201.80526528246992,-10.245984612980582,-0.47668612087325934
63105.87787130821,2.8868462642931263,PPG_2,PPG_1,87071.0,87071.0,229.76744602413964,-13.30625396784899,-0.619097622398359
63105.88796517627,2.8969401323556667,PPG_2,PPG_1,87057.0,87057.0,215.72962676580937,-15.909592805189888,-0.7402455835131303
63105.89805904432,2.907034000410931,PPG_2,PPG_1,87058.0,87058.0,216.6918075074791,-18.028042359894748,-0.8388289260253682
63105.90815291238,2.9171278684661957,PPG_2,PPG_1,87014.0,87014.0,172.65398824914882,-19.661112152981993,-0.9148248251964196
63105.918246780435,2.92722173652146,PPG_2,PPG_1,87079.0,87079.0,237.6161689908331,-20.834645137339322,-0.9694358986059185
63105.92834064849,2.9373156045767246,PPG_2,PPG_1,87065.0,87065.0,223.57834973250283,-21.59571001255461,-1.0048525169061995
63105.93843451655,2.947409472639265,PPG_2,PPG_1,87042.0,87042.0,200.54053047417256,-22.00409043583481,-1.0238567490599049
63105.94852838461,2.9575033406945295,PPG_2,PPG_1,87030.0,87030.0,188.50271121584228,-22.123730455529234,-1.029424270369776
63105.95862225266,2.967597208749794,PPG_2,PPG_1,87092.0,87092.0,250.464891957512,-22.015542427860364,-1.0243896744957715
63105.96871612072,2.9776910768050584,PPG_2,PPG_1,87071.0,87071.0,229.42707269918174,-21.730679442629807,-1.0111334016807434
63105.97880998878,2.987784944867599,PPG_2,PPG_1,87041.0,87041.0,199.38925344085146,-21.306031450313156,-0.991372148276945
63105.98890385683,2.9978788129228633,PPG_2,PPG_1,87028.0,87028.0,186.3514341825212,-20.76547737356866,-0.9662171345190113
63105.99899772489,3.007972680978128,PPG_2,PPG_1,87067.0,87067.0,225.31361492419092,-20.12582484287,-0.936450513745513
63106.00909159295,3.018066549033392,PPG_2,PPG_1,87062.0,87062.0,220.27579566586064,-19.402089482983865,-0.9027710472161281
63106.01918546101,3.0281604170959326,PPG_2,PPG_1,87064.0,87064.0,222.23797640753037,-18.609422401986162,-0.8658838009889885
63106.029279329065,3.038254285151197,PPG_2,PPG_1,87045.0,87045.0,203.2001571492001,-17.76370886506195,-0.826528005571216
63106.03937319712,3.0483481532064616,PPG_2,PPG_1,87067.0,87067.0,225.16233789086982,-16.883008123120753,-0.7855440592219874
63106.049467065175,3.058442021261726,PPG_2,PPG_1,87068.0,87068.0,226.12451863253955,-15.989441457697826,-0.7439613892739275
63106.05956093324,3.0685358893242665,PPG_2,PPG_1,87045.0,87045.0,203.08669937420927,-15.110529907936012,-0.7030607040743679
63106.06965480129,3.078629757379531,PPG_2,PPG_1,87052.0,87052.0,210.048880115879,-14.279642152577207,-0.6643948354470767
63106.07974866935,3.0887236254347954,PPG_2,PPG_1,87067.0,87067.0,225.01106085754873,-13.53440787438317,-0.6297149036375611
63106.0898425374,3.09881749349006,PPG_2,PPG_1,87073.0,87073.0,230.97324159921845,-12.911362633673246,-0.6007211132359372
63106.09993640546,3.1089113615453243,PPG_2,PPG_1,87070.0,87070.0,227.93542234088818,-12.437203300958345,-0.5786558193994175
63106.11003027352,3.1190052296078647,PPG_2,PPG_1,87085.0,87085.0,242.8976030825579,-12.119694982982846,-0.5638803761079089
63106.12012414158,3.129099097663129,PPG_2,PPG_1,87066.0,87066.0,223.8597838242422,-11.94167533713155,-0.5555961232769224
63106.13021800963,3.1391929657183937,PPG_2,PPG_1,87072.0,87072.0,229.8219645659119,-11.860230878787885,-0.5518060557179449
63106.14031187769,3.149286833773658,PPG_2,PPG_1,87085.0,87085.0,242.78414530758164,-11.811387513597325,-0.5495330999190507
63106.15040574575,3.1593807018361986,PPG_2,PPG_1,87049.0,87049.0,206.74632604925137,-11.719502970637887,-0.5452571966528941
63106.160499613805,3.169474569891463,PPG_2,PPG_1,87056.0,87056.0,213.7085067909211,-11.509837184434033,-0.5355002713730227
63106.17059348186,3.1795684379467275,PPG_2,PPG_1,87072.0,87072.0,229.67068753259082,-11.12139091487311,-0.5174236872246403
63106.180687349915,3.189662306001992,PPG_2,PPG_1,87076.0,87076.0,233.63286827426055,-10.516427732857421,-0.48927135645637004
63106.19078121798,3.1997561740645324,PPG_2,PPG_1,87071.0,87071.0,228.59504901593027,-9.68537888745278,-0.4505979914055135
63106.20087508603,3.209850042119797,PPG_2,PPG_1,87054.0,87054.0,211.5572297576,-8.6485546823174,-0.4023487444442941
63106.21096895409,3.2199439101750613,PPG_2,PPG_1,87074.0,87074.0,231.51941049926972,-7.45554887764157,-0.3468314914607409
63106.221062822144,3.230037778230326,PPG_2,PPG_1,87057.0,87057.0,214.48159124093945,-6.180935872518438,-0.28751659761512705
63106.231156690206,3.240131646292866,PPG_2,PPG_1,87107.0,87107.0,264.4437719826092,-4.914605409292183,-0.22858713690993349
63106.24125055826,3.2502255143481307,PPG_2,PPG_1,87088.0,87088.0,245.4059527242789,-3.74768342109808,-0.17428371024031517
63106.25134442632,3.260319382403395,PPG_2,PPG_1,87081.0,87081.0,238.36813346594863,-2.758157109460658,-0.1282354996098694
63106.26143829437,3.2704132504586596,PPG_2,PPG_1,87092.0,87092.0,249.33031420761836,-2.0007823118452364,-0.0929906013220458
63106.27153216243,3.280507118513924,PPG_2,PPG_1,87076.0,87076.0,233.29249494928808,-1.5030294622603653,-0.06982736878337711
63106.28162603049,3.2906009865764645,PPG_2,PPG_1,87077.0,87077.0,234.2546756909578,-1.265897129555013,-0.05879227100448542
63106.291719898545,3.300694854631729,PPG_2,PPG_1,87104.0,87104.0,261.21685643262754,-1.2675440034409353,-0.05886890928553855
63106.3018137666,3.3107887226869934,PPG_2,PPG_1,87057.0,87057.0,214.17903717429726,-1.468304900710729,-0.06821144012591517
63106.311907634656,3.320882590742258,PPG_2,PPG_1,87073.0,87073.0,230.141217915967,-1.8163017150949874,-0.08440568419909567
63106.32200150272,3.3309764588047983,PPG_2,PPG_1,87112.0,87112.0,269.10339865765127,-2.252286882804069,-0.1046945199766877
63106.33209537077,3.341070326860063,PPG_2,PPG_1,87076.0,87076.0,233.065579399321,-2.7124628515731084,-0.12610908944061786
63106.34218923883,3.3511641949153272,PPG_2,PPG_1,87080.0,87080.0,237.02776014099072,-3.130500472534624,-0.14556272518036137
63106.35228310688,3.3612580629705917,PPG_2,PPG_1,87102.0,87102.0,258.98994088266045,-3.4411353125285116,-0.16001830698042838
63106.36237697495,3.371351931033132,PPG_2,PPG_1,87066.0,87066.0,222.95212162433018,-3.585872266780179,-0.16675372945177352
63106.372470843,3.3814457990883966,PPG_2,PPG_1,87071.0,87071.0,227.9143023659999,-3.519759847362007,-0.16367714767840086
63106.38256471106,3.391539667143661,PPG_2,PPG_1,87090.0,87090.0,246.87648310766963,-3.2173864708862996,-0.14960601812354135
63106.39265857911,3.4016335351989255,PPG_2,PPG_1,87099.0,87099.0,255.83866384933935,-2.67587525118744,-0.12440646313426536
63106.40275244717,3.41172740325419,PPG_2,PPG_1,87078.0,87078.0,234.80084459100908,-1.9146158178867116,-0.08898079095477682
63106.41284631523,3.4218212713167304,PPG_2,PPG_1,87072.0,87072.0,228.7630253326788,-0.9737138583654682,-0.04519534421618718
63106.422940183285,3.431915139371995,PPG_2,PPG_1,87091.0,87091.0,247.72520607434853,0.08814416182186384,0.004218866601817753
63106.43303405134,3.4420090074272593,PPG_2,PPG_1,87099.0,87099.0,255.68738681601826,1.198117613355599,0.05587215837316045
63106.44312791939,3.452102875482524,PPG_2,PPG_1,87069.0,87069.0,225.649567557688,2.2769570271026796,0.10607660870096057
63106.45322178746,3.462196743545064,PPG_2,PPG_1,87114.0,87114.0,270.6117482993577,3.2490682181336,0.15131439606886996
63106.463315655514,3.4722906116003287,PPG_2,PPG_1,87098.0,87098.0,254.57392904102744,4.053490086685251,0.18874865850652817
63106.47340952357,3.482384479655593,PPG_2,PPG_1,87111.0,87111.0,267.53610978269717,4.654059390481559,0.21669651747111712
63106.483503391624,3.4924783477108576,PPG_2,PPG_1,87106.0,87106.0,262.4982905243669,5.045868295934086,0.23492958393228797
63106.49359725969,3.502572215773398,PPG_2,PPG_1,87072.0,87072.0,228.46047126603662,5.255544102676151,0.24468697552401864
63106.50369112774,3.5126660838286625,PPG_2,PPG_1,87104.0,87104.0,260.42265200770635,5.335757952241375,0.24841977595268652
63106.5137849958,3.522759951883927,PPG_2,PPG_1,87112.0,87112.0,268.3848327493761,5.357025572613959,0.24940947764228039
63106.52387886385,3.5328538199391915,PPG_2,PPG_1,87080.0,87080.0,236.34701349106035,5.399293219848523,0.251376428394191
63106.533972731915,3.542947688001732,PPG_2,PPG_1,87094.0,87094.0,250.30919423273008,5.543509022838854,0.258087598773631
63106.54406659997,3.5530415560569963,PPG_2,PPG_1,87113.0,87113.0,269.2713749743998,5.863347930687456,0.2729714974867971
63106.554160468026,3.563135424112261,PPG_2,PPG_1,87093.0,87093.0,249.23355571606953,6.418245419305713,0.2987939906673135
63106.56425433608,3.5732292921675253,PPG_2,PPG_1,87083.0,87083.0,239.19573645773926,7.248061999709144,0.33741001151452343
63106.574348204136,3.5833231602227897,PPG_2,PPG_1,87106.0,87106.0,262.157917199409,8.369414645080463,0.3895928410136408
63106.5844420722,3.59341702828533,PPG_2,PPG_1,87116.0,87116.0,272.1200979410787,9.77493906284424,0.45499977731665053
63106.594535940254,3.603510896340594,PPG_2,PPG_1,87103.0,87103.0,259.08227868274844,11.435997247003181,0.5322981333421782
63106.60462980831,3.613604764395859,PPG_2,PPG_1,87113.0,87113.0,269.04445942441816,13.306937732027098,0.6193634902894302
63106.614723676365,3.623698632451123,PPG_2,PPG_1,87117.0,87117.0,273.0066401660879,15.328722020744902,0.7134484556726615
63106.62481754443,3.633792500513664,PPG_2,PPG_1,87105.0,87105.0,260.9688209077576,17.43128159234573,0.8112923481265397
63106.63491141248,3.643886368568928,PPG_2,PPG_1,87107.0,87107.0,262.93100164942734,19.53507292005923,0.9091935611026261
63106.64500528054,3.653980236624193,PPG_2,PPG_1,87139.0,87139.0,294.89318239109707,21.55289791597313,1.0030942783796297
63106.65509914859,3.664074104679458,PPG_2,PPG_1,87109.0,87109.0,264.8553631327668,23.392804833531958,1.0887154693310508
63106.665193016655,3.674167972741998,PPG_2,PPG_1,87115.0,87115.0,270.8175438744365,24.961587423628007,1.161719724288739
63106.67528688471,3.6842618407972623,PPG_2,PPG_1,87144.0,87144.0,299.77972461610625,26.168172017804913,1.2178688745262594
63106.685380752766,3.6943557088525263,PPG_2,PPG_1,87112.0,87112.0,267.741905357776,26.92701619257234,1.253182151176331
63106.69547462082,3.704449576907791,PPG_2,PPG_1,87114.0,87114.0,269.7040860994457,27.161517331700903,1.2640948047568132
63106.70556848888,3.714543444970331,PPG_2,PPG_1,87135.0,87135.0,290.66626684111543,26.807523412819616,1.2476214817669793
63106.71566235694,3.724637313025596,PPG_2,PPG_1,87135.0,87135.0,290.62844758278516,25.81781523592587,1.201564807925873
63106.725756224994,3.734731181080861,PPG_2,PPG_1,87104.0,87104.0,259.59062832446944,24.167480622723055,1.12476547981733
63106.73585009305,3.744825049136125,PPG_2,PPG_1,87144.0,87144.0,299.55280906613916,21.85867755594305,1.0173239204843827
63106.745943961105,3.7549189171913895,PPG_2,PPG_1,87117.0,87117.0,272.5149898078089,18.92381031464304,0.8807480828230818
63106.75603782917,3.76501278525393,PPG_2,PPG_1,87111.0,87111.0,266.4771705494786,15.42675411626026,0.7180104390476819
63106.76613169722,3.7751066533091944,PPG_2,PPG_1,87133.0,87133.0,288.43935129114834,11.46151548328323,0.5334856400363628
63106.77622556528,3.785200521364459,PPG_2,PPG_1,87079.0,87079.0,234.40153203281807,7.148154167020152,0.33276073956572483
63106.78631943333,3.7952943894197233,PPG_2,PPG_1,87102.0,87102.0,257.3637127744878,2.6269290047105187,0.12236276819981425
63106.79641330139,3.805388257482264,PPG_2,PPG_1,87103.0,87103.0,258.3258935161575,-1.9471741870736203,-0.09049591452902689
63106.80650716945,3.815482125537528,PPG_2,PPG_1,87139.0,87139.0,294.28807425782725,-6.407759268755,-0.298071962745874
63106.816601037506,3.8255759935927927,PPG_2,PPG_1,87081.0,87081.0,236.25025499949697,-10.57996608696964,-0.4922281525302711
63106.82669490556,3.835669861648057,PPG_2,PPG_1,87099.0,87099.0,254.2124357411667,-14.287745004488189,-0.6647719066043729
63106.836788773624,3.8457637297105975,PPG_2,PPG_1,87079.0,87079.0,234.17461648283643,-17.367767047912498,-0.8081026115427042
63106.84688264168,3.855857597765862,PPG_2,PPG_1,87072.0,87072.0,227.13679722450615,-19.68745237861543,-0.9160505836666668
63106.856976509735,3.8659514658211265,PPG_2,PPG_1,87063.0,87063.0,218.09897796617588,-21.16235828575752,-0.9846862299081317
63106.86707037779,3.876045333876391,PPG_2,PPG_1,87065.0,87065.0,220.0611587078456,-21.768225557866124,-1.0128806330604687
63106.87716424585,3.8861392019389314,PPG_2,PPG_1,87088.0,87088.0,243.02333944951533,-21.54379596557594,-1.0024366650568466
63106.88725811391,3.896233069994196,PPG_2,PPG_1,87089.0,87089.0,243.98552019118506,-20.582937348766894,-0.9577225230956432
63106.89735198196,3.90632693804946,PPG_2,PPG_1,87127.0,87127.0,281.9477009328548,-19.018674555973195,-0.8849285996629865
63106.90744585002,3.9164208061047248,PPG_2,PPG_1,87078.0,87078.0,232.9098816745245,-17.005139609069122,-0.7912275224340506
63106.91753971807,3.926514674159989,PPG_2,PPG_1,87085.0,87085.0,239.87206241619424,-14.703381004919555,-0.6841137814674969
63106.927633586136,3.9366085422225296,PPG_2,PPG_1,87090.0,87090.0,244.83424315787852,-12.272655258457448,-0.5709984758494814
63106.93772745419,3.946702410277794,PPG_2,PPG_1,87088.0,87088.0,242.79642389954824,-9.864059713016044,-0.45891301263778767
63106.94782132225,3.9567962783330586,PPG_2,PPG_1,87135.0,87135.0,289.75860464121797,-7.612997100916928,-0.35415844059135654
63106.9579151903,3.966890146388323,PPG_2,PPG_1,87103.0,87103.0,257.7207853828877,-5.630709048827625,-0.2619114566766215
63106.96800905837,3.976984014450863,PPG_2,PPG_1,87077.0,87077.0,231.68296612455742,-3.998243900166002,-0.1859436950028151
63106.97810292642,3.987077882506128,PPG_2,PPG_1,87141.0,87141.0,295.64514686622715,-2.7649567901124477,-0.1285519268975433
63106.988196794475,3.997171750561392,PPG_2,PPG_1,87105.0,87105.0,259.6073276078969,-1.9503864010157543,-0.09064539686462307
63106.99829066253,4.007265618616657,PPG_2,PPG_1,87101.0,87101.0,255.5695083495666,-1.5484083129635795,-0.07193910128687303
63107.00838453059,4.017359486679197,PPG_2,PPG_1,87089.0,87089.0,243.53168909123633,-1.5339874110638483,-0.07126801581865443
63107.01847839865,4.027453354734462,PPG_2,PPG_1,87120.0,87120.0,274.49386983290606,-1.8710328009308652,-0.08695262867036807
63107.0285722667,4.037547222789726,PPG_2,PPG_1,87096.0,87096.0,250.45605057457578,-2.518005316851988,-0.1170598894221787
63107.03866613476,4.047641090844991,PPG_2,PPG_1,87110.0,87110.0,264.4182313162455,-3.4297207920727657,-0.15948712530692447
63107.048760002814,4.057734958900255,PPG_2,PPG_1,87111.0,87111.0,265.38041205791524,-4.556172868914132,-0.2119072599607069
63107.05885387088,4.067828826962796,PPG_2,PPG_1,87138.0,87138.0,292.34259279958496,-5.839965926146374,-0.2716493531320458
63107.06894773893,4.07792269501806,PPG_2,PPG_1,87081.0,87081.0,235.3047735412547,-7.21472780229102,-0.3356247357923217
63107.07904160699,4.0880165630733245,PPG_2,PPG_1,87100.0,87100.0,254.26695428292442,-8.606805829194524,-0.4004059360928916
63107.08913547504,4.098110431128589,PPG_2,PPG_1,87126.0,87126.0,280.22913502459414,-9.939816323637395,-0.4624383927328031
63107.099229343105,4.108204299191129,PPG_2,PPG_1,87096.0,87096.0,250.19131576626387,-11.139707950084373,-0.5182760816335751
63107.10932321116,4.118298167246394,PPG_2,PPG_1,87092.0,87092.0,246.1534965079336,-12.139722274827724,-0.564812358352731
63107.119417079215,4.128392035301658,PPG_2,PPG_1,87094.0,87094.0,248.11567724960332,-12.885696935111593,-0.5995267442945102
63107.12951094727,4.138485903356923,PPG_2,PPG_1,87108.0,87108.0,262.0778579912876,-13.340252144399578,-0.6206797482867165
63107.13960481533,4.148579771419463,PPG_2,PPG_1,87086.0,87086.0,240.04003873295733,-13.483677408048033,-0.6273541304355676
63107.14969868339,4.158673639474728,PPG_2,PPG_1,87129.0,87129.0,283.00221947462705,-13.311225294941773,-0.6193289661376704
63107.15979255144,4.168767507529992,PPG_2,PPG_1,87119.0,87119.0,272.9644002162968,-12.828555011191845,-0.5968676100021322
63107.1698864195,4.178861375585257,PPG_2,PPG_1,87089.0,87089.0,242.9265809579665,-12.048392935131515,-0.5605622918091628
63107.17998028756,4.188955243647797,PPG_2,PPG_1,87105.0,87105.0,258.88876169963623,-10.990947028282983,-0.5113534013772468
63107.19007415562,4.1990491117030615,PPG_2,PPG_1,87094.0,87094.0,247.85094244130596,-9.687216846133728,-0.45068352193408556
63107.20016802367,4.209142979758326,PPG_2,PPG_1,87111.0,87111.0,264.8131231829757,-8.181487971049203,-0.3806135100740652
63107.21026189173,4.21923684781359,PPG_2,PPG_1,87104.0,87104.0,257.7753039246454,-6.530118339179797,-0.30376601674039894
63107.22035575978,4.229330715868855,PPG_2,PPG_1,87134.0,87134.0,287.73748466631514,-4.79635051269368,-0.2230840731484064
63107.230449627845,4.239424583931395,PPG_2,PPG_1,87106.0,87106.0,259.69966540798487,-3.042892456241226,-0.14148583269175402
63107.2405434959,4.24951845198666,PPG_2,PPG_1,87124.0,87124.0,277.6618461496546,-1.3247349482835191,-0.06153032479646887
63107.250637363955,4.259612320041924,PPG_2,PPG_1,87138.0,87138.0,291.6240268913243,0.3160620737338027,0.014825165687291648
63107.26073123201,4.269706188097189,PPG_2,PPG_1,87096.0,87096.0,249.58620763299405,1.8529795840127194,0.08634655971453402
63107.27082510007,4.279800056159729,PPG_2,PPG_1,87161.0,87161.0,314.5483883746638,3.2748958314219063,0.1525162998108873
63107.28091896813,4.289893924214994,PPG_2,PPG_1,87122.0,87122.0,275.5105691163335,4.583172313112745,0.213397744076952
63107.291012836184,4.299987792270258,PPG_2,PPG_1,87111.0,87111.0,264.4727498580032,5.785632897451264,0.2693549810005498
63107.30110670424,4.3100816603255225,PPG_2,PPG_1,87111.0,87111.0,264.43493059967295,6.887729666538693,0.3206417265486228
63107.3112005723,4.320175528388063,PPG_2,PPG_1,87149.0,87149.0,302.3971113413427,7.883849281940048,0.36699676059235375
63107.32129444036,4.330269396443327,PPG_2,PPG_1,87116.0,87116.0,269.3592920830124,8.752458410801916,0.40741801634973995
63107.33138830841,4.340363264498592,PPG_2,PPG_1,87111.0,87111.0,264.3214728246967,9.455915743567237,0.4401538325152614
63107.34148217647,4.350457132553856,PPG_2,PPG_1,87150.0,87150.0,303.2836535663664,9.944257816296526,0.46287912881136073
63107.35157604453,4.360551000616397,PPG_2,PPG_1,87143.0,87143.0,296.24583430803614,10.163010165310615,0.47305890283539553
63107.361669912585,4.370644868671661,PPG_2,PPG_1,87123.0,87123.0,276.20801504970586,10.063830259045291,0.4684435053868364
63107.37176378064,4.380738736726926,PPG_2,PPG_1,87152.0,87152.0,305.1701957913756,9.614805961078819,0.44754788572743265
63107.381857648696,4.39083260478219,PPG_2,PPG_1,87129.0,87129.0,282.1323765330453,8.808119638886781,0.4100082455580567
63107.39195151675,4.400926472837455,PPG_2,PPG_1,87135.0,87135.0,288.09455727471504,7.664567115567139,0.3567923311942803
63107.40204538481,4.411020340899995,PPG_2,PPG_1,87135.0,87135.0,288.05673801638477,6.234911854239969,0.29026245136361556
63107.41213925287,4.4211142089552595,PPG_2,PPG_1,87151.0,87151.0,304.0189187580545,4.598142133363099,0.2140943737955166
63107.42223312093,4.431208077010524,PPG_2,PPG_1,87121.0,87121.0,273.9810994997242,2.8563083491517838,0.13303707593967273
63107.43232698898,4.4413019450657885,PPG_2,PPG_1,87106.0,87106.0,258.94328024139395,1.1253641358578121,0.052486530910287044
63107.44242085704,4.451395813128329,PPG_2,PPG_1,87129.0,87129.0,281.9054609830637,-0.4766148413558631,-0.0220625381753173
63107.4525147251,4.461489681183593,PPG_2,PPG_1,87133.0,87133.0,285.8676417247334,-1.84014962208579,-0.08551546110072306
63107.46260859315,4.471583549238858,PPG_2,PPG_1,87107.0,87107.0,259.82982246640313,-2.871499241678229,-0.1335099448836106
63107.47270246121,4.481677417294122,PPG_2,PPG_1,87133.0,87133.0,285.79200320807286,-3.4965916836686914,-0.16259900304583919
63107.48279632927,4.491771285356663,PPG_2,PPG_1,87119.0,87119.0,271.7541839497426,-3.6626520418444053,-0.1703267231283795
63107.492890197325,4.501865153411927,PPG_2,PPG_1,87140.0,87140.0,292.7163646914123,-3.3377835357022563,-0.15520876899002264
63107.50298406538,4.511959021467192,PPG_2,PPG_1,87135.0,87135.0,287.67854543308204,-2.5094988565504526,-0.11666403610218315
63107.51307793344,4.522052889522456,PPG_2,PPG_1,87115.0,87115.0,267.64072617475176,-1.1841779160107868,-0.05498941754461933
63107.5231718015,4.5321467575849965,PPG_2,PPG_1,87132.0,87132.0,284.6029069164215,0.6114528293682436,0.028571354721146608
63107.533265669554,4.542240625640261,PPG_2,PPG_1,87128.0,87128.0,280.56508765810577,2.827961942619015,0.1317179586172872
63107.54335953761,4.5523344936955255,PPG_2,PPG_1,87143.0,87143.0,295.5272683997755,5.392096933455926,0.2510415448163961
63107.553453405664,4.56242836175079,PPG_2,PPG_1,87113.0,87113.0,265.4894491414452,8.207935273149902,0.38207829992091724
63107.56354727372,4.572522229806054,PPG_2,PPG_1,87151.0,87151.0,303.45162988311495,11.160547197024657,0.5194798972120152
63107.57364114178,4.582616097868595,PPG_2,PPG_1,87145.0,87145.0,297.4138106247847,14.12281909072292,0.6573310270924795
63107.58373500984,4.592709965923859,PPG_2,PPG_1,87161.0,87161.0,313.3759913664544,16.965400611302965,0.7896122924357754
63107.59382887789,4.602803833979124,PPG_2,PPG_1,87172.0,87172.0,324.3381721081241,19.567480807898882,0.9107016819355717
63107.60392274595,4.612897702034388,PPG_2,PPG_1,87144.0,87144.0,296.30035284979385,21.824734871875364,1.0157443769725734
63107.61401661401,4.622991570096929,PPG_2,PPG_1,87149.0,87149.0,301.2625335914636,23.652047933403388,1.1007795051499825
63107.624110482066,4.633085438152193,PPG_2,PPG_1,87167.0,87167.0,319.2247143331333,24.981778174975556,1.162659313221246
63107.63420435012,4.643179306207458,PPG_2,PPG_1,87158.0,87158.0,310.18689507480303,25.760324453231235,1.1988894392775638
63107.644298218176,4.653273174262722,PPG_2,PPG_1,87143.0,87143.0,295.14907581647276,25.944783617424022,1.2074733590233762
63107.65439208624,4.6633670423252624,PPG_2,PPG_1,87151.0,87151.0,303.1112565581425,25.50032620411218,1.186790262127671
63107.664485954294,4.673460910380527,PPG_2,PPG_1,87162.0,87162.0,314.0734372998122,24.399748528455785,1.1355742085192226
63107.67457982235,4.683554778435791,PPG_2,PPG_1,87156.0,87156.0,308.03561804148194,22.626790345094328,1.053068517759667
63107.6846736904,4.693648646491056,PPG_2,PPG_1,87154.0,87154.0,305.99779878315167,20.18274774608176,0.939333504283491
63107.69476755847,4.703742514553596,PPG_2,PPG_1,87156.0,87156.0,307.9599795248214,17.09432772151606,0.7956119941690656
63107.70486142652,4.713836382608861,PPG_2,PPG_1,87163.0,87163.0,314.9221602664911,13.420878401794342,0.6246657888732181
63107.71495529458,4.723930250664125,PPG_2,PPG_1,87131.0,87131.0,282.88434100816085,9.259500975810651,0.4310135514633924
63107.72504916263,4.73402411871939,PPG_2,PPG_1,87162.0,87162.0,313.8465217498306,4.746772205758826,0.22101096489491995
63107.73514303069,4.744117986774654,PPG_2,PPG_1,87154.0,87154.0,305.80870249151485,0.056344379159660014,0.0027390443143148905
63107.74523689875,4.7542118548371946,PPG_2,PPG_1,87112.0,87112.0,263.7708832331846,-4.608371824120213,-0.2143363701882473
63107.755330766806,4.764305722892459,PPG_2,PPG_1,87138.0,87138.0,289.7330639748543,-9.02706648197089,-0.4199630219744297
63107.76542463486,4.7743995909477235,PPG_2,PPG_1,87143.0,87143.0,294.69524471652403,-12.979706853786626,-0.6039015532163019
63107.77551850292,4.784493459002988,PPG_2,PPG_1,87109.0,87109.0,260.65742545819376,-16.26592601435182,-0.7568277668033949
63107.78561237098,4.794587327065528,PPG_2,PPG_1,87106.0,87106.0,257.6196061998635,-18.725667405207176,-0.8712933331359412
63107.795706239034,4.804681195120793,PPG_2,PPG_1,87102.0,87102.0,253.5817869415332,-20.259399844812293,-0.9426665079561396
63107.80580010709,4.814775063176057,PPG_2,PPG_1,87092.0,87092.0,243.54396768320294,-20.843479230535493,-0.9698469985225576
63107.815893975145,4.824868931231322,PPG_2,PPG_1,87110.0,87110.0,261.50614842487266,-20.53560597045242,-0.9555199285285036
63107.82598784321,4.834962799293862,PPG_2,PPG_1,87119.0,87119.0,270.4683291665424,-19.4676175298493,-0.9058204348562284
63107.83608171126,4.845056667349127,PPG_2,PPG_1,87135.0,87135.0,286.4305099082121,-17.82640237573121,-0.8294454863400528
63107.84617557932,4.855150535404391,PPG_2,PPG_1,87141.0,87141.0,292.39269064988184,-15.827321732452823,-0.7364170489490315
63107.85626944737,4.865244403459656,PPG_2,PPG_1,87124.0,87124.0,275.35487139155157,-13.686483793535144,-0.6367918493181068
63107.86636331544,4.875338271522196,PPG_2,PPG_1,87151.0,87151.0,302.3170521332213,-11.597263525504882,-0.5395687094943071
63107.87645718349,4.8854321395774605,PPG_2,PPG_1,87123.0,87123.0,274.279232874891,-9.713747535351525,-0.45191814374343436
63107.886551051546,4.895526007632725,PPG_2,PPG_1,87158.0,87158.0,309.24141361656075,-8.141693246084648,-0.37876163826874026
63107.8966449196,4.905619875687989,PPG_2,PPG_1,87133.0,87133.0,284.2035943582305,-6.936987939064562,-0.32269994180563144
63107.90673878766,4.915713743743254,PPG_2,PPG_1,87107.0,87107.0,258.1657750999002,-6.111269097780506,-0.28427461174840707
63107.91683265572,4.925807611805794,PPG_2,PPG_1,87141.0,87141.0,292.12795584156993,-5.642663083762735,-0.262467744985585
63107.926926523774,4.935901479861059,PPG_2,PPG_1,87140.0,87140.0,291.09013658323966,-5.487506300829828,-0.25524742942933254
63107.93702039183,4.945995347916323,PPG_2,PPG_1,87134.0,87134.0,285.05231732492393,-5.589871276512286,-0.26001104602645586
63107.947114259885,4.956089215971588,PPG_2,PPG_1,87115.0,87115.0,266.01449806659366,-5.888886849513898,-0.2739259181480239
63107.95720812795,4.966183084034128,PPG_2,PPG_1,87156.0,87156.0,306.9766788082634,-6.3245207286267435,-0.294198406496466
63107.967301996,4.976276952089393,PPG_2,PPG_1,87127.0,87127.0,277.9388595499331,-6.841228035213892,-0.31824369625601073
63107.97739586406,4.986370820144657,PPG_2,PPG_1,87137.0,87137.0,287.90104029160284,-7.389404692162576,-0.3437534314343471
63107.98748973211,4.9964646881999215,PPG_2,PPG_1,87152.0,87152.0,302.86322103327257,-7.9259224602475316,-0.3687206131062229
63107.997583600176,5.006558556262462,PPG_2,PPG_1,87122.0,87122.0,272.8254017749423,-8.415002132796744,-0.39148023405995835
63108.00767746823,5.016652424317726,PPG_2,PPG_1,87108.0,87108.0,258.787582516612,-8.829774538690462,-0.4107819210243865
63108.01777133629,5.026746292372991,PPG_2,PPG_1,87159.0,87159.0,309.74976325828175,-9.153161240763279,-0.4258309185063157
63108.02786520434,5.036840160428255,PPG_2,PPG_1,87145.0,87145.0,295.7119439999515,-9.375868769639903,-0.43619474923834234
63108.0379590724,5.04693402848352,PPG_2,PPG_1,87128.0,87128.0,278.6741247416212,-9.492018339390672,-0.44159984033053234
63108.04805294046,5.05702789654606,PPG_2,PPG_1,87157.0,87157.0,307.6363054832909,-9.495903846636498,-0.4417806547807978
63108.058146808515,5.067121764601325,PPG_2,PPG_1,87109.0,87109.0,259.59848622496065,-9.38218923501226,-0.4364888759506146
63108.06824067657,5.077215632656589,PPG_2,PPG_1,87147.0,87147.0,297.5606669666304,-9.148819662833311,-0.42562888052851117
63108.078334544625,5.087309500711854,PPG_2,PPG_1,87120.0,87120.0,270.5228477083001,-8.800341066826213,-0.4094122164535728
63108.08842841269,5.097403368774394,PPG_2,PPG_1,87133.0,87133.0,283.48502844996983,-8.349292588447508,-0.3884224003237161
63108.09852228074,5.1074972368296585,PPG_2,PPG_1,87171.0,87171.0,321.44720919163956,-7.814507238046091,-0.3635358377657065
63108.1086161488,5.117591104884923,PPG_2,PPG_1,87140.0,87140.0,290.4093899333093,-7.217515684733829,-0.33575447160270855
63108.11871001685,5.127684972940187,PPG_2,PPG_1,87124.0,87124.0,274.371570674979,-6.58041193772896,-0.30610646003343545
63108.12880388491,5.137778841002728,PPG_2,PPG_1,87124.0,87124.0,274.33375141664874,-5.927233309764248,-0.27571039407127473
63108.13889775297,5.147872709057992,PPG_2,PPG_1,87132.0,87132.0,282.295932158333,-5.286253406688798,-0.24588200321438142
63108.14899162103,5.157966577113257,PPG_2,PPG_1,87147.0,87147.0,297.25811290000274,-4.688309193800173,-0.2180563044567717
63108.15908548908,5.168060445168521,PPG_2,PPG_1,87177.0,87177.0,327.22029364167247,-4.159439838965655,-0.19344504636186688
63108.169179357144,5.178154313231062,PPG_2,PPG_1,87156.0,87156.0,306.1824743833422,-3.711434000912772,-0.17259682135591306
63108.1792732252,5.188248181286326,PPG_2,PPG_1,87128.0,87128.0,278.1446551250119,-3.3365276994323434,-0.1551503278830059
63108.189367093255,5.198342049341591,PPG_2,PPG_1,87147.0,87147.0,297.10683586668165,-3.0097378043852108,-0.13994296073969997
63108.19946096131,5.208435917396855,PPG_2,PPG_1,87142.0,87142.0,292.0690166083514,-2.69671257428218,-0.1253761406775067
63108.209554829366,5.2185297854521195,PPG_2,PPG_1,87141.0,87141.0,291.0311973500211,-2.362568513598328,-0.10982654294945716
63108.21964869743,5.22862365351466,PPG_2,PPG_1,87130.0,87130.0,279.99337809169083,-1.9789020184564945,-0.09197238851984806
63108.22974256548,5.238717521569924,PPG_2,PPG_1,87150.0,87150.0,299.95555883336056,-1.527717492755273,-0.07097624134483452
63108.23983643354,5.248811389625189,PPG_2,PPG_1,87149.0,87149.0,298.9177395750303,-1.0012705164116238,-0.04647771011091591
63108.249930301594,5.258905257680453,PPG_2,PPG_1,87171.0,87171.0,320.8799203167,-0.3981339983615087,-0.018410384264746837
63108.26002416966,5.268999125742994,PPG_2,PPG_1,87147.0,87147.0,296.84210105836974,0.2818505169701355,0.013233110020533349
63108.27011803771,5.279092993798258,PPG_2,PPG_1,87153.0,87153.0,302.80428180003946,1.0402797095210425,0.04852707521997506
63108.28021190577,5.289186861853523,PPG_2,PPG_1,87137.0,87137.0,286.7664625417092,1.8791369755053522,0.08756380988649017
63108.29030577382,5.299280729908787,PPG_2,PPG_1,87165.0,87165.0,314.7286432833789,2.7975422786927098,0.13030236099718154
63108.300399641885,5.309374597971328,PPG_2,PPG_1,87137.0,87137.0,286.69082402504864,3.788873256703299,0.17643455287834492
63108.31049350994,5.319468466026592,PPG_2,PPG_1,87180.0,87180.0,329.65300476671837,4.839513919340765,0.2253267571189618
63108.320587377995,5.3295623340818565,PPG_2,PPG_1,87130.0,87130.0,279.6151855083881,5.928880360655953,0.27602108909727263
63108.33068124605,5.339656202137121,PPG_2,PPG_1,87160.0,87160.0,309.5773662500578,7.030121990930947,0.3272680402389816
63108.34077511411,5.349750070199661,PPG_2,PPG_1,87176.0,87176.0,325.5395469917421,8.111835933174035,0.3776062585041176
63108.35086898217,5.359843938254926,PPG_2,PPG_1,87152.0,87152.0,301.5017277334118,9.141194442032605,0.425508084734211
63108.36096285022,5.36993780631019,PPG_2,PPG_1,87152.0,87152.0,301.46390847508155,10.08749923154484,0.4695449554627438
63108.37105671828,5.380031674365455,PPG_2,PPG_1,87178.0,87178.0,327.4260892167513,10.92511401450579,0.5085238704237174
63108.381150586334,5.390125542420719,PPG_2,PPG_1,87159.0,87159.0,308.388269958421,11.636069071361153,0.541608597754194
63108.3912444544,5.40021941048326,PPG_2,PPG_1,87160.0,87160.0,309.35045070009073,12.212458612860512,0.5684312367280163
63108.40133832245,5.410313278538524,PPG_2,PPG_1,87178.0,87178.0,327.31263144176046,12.657921119131688,0.5891611062378
63108.41143219051,5.420407146593789,PPG_2,PPG_1,87152.0,87152.0,301.2748121834302,12.987889066511755,0.6045163659853758
63108.42152605856,5.430501014649053,PPG_2,PPG_1,87178.0,87178.0,327.2369929250999,13.228738878405178,0.61572445892635
63108.431619926625,5.4405948827115935,PPG_2,PPG_1,87174.0,87174.0,323.19917366676964,13.41579435592074,0.6244291996966705
63108.44171379468,5.450688750766858,PPG_2,PPG_1,87158.0,87158.0,307.16135440843937,13.589795463146562,0.632526447380976
63108.451807662736,5.4607826188221225,PPG_2,PPG_1,87153.0,87153.0,302.1235351501091,13.791556414605356,0.6419155163531793
63108.46190153079,5.470876486877387,PPG_2,PPG_1,87184.0,87184.0,333.0857158917788,14.055885178738356,0.6542162166613301
63108.47199539885,5.480970354939927,PPG_2,PPG_1,87168.0,87168.0,317.04789663344854,14.406646371054752,0.6705391027481531
63108.48208926691,5.491064222995192,PPG_2,PPG_1,87155.0,87155.0,304.01007737511827,14.853278426021527,0.6913233979200382
63108.49218313496,5.501158091050456,PPG_2,PPG_1,87169.0,87169.0,317.972258116788,15.387950183272649,0.7162046743514946
63108.50227700302,5.511251959105721,PPG_2,PPG_1,87163.0,87163.0,311.9344388584577,15.983962964427032,0.7439404927549685
63108.51237087108,5.521345827168261,PPG_2,PPG_1,87175.0,87175.0,323.89661960012745,16.597009638058744,0.7724689937373972
63108.52246473914,5.531439695223526,PPG_2,PPG_1,87175.0,87175.0,323.8588003417972,17.16960836217126,0.7991152247113129
63108.53255860719,5.54153356327879,PPG_2,PPG_1,87191.0,87191.0,339.8209810834669,17.637215879489457,0.8208756258210289
63108.54265247525,5.551627431334055,PPG_2,PPG_1,87149.0,87149.0,297.7831618251512,17.933715150130478,0.8346734002770295
63108.5527463433,5.561721299389319,PPG_2,PPG_1,87168.0,87168.0,316.7453425668209,17.994961274238488,0.8375235260291757
63108.562840211365,5.5718151674518595,PPG_2,PPG_1,87190.0,87190.0,338.70752330849064,17.76153112856508,0.8266607117825512
63108.57293407942,5.581909035507124,PPG_2,PPG_1,87181.0,87181.0,329.66970405016036,17.182406268269588,0.7997107830797097
63108.58302794747,5.592002903562388,PPG_2,PPG_1,87143.0,87143.0,291.6318847918301,16.21880452134379,0.7548689878849163
63108.59312181553,5.602096771617653,PPG_2,PPG_1,87168.0,87168.0,316.5940655334998,14.846605590502246,0.6910128734479949
63108.60321568359,5.612190639680193,PPG_2,PPG_1,87172.0,87172.0,320.55624627516954,13.058732152038184,0.6078130921923157
63108.61330955165,5.622284507735458,PPG_2,PPG_1,87182.0,87182.0,330.51842701683927,10.869863489636325,0.5059527535401029
63108.623403419704,5.632378375790722,PPG_2,PPG_1,87196.0,87196.0,344.480607758509,8.322246094663733,0.38739782374206544
63108.63349728776,5.642472243845987,PPG_2,PPG_1,87143.0,87143.0,291.4427885001787,5.487818970674873,0.25549602821920686
63108.64359115582,5.652566111908527,PPG_2,PPG_1,87168.0,87168.0,316.40496924184845,2.4628119229739016,0.11472547967197674
63108.65368502388,5.662659979963792,PPG_2,PPG_1,87127.0,87127.0,275.3671499835182,-0.6444354440535647,-0.029872172310628418
63108.66377889193,5.672753848019056,PPG_2,PPG_1,87147.0,87147.0,295.3293307251879,-3.7276773972071804,-0.17335271771270724
63108.67387275999,5.6828477160743205,PPG_2,PPG_1,87152.0,87152.0,300.2915114668576,-6.693752398497895,-0.31138082752529456
63108.68396662805,5.692941584136861,PPG_2,PPG_1,87152.0,87152.0,300.25369220852735,-9.467754584719582,-0.4404707117033906
63108.694060496106,5.703035452192125,PPG_2,PPG_1,87140.0,87140.0,288.2158729501971,-11.993308325323278,-0.5579988958841487
63108.70415436416,5.71312932024739,PPG_2,PPG_1,87142.0,87142.0,290.1780536918668,-14.230523457376341,-0.6621090669981717
63108.714248232216,5.723223188302654,PPG_2,PPG_1,87132.0,87132.0,280.14023443353653,-16.153054540493198,-0.7515752239035401
63108.72434210027,5.733317056357919,PPG_2,PPG_1,87145.0,87145.0,293.10241517520626,-17.743978543392952,-0.8256098430147125
63108.734435968334,5.743410924420459,PPG_2,PPG_1,87162.0,87162.0,310.064595916876,-18.990254335642135,-0.8836060473704631
63108.74452983639,5.753504792475724,PPG_2,PPG_1,87134.0,87134.0,282.02677665856027,-19.877339944821518,-0.9248871174120823
63108.754623704444,5.763598660530988,PPG_2,PPG_1,87143.0,87143.0,290.98895740023,-20.38692315566597,-0.9486008830297693
63108.7647175725,5.773692528586253,PPG_2,PPG_1,87136.0,87136.0,283.9511381418997,-20.499448575361228,-0.9538373220880015
63108.77481144056,5.783786396648793,PPG_2,PPG_1,87131.0,87131.0,278.91331888356945,-20.200416140997657,-0.9399216653126674
63108.78490530862,5.7938802647040575,PPG_2,PPG_1,87131.0,87131.0,278.8754996252392,-19.48801624469598,-0.9067697014970478
63108.79499917667,5.803974132759322,PPG_2,PPG_1,87141.0,87141.0,288.8376803669089,-18.37970616850702,-0.8551938159122137
63108.80509304473,5.814068000814586,PPG_2,PPG_1,87145.0,87145.0,292.7998611085786,-16.916090180986288,-0.7870835529684043
63108.81518691279,5.824161868877127,PPG_2,PPG_1,87135.0,87135.0,282.76204185024835,-15.161886063905165,-0.7054505941252189
63108.825280780846,5.834255736932391,PPG_2,PPG_1,87140.0,87140.0,287.7242225919181,-13.204680718936647,-0.6143708492895221
63108.8353746489,5.844349604987656,PPG_2,PPG_1,87126.0,87126.0,273.6864033335878,-11.151413452870676,-0.5188208043473622
63108.84546851696,5.85444347304292,PPG_2,PPG_1,87173.0,87173.0,320.64858407525753,-9.121309329319196,-0.4243486703741439
63108.85556238501,5.864537341098185,PPG_2,PPG_1,87172.0,87172.0,319.61076481692726,-7.234920979255184,-0.3365644376023777
63108.865656253074,5.874631209160725,PPG_2,PPG_1,87118.0,87118.0,265.572945558597,-5.602000830086256,-0.2605755022023641
63108.87575012113,5.88472507721599,PPG_2,PPG_1,87176.0,87176.0,323.5351263002667,-4.311755225170217,-0.20053313578780563
63108.885843989185,5.894818945271254,PPG_2,PPG_1,87159.0,87159.0,306.49730704193644,-3.4259694092081077,-0.15931255241656708
63108.89593785724,5.9049128133265185,PPG_2,PPG_1,87157.0,87157.0,304.45948778360616,-2.9738254743635815,-0.13827175855172621
63108.9060317253,5.915006681389059,PPG_2,PPG_1,87175.0,87175.0,322.4216685252759,-2.94913541947831,-0.13712279178402811
63108.91612559336,5.925100549444323,PPG_2,PPG_1,87137.0,87137.0,284.3838492669456,-3.311727598130934,-0.1539962400381926
63108.92621946141,5.935194417499588,PPG_2,PPG_1,87160.0,87160.0,307.34603000861534,-3.993156519970234,-0.18570695066155118
63108.93631332947,5.945288285554852,PPG_2,PPG_1,87158.0,87158.0,305.30821075028507,-4.9050498212625975,-0.2281424617910314
63108.94640719753,5.955382153617393,PPG_2,PPG_1,87156.0,87156.0,303.27039149196935,-5.948137026504099,-0.2766831612832987
63108.956501065586,5.965476021672657,PPG_2,PPG_1,87125.0,87125.0,272.2325722336391,-7.021135747554948,-0.3266158114130234
63108.96659493364,5.975569889727922,PPG_2,PPG_1,87158.0,87158.0,305.1947529753088,-8.028720701663266,-0.37350439198858343
63108.9766888017,5.985663757783186,PPG_2,PPG_1,87150.0,87150.0,297.15693371697853,-8.886549465512996,-0.41342397688293764
63108.98678266976,5.995757625845727,PPG_2,PPG_1,87158.0,87158.0,305.11911445864826,-9.522043774794213,-0.442997092285809
63108.996876537814,6.005851493900991,PPG_2,PPG_1,87179.0,87179.0,326.081295200318,-9.872596872308925,-0.45931029455407524
63109.00697040587,6.0159453619562555,PPG_2,PPG_1,87153.0,87153.0,300.0434759419877,-9.885023781970329,-0.45988858837693164
63109.017064273925,6.02603923001152,PPG_2,PPG_1,87142.0,87142.0,289.00565668365743,-9.51975870604627,-0.44289075521748367
63109.02715814198,6.036133098066784,PPG_2,PPG_1,87129.0,87129.0,275.96783742532716,-8.760220754060779,-0.40754519322129
63109.03725201004,6.046226966129325,PPG_2,PPG_1,87141.0,87141.0,287.9300181669969,-7.623281275648398,-0.3546370209369477
63109.0473458781,6.056320834184589,PPG_2,PPG_1,87146.0,87146.0,292.8921989086666,-6.164726855616272,-0.286762301124326
63109.05743974615,6.066414702239854,PPG_2,PPG_1,87166.0,87166.0,312.85437965033634,-4.475986000235892,-0.20817571510407606
63109.06753361421,6.076508570295118,PPG_2,PPG_1,87169.0,87169.0,315.81656039200607,-2.672899552681439,-0.12426798718878969
63109.07762748227,6.086602438357659,PPG_2,PPG_1,87170.0,87170.0,316.7787411336758,-0.8807404986199483,-0.0408687721965938
63109.087721350326,6.096696306412923,PPG_2,PPG_1,87155.0,87155.0,301.7409218753455,0.779708203727176,0.03640122122097098
63109.09781521838,6.106790174468188,PPG_2,PPG_1,87178.0,87178.0,324.70310261701525,2.2022807731815366,0.10260150366412409
63109.10790908644,6.116884042523452,PPG_2,PPG_1,87164.0,87164.0,310.665283358685,3.301538218588207,0.15375611955241755
63109.1180029545,6.1269779105859925,PPG_2,PPG_1,87138.0,87138.0,284.6274641003547,4.015681486272321,0.18698921221896456
63109.128096822555,6.137071778641257,PPG_2,PPG_1,87153.0,87153.0,299.5896448420244,4.307965708717217,0.20059083683552179
63109.13819069061,6.147165646696521,PPG_2,PPG_1,87193.0,87193.0,339.55182558369415,4.169758315403761,0.1941592714661768
63109.148284558665,6.157259514751786,PPG_2,PPG_1,87184.0,87184.0,330.51400632537843,3.626876515673622,0.1688959356989427
63109.15837842673,6.167353382814326,PPG_2,PPG_1,87172.0,87172.0,318.47618706704816,2.7456826531814653,0.12788904168401824
63109.16847229478,6.177447250869591,PPG_2,PPG_1,87165.0,87165.0,311.4383678087179,1.632888322530182,0.07610447858189814
63109.17856616284,6.187541118924855,PPG_2,PPG_1,87159.0,87159.0,305.4005485503876,0.4265203049373223,0.019965406867851473
63109.18866003089,6.19763498698012,PPG_2,PPG_1,87161.0,87161.0,307.36272929205734,-0.7196622864586957,-0.033372899318486
63109.19875389895,6.207728855035384,PPG_2,PPG_1,87154.0,87154.0,300.32491003372706,-1.6543671947707626,-0.07686996249818308
63109.20884776701,6.217822723097925,PPG_2,PPG_1,87136.0,87136.0,282.2870907753968,-2.2462923628371,-0.1044155613327173
63109.21894163507,6.227916591153189,PPG_2,PPG_1,87160.0,87160.0,306.2492715170665,-2.3980652992556477,-0.11147840752691064
63109.22903550312,6.2380104592084535,PPG_2,PPG_1,87182.0,87182.0,328.21145225873624,-2.05408725032089,-0.09547117915580555
63109.23912937118,6.248104327263718,PPG_2,PPG_1,87155.0,87155.0,301.17363300040597,-1.2022298706890588,-0.05582947626922343
63109.24922323924,6.258198195326258,PPG_2,PPG_1,87140.0,87140.0,286.1358137420757,0.1277925108911562,0.006063926715551436
63109.259317107295,6.268292063381523,PPG_2,PPG_1,87174.0,87174.0,320.0979944837454,1.867538919034159,0.08702408725253052
63109.26941097535,6.278385931436787,PPG_2,PPG_1,87153.0,87153.0,299.06017522541515,3.915920789662932,0.1823467873373992
63109.279504843405,6.288479799492052,PPG_2,PPG_1,87197.0,87197.0,343.0223559670849,6.1497979761656865,0.2863016251187297
63109.28959871147,6.298573667554592,PPG_2,PPG_1,87175.0,87175.0,320.9845367087546,8.437437577008554,0.3927583296522824
63109.29969257952,6.308667535609857,PPG_2,PPG_1,87178.0,87178.0,323.94671745042433,10.650895234781236,0.49576293220603124
63109.30978644758,6.318761403665121,PPG_2,PPG_1,87149.0,87149.0,294.90889819209406,12.674354132849531,0.589925826557081
63109.319880315634,6.328855271720386,PPG_2,PPG_1,87183.0,87183.0,328.8710789337638,14.409068732409288,0.6706518288116897
63109.329974183696,6.338949139782926,PPG_2,PPG_1,87208.0,87208.0,353.8332596754335,15.778051175541103,0.7343582620306324
63109.34006805175,6.3490430078381905,PPG_2,PPG_1,87176.0,87176.0,321.79544041710324,16.73143714491708,0.7787246597844124
63109.35016191981,6.359136875893455,PPG_2,PPG_1,87176.0,87176.0,321.7576211587875,17.249558931316365,0.8028357732250009
63109.36025578786,6.3692307439487195,PPG_2,PPG_1,87167.0,87167.0,312.71980190045724,17.34131309523209,0.807105609222813
63109.37034965592,6.379324612003984,PPG_2,PPG_1,87198.0,87198.0,343.68198264212697,17.03950701393887,0.7930608790953823
63109.38044352398,6.389418480066524,PPG_2,PPG_1,87171.0,87171.0,316.6441633837967,16.3961804400464,0.7631232844802951
63109.390537392035,6.399512348121789,PPG_2,PPG_1,87182.0,87182.0,327.6063441254664,15.478537543632928,0.7204202124339774
63109.40063126009,6.409606216177053,PPG_2,PPG_1,87186.0,87186.0,331.56852486713615,14.364522811399528,0.6685788571996562
63109.410725128146,6.419700084232318,PPG_2,PPG_1,87168.0,87168.0,313.5307056088059,13.137560181948443,0.6114814026578395
63109.42081899621,6.429793952294858,PPG_2,PPG_1,87180.0,87180.0,325.4928863504756,11.880619346361454,0.5529888940035307
63109.43091286426,6.439887820350123,PPG_2,PPG_1,87153.0,87153.0,298.4550670921453,10.670288883888261,0.4966654274994565
63109.44100673232,6.449981688405387,PPG_2,PPG_1,87199.0,87199.0,344.41724783381505,9.572229583652957,0.44556656802771105
63109.451100600374,6.460075556460652,PPG_2,PPG_1,87175.0,87175.0,320.3794285754848,8.638856035108518,0.40213146048707443
63109.46119446844,6.470169424523192,PPG_2,PPG_1,87183.0,87183.0,328.3416093171545,7.907902186892121,0.3681160771991799
63109.47128833649,6.4802632925784565,PPG_2,PPG_1,87149.0,87149.0,294.30379005882423,7.399377582386879,0.3444515744733527
63109.48138220455,6.490357160633721,PPG_2,PPG_1,87162.0,87162.0,307.26597080049396,7.11068141722416,0.33101692229152574
63109.4914760726,6.500451028688985,PPG_2,PPG_1,87166.0,87166.0,311.2281515421637,7.013118750387788,0.32647678406648434
63109.501569940665,6.510544896751526,PPG_2,PPG_1,87186.0,87186.0,331.1903322838334,7.053475005019518,0.3283547869974653
63109.51166380872,6.52063876480679,PPG_2,PPG_1,87173.0,87173.0,318.15251302550314,7.160979179928808,0.3333575593660783
63109.521757676775,6.530732632862055,PPG_2,PPG_1,87170.0,87170.0,315.11469376717287,7.256649523383125,0.3378096371680132
63109.53185154483,6.540826500917319,PPG_2,PPG_1,87178.0,87178.0,323.0768745088426,7.261955706262013,0.33805656362562947
63109.541945412886,6.550920368972584,PPG_2,PPG_1,87179.0,87179.0,324.0390552505123,7.105735114219418,0.33078674306341865
63109.55203928095,6.561014237035124,PPG_2,PPG_1,87164.0,87164.0,309.0012359921966,6.729287127474153,0.3132685063261171
63109.56213314901,6.571108105090389,PPG_2,PPG_1,87172.0,87172.0,316.9634167338663,6.089533377422451,0.28349717524827023
63109.57222701706,6.581201973145653,PPG_2,PPG_1,87162.0,87162.0,306.92559747553605,5.160744651869773,0.24027542524279458
63109.582320885114,6.5912958412009175,PPG_2,PPG_1,87169.0,87169.0,313.8877782172058,3.9361195669285705,0.1832867497609011
63109.59241475318,6.601389709263458,PPG_2,PPG_1,87172.0,87172.0,316.8499589588755,2.4301962272122,0.11320768837059327
63109.60250862123,6.611483577318722,PPG_2,PPG_1,87167.0,87167.0,311.81213970054523,0.6819249896214588,0.031850819694192865
63109.61260248929,6.621577445373987,PPG_2,PPG_1,87194.0,87194.0,338.77432044221496,-1.2430153152864167,-0.05772745181710727
63109.62269635734,6.631671313429251,PPG_2,PPG_1,87162.0,87162.0,306.7365011838847,-3.253116296057412,-0.15126872733694854
63109.632790225405,6.641765181491792,PPG_2,PPG_1,87147.0,87147.0,291.6986819255544,-5.23764149027341,-0.24361981802544871
63109.64288409346,6.651859049547056,PPG_2,PPG_1,87155.0,87155.0,299.66086266722414,-7.079024975151172,-0.32930972193792263
63109.65297796152,6.661952917602321,PPG_2,PPG_1,87165.0,87165.0,309.62304340889386,-8.667738255914475,-0.40324146374569503
63109.66307182957,6.672046785657585,PPG_2,PPG_1,87140.0,87140.0,284.5852241505636,-9.915798029022971,-0.4613206867391556
63109.673165697626,6.68214065371285,PPG_2,PPG_1,87138.0,87138.0,282.5474048922333,-10.767159208043903,-0.5009392986275734
63109.68325956569,6.69223452177539,PPG_2,PPG_1,87157.0,87157.0,301.50958563390304,-11.203810602849241,-0.5212591376895604
63109.693353433744,6.7023283898306545,PPG_2,PPG_1,87181.0,87181.0,325.47176637557277,-11.246087447395833,-0.5232265164439978
63109.7034473018,6.712422257885919,PPG_2,PPG_1,87134.0,87134.0,278.4339471172425,-10.947953842090762,-0.5093526872272841
63109.713541169855,6.722516125941183,PPG_2,PPG_1,87142.0,87142.0,286.3961278589122,-10.3903407835049,-0.4834038233415329
63109.72363503792,6.732609994003724,PPG_2,PPG_1,87156.0,87156.0,300.35830860058195,-9.673635567110924,-0.45005150882870587
63109.73372890597,6.742703862058988,PPG_2,PPG_1,87176.0,87176.0,320.3204893422517,-8.907360850952669,-0.41439244740157566
63109.74382277403,6.752797730114253,PPG_2,PPG_1,87159.0,87159.0,303.2826700839214,-8.196628674038019,-0.3813180919251211
63109.75391664208,6.762891598169517,PPG_2,PPG_1,87156.0,87156.0,300.2448508256057,-7.628624846762596,-0.354885687278905
63109.764010510145,6.772985466232058,PPG_2,PPG_1,87168.0,87168.0,312.2070315672754,-7.262469724173608,-0.3378464352548795
63109.7741043782,6.783079334287322,PPG_2,PPG_1,87174.0,87174.0,318.16921230894513,-7.123316089564236,-0.3313708359695193
63109.784198246256,6.793173202342587,PPG_2,PPG_1,87171.0,87171.0,315.13139305061486,-7.200930954206373,-0.3349826910491286
63109.79429211431,6.803267070397851,PPG_2,PPG_1,87150.0,87150.0,294.0935737922846,-7.454045261185818,-0.34676151975160324
63109.804385982374,6.8133609384603915,PPG_2,PPG_1,87156.0,87156.0,300.0557545339543,-7.82100612570202,-0.3638382674678016
63109.81447985043,6.823454806515656,PPG_2,PPG_1,87143.0,87143.0,287.01793527562404,-8.234459836499724,-0.38307858815138973
63109.82457371848,6.83354867457092,PPG_2,PPG_1,87146.0,87146.0,289.98011601729377,-8.63582976166122,-0.40175658249797674
63109.83466758654,6.843642542626185,PPG_2,PPG_1,87160.0,87160.0,303.9422967589635,-8.985715989952064,-0.4180387516000476
63109.844761454595,6.853736410681449,PPG_2,PPG_1,87142.0,87142.0,285.9044775006332,-9.268207683073241,-0.4311846748900204
63109.85485532266,6.86383027874399,PPG_2,PPG_1,87169.0,87169.0,312.86665824230295,-9.48917356400527,-0.44146745697235107
63109.86494919071,6.873924146799254,PPG_2,PPG_1,87161.0,87161.0,304.8288389839727,-9.670033319296635,-0.44988387602890595
63109.87504305877,6.884018014854519,PPG_2,PPG_1,87161.0,87161.0,304.7910197256424,-9.839386040649506,-0.45776480824059396
63109.88513692682,6.894111882909783,PPG_2,PPG_1,87173.0,87173.0,316.7532004673121,-10.02527704618003,-0.46641535959663655
63109.895230794886,6.904205750972324,PPG_2,PPG_1,87137.0,87137.0,280.71538120898185,-10.250271207362376,-0.4768856001581037
63109.90532466294,6.914299619027588,PPG_2,PPG_1,87171.0,87171.0,314.6775619506516,-10.529874420759414,-0.4898971062818277
63109.91541853099,6.9243934870828525,PPG_2,PPG_1,87146.0,87146.0,289.6397426923213,-10.873215036332656,-0.5058746713025511
63109.92551239905,6.934487355138117,PPG_2,PPG_1,87128.0,87128.0,271.60192343399103,-11.284226761131377,-0.5250013526778001
63109.935606267114,6.944581223200657,PPG_2,PPG_1,87167.0,87167.0,310.56410417566076,-11.761352695686778,-0.5472046991409165
63109.94570013517,6.954675091255922,PPG_2,PPG_1,87176.0,87176.0,319.5262849173305,-12.294017348900105,-0.5719925737614231
63109.955794003225,6.964768959311186,PPG_2,PPG_1,87163.0,87163.0,306.48846565901476,-12.856815485039565,-0.5981827283945907
63109.96588787128,6.974862827366451,PPG_2,PPG_1,87133.0,87133.0,276.4506464006845,-13.405735479208259,-0.6237270552239766
63109.97598173934,6.984956695428991,PPG_2,PPG_1,87179.0,87179.0,322.4128271423542,-13.879620541142048,-0.6457795857023625
63109.9860756074,6.995050563484256,PPG_2,PPG_1,87138.0,87138.0,281.37500788402394,-14.206035061922725,-0.6609694845751598
63109.99616947545,7.00514443153952,PPG_2,PPG_1,87166.0,87166.0,309.33718862569367,-14.30951567973993,-0.6657850182596864
63110.00626334351,7.015238299594785,PPG_2,PPG_1,87135.0,87135.0,278.2993693673634,-14.121359843892257,-0.6570290716430431
63110.01635721156,7.025332167650049,PPG_2,PPG_1,87139.0,87139.0,282.2615501090331,-13.589864425237222,-0.6322956080660667
63110.026451079626,7.0354260357125895,PPG_2,PPG_1,87164.0,87164.0,307.22373085070285,-12.688539586131888,-0.5903519067723684
63110.03654494768,7.045519903767854,PPG_2,PPG_1,87164.0,87164.0,307.1859115923726,-11.420076373010948,-0.5313231972496169
63110.04663881574,7.055613771823118,PPG_2,PPG_1,87124.0,87124.0,267.1480923340423,-9.81623787897386,-0.45668759441412793
63110.05673268379,7.065707639878383,PPG_2,PPG_1,87160.0,87160.0,303.11027307571203,-7.934921922695202,-0.36913940858187366
63110.066826551854,7.075801507940923,PPG_2,PPG_1,87183.0,87183.0,326.07245381738176,-5.853902920602257,-0.2722979196721289
63110.07692041991,7.085895375996188,PPG_2,PPG_1,87168.0,87168.0,311.0346345590515,-3.6608388539389716,-0.17024234532295882
63110.087014287965,7.095989244051452,PPG_2,PPG_1,87159.0,87159.0,301.9968153007212,-1.4424729066314823,-0.06700933252111867
63110.09710815602,7.106083112106717,PPG_2,PPG_1,87180.0,87180.0,322.95899604239094,0.7231343730574553,0.03376852349458144
63110.10720202408,7.116176980169257,PPG_2,PPG_1,87154.0,87154.0,296.92117678406066,2.7705288621677187,0.12904527517807646
63110.11729589214,7.126270848224522,PPG_2,PPG_1,87175.0,87175.0,317.8833575257304,4.648449858699922,0.2164354744872357
63110.12738976019,7.136364716279786,PPG_2,PPG_1,87171.0,87171.0,313.8455382674001,6.320676537054041,0.2942535632041291
63110.13748362825,7.1464585843350505,PPG_2,PPG_1,87191.0,87191.0,333.80771900906984,7.7669284118313335,0.3615557765674299
63110.14757749631,7.156552452397591,PPG_2,PPG_1,87150.0,87150.0,292.76989975073957,8.983366097772564,0.41816344644165804
63110.157671364366,7.166646320452855,PPG_2,PPG_1,87187.0,87187.0,329.73208049242385,9.981911838086136,0.4646313816883784
63110.16776523242,7.17674018850812,PPG_2,PPG_1,87207.0,87207.0,349.6942612340936,10.788628653478433,0.5021724408774326
63110.17785910048,7.186834056563384,PPG_2,PPG_1,87163.0,87163.0,305.6564419757633,11.44094902657823,0.5325285674258259
63110.18795296853,7.196927924618649,PPG_2,PPG_1,87169.0,87169.0,311.618622717433,11.981938231724286,0.5577038301494016
63110.198046836595,7.207021792681189,PPG_2,PPG_1,87168.0,87168.0,310.58080345910275,12.451412573378574,0.5795511050685631
63110.20814070465,7.217115660736454,PPG_2,PPG_1,87179.0,87179.0,321.5429842007725,12.877419796327457,0.5993756110991105
63110.218234572705,7.227209528791718,PPG_2,PPG_1,87153.0,87153.0,295.5051649424422,13.27198276212816,0.6177368394388593
63110.22832844076,7.237303396846983,PPG_2,PPG_1,87203.0,87203.0,345.46734568411193,13.632583517677727,0.6345176156039389
63110.23842230882,7.247397264909523,PPG_2,PPG_1,87182.0,87182.0,324.42952642578166,13.948740779531892,0.6492301866745503
63110.24851617688,7.2574911329647875,PPG_2,PPG_1,87179.0,87179.0,321.3917071674514,14.211138527973938,0.6614410259893936
63110.25861004493,7.267585001020052,PPG_2,PPG_1,87193.0,87193.0,335.3538879091211,14.41980507374385,0.6711514510060265
63110.26870391299,7.2776788690753165,PPG_2,PPG_1,87190.0,87190.0,332.31606865079084,14.589059025284701,0.6790277869042518
63110.27879778105,7.287772737137857,PPG_2,PPG_1,87184.0,87184.0,326.27824939246057,14.7482886414565,0.6864376342401464
63110.28889164911,7.297866605193121,PPG_2,PPG_1,87188.0,87188.0,330.2404301341303,14.937862278122363,0.6952595590828764
63110.29898551716,7.307960473248386,PPG_2,PPG_1,87172.0,87172.0,314.2026108758,15.20018811098694,0.7074670517624458
63110.30907938522,7.31805434130365,PPG_2,PPG_1,87156.0,87156.0,298.16479161746975,15.567666342196759,0.7245678754533814
63110.31917325328,7.328148209366191,PPG_2,PPG_1,87182.0,87182.0,324.1269723591395,16.05113063829034,0.7470661814377652
63110.329267121335,7.338242077421455,PPG_2,PPG_1,87178.0,87178.0,320.0891531008092,16.632948008685453,0.774141407740816
63110.33936098939,7.34833594547672,PPG_2,PPG_1,87168.0,87168.0,310.0513338424789,17.26697436967952,0.8036462112745371
63110.349454857445,7.358429813531984,PPG_2,PPG_1,87214.0,87214.0,356.01351458414865,17.88460060638378,0.8323878250185771
63110.3595487255,7.368523681587249,PPG_2,PPG_1,87178.0,87178.0,319.97569532583293,18.404306599247537,0.8565726604735276
63110.36964259356,7.378617549649789,PPG_2,PPG_1,87178.0,87178.0,319.93787606750266,18.741397947238653,0.8722594120145857
63110.37973646162,7.388711417705053,PPG_2,PPG_1,87173.0,87173.0,314.9000568091724,18.81570857694039,0.8757175025053018
63110.389830329674,7.398805285760318,PPG_2,PPG_1,87214.0,87214.0,355.8622375508421,18.557849741825862,0.8637178842913841
63110.39992419773,7.408899153815582,PPG_2,PPG_1,87149.0,87149.0,290.82441829251184,17.91531429333359,0.8338171051794675
63110.41001806579,7.418993021878123,PPG_2,PPG_1,87195.0,87195.0,336.78659903418156,16.858109415516413,0.7846194311805793
63110.42011193385,7.429086889933387,PPG_2,PPG_1,87209.0,87209.0,350.7487797758513,15.383214887531118,0.7159843144751183
63110.4302058019,7.439180757988652,PPG_2,PPG_1,87166.0,87166.0,307.710960517521,13.517068322116012,0.6291420455016736
63110.44029966996,7.449274626043916,PPG_2,PPG_1,87163.0,87163.0,304.67314125919074,11.314093283928575,0.5266252580458592
63110.45039353802,7.459368494106457,PPG_2,PPG_1,87189.0,87189.0,330.63532200086047,8.850591525644875,0.41198470072080307
63110.460487406075,7.469462362161721,PPG_2,PPG_1,87158.0,87158.0,299.5975027425302,6.216372031054171,0.28939968938036104
63110.47058127413,7.479556230216986,PPG_2,PPG_1,87151.0,87151.0,292.5596834841999,3.5065837776191753,0.16329803974195894
63110.480675142186,7.48965009827225,PPG_2,PPG_1,87174.0,87174.0,315.52186422586965,0.8149481632675352,0.0380411342383799
63110.49076901024,7.499743966327515,PPG_2,PPG_1,87169.0,87169.0,310.4840449675394,-1.770510831145235,-0.08227477747708714
63110.5008628783,7.509837834390055,PPG_2,PPG_1,87169.0,87169.0,310.4462257092091,-4.169441931234795,-0.19391049982797265
63110.51095674636,7.519931702445319,PPG_2,PPG_1,87137.0,87137.0,278.40840645087883,-6.3111543812593,-0.2935763953668001
63110.521050614414,7.530025570500584,PPG_2,PPG_1,87168.0,87168.0,309.37058719254856,-8.138182747661709,-0.37859827508284394
63110.53114448247,7.540119438555848,PPG_2,PPG_1,87150.0,87150.0,291.3327679342183,-9.610438427234092,-0.4471105913674262
63110.54123835053,7.550213306618389,PPG_2,PPG_1,87126.0,87126.0,267.294948675888,-10.70825865782562,-0.49819832558744015
63110.55133221859,7.560307174673653,PPG_2,PPG_1,87182.0,87182.0,323.25712941755773,-11.433341885314219,-0.5319405159580511
63110.56142608664,7.570401042728918,PPG_2,PPG_1,87142.0,87142.0,283.219310159242,-11.807105214438186,-0.5493338205150132
63110.5715199547,7.580494910784182,PPG_2,PPG_1,87147.0,87147.0,288.18149090091174,-11.867336899160348,-0.5521367387114209
63110.58161382276,7.590588778846723,PPG_2,PPG_1,87140.0,87140.0,281.14367164258147,-11.664749662903256,-0.5427092180720055
63110.591707690815,7.600682646901987,PPG_2,PPG_1,87161.0,87161.0,302.1058523842512,-11.259307707101705,-0.523841729295203
63110.60180155887,7.6107765149572515,PPG_2,PPG_1,87158.0,87158.0,299.0680331259209,-10.71513270328203,-0.49851821348666764
63110.611895426926,7.620870383012516,PPG_2,PPG_1,87150.0,87150.0,291.03021386759065,-10.09457494611335,-0.4696401796492703
63110.62198929499,7.630964251075056,PPG_2,PPG_1,87151.0,87151.0,291.9923946092604,-9.453494022312654,-0.43980708773129407
63110.63208316304,7.641058119130321,PPG_2,PPG_1,87149.0,87149.0,289.9545753509301,-8.838671015181857,-0.41119592398572935
63110.6421770311,7.651151987185585,PPG_2,PPG_1,87158.0,87158.0,298.9167560925998,-8.286563498802774,-0.3855032638655486
63110.652270899154,7.66124585524085,PPG_2,PPG_1,87151.0,87151.0,291.87893683426955,-7.822480260173349,-0.3639068672148069
63110.66236476721,7.671339723296114,PPG_2,PPG_1,87141.0,87141.0,281.8411175759393,-7.460019232915542,-0.3470395221708168
63110.67245863527,7.681433591358655,PPG_2,PPG_1,87179.0,87179.0,319.803298317609,-7.2007668420988855,-0.33497505399208044
63110.68255250333,7.691527459413919,PPG_2,PPG_1,87144.0,87144.0,284.76547905927873,-7.034355872430164,-0.327231017989802
63110.69264637138,7.701621327469184,PPG_2,PPG_1,87157.0,87157.0,297.72765980094846,-6.939845068867589,-0.3228329000841744
63110.70274023944,7.711715195524448,PPG_2,PPG_1,87163.0,87163.0,303.6898405426182,-6.889514971821843,-0.3204907583113314
63110.7128341075,7.7218090635869885,PPG_2,PPG_1,87140.0,87140.0,280.6520212842879,-6.854992093740211,-0.31888421511710185
63110.72292797555,7.731902931642253,PPG_2,PPG_1,87132.0,87132.0,272.61420202595764,-6.814517686138646,-0.31700071386558354
63110.73302184361,7.741996799697517,PPG_2,PPG_1,87155.0,87155.0,295.57638276762736,-6.7590434245883095,-0.31441918525902096
63110.743115711666,7.752090667752782,PPG_2,PPG_1,87165.0,87165.0,305.5385635092971,-6.694276786409492,-0.3114052302366942
63110.75320957973,7.762184535815322,PPG_2,PPG_1,87132.0,87132.0,272.5007442509668,-6.637919611543464,-0.3087826147203131
63110.763303447784,7.772278403870587,PPG_2,PPG_1,87170.0,87170.0,310.4629249926511,-6.614092056326566,-0.30767378490090114
63110.77339731584,7.782372271925851,PPG_2,PPG_1,87150.0,87150.0,290.4251057343208,-6.646991039646292,-0.3092047591616334
63110.783491183895,7.792466139981116,PPG_2,PPG_1,87135.0,87135.0,275.38728647599055,-6.754716476685129,-0.31421782809843884
63110.79358505196,7.802560008043656,PPG_2,PPG_1,87178.0,87178.0,318.3494672176603,-6.94373247883936,-0.3230138030789526
63110.80367892001,7.812653876098921,PPG_2,PPG_1,87166.0,87166.0,306.31164795933,-7.2044488429293105,-0.3351463981471442
63110.81377278807,7.822747744154185,PPG_2,PPG_1,87145.0,87145.0,285.27382870099973,-7.509661908757404,-0.3493496743785356
63110.82386665612,7.8328416122094495,PPG_2,PPG_1,87130.0,87130.0,270.23600944266946,-7.818231656566232,-0.3637091558538406
63110.83396052418,7.842935480264714,PPG_2,PPG_1,87168.0,87168.0,308.1981901843392,-8.083440449344412,-0.3760508088319079
63110.84405439224,7.853029348327254,PPG_2,PPG_1,87130.0,87130.0,270.1603709260089,-8.262421314206835,-0.38437979257602495
63110.854148260296,7.863123216382519,PPG_2,PPG_1,87129.0,87129.0,269.12255166767864,-8.323770972315254,-0.38723473634604716
63110.86424212835,7.873217084437783,PPG_2,PPG_1,87173.0,87173.0,313.08473240934836,-8.25202393250108,-0.38389594407481686
63110.87433599641,7.883310952493048,PPG_2,PPG_1,87138.0,87138.0,278.0469131510181,-8.048217936696572,-0.37441170771628685
63110.88442986447,7.893404820555588,PPG_2,PPG_1,87133.0,87133.0,273.0090938926878,-7.727300777553743,-0.3594776319212936
63110.89452373253,7.903498688610853,PPG_2,PPG_1,87166.0,87166.0,305.97127463435754,-7.313977995572129,-0.3402434040900431
63110.90461760058,7.913592556666117,PPG_2,PPG_1,87148.0,87148.0,287.93345537602727,-6.837448171657129,-0.3180677979992699
63110.914711468635,7.923686424721382,PPG_2,PPG_1,87141.0,87141.0,280.895636117697,-6.32544009269522,-0.29424118966430435
63110.9248053367,7.933780292783922,PPG_2,PPG_1,87176.0,87176.0,315.8578168593667,-5.799044899196988,-0.2697450681766904
63110.93489920475,7.943874160839187,PPG_2,PPG_1,87135.0,87135.0,274.81999760103645,-5.269686063960238,-0.24511103181263152
63110.94499307281,7.953968028894451,PPG_2,PPG_1,87157.0,87157.0,296.7821783427062,-4.738989786817508,-0.22041475677349323
63110.95508694086,7.9640618969497154,PPG_2,PPG_1,87139.0,87139.0,278.7443590843759,-4.201574803406095,-0.19540582263900205
63110.965180808926,7.974155765012256,PPG_2,PPG_1,87136.0,87136.0,275.7065398260602,-3.649250564277623,-0.16970307719345412
63110.97527467698,7.98424963306752,PPG_2,PPG_1,87146.0,87146.0,285.6687205677299,-3.0740326912377296,-0.1429349625262379
63110.98536854504,7.994343501122785,PPG_2,PPG_1,87180.0,87180.0,319.63090130939963,-2.467966935825022,-0.11473132283224803
63110.99546241309,8.00443736917805,PPG_2,PPG_1,87158.0,87158.0,297.59308205106936,-1.8204458495059213,-0.08459853402228004
63111.00555628115,8.014531237233314,PPG_2,PPG_1,87138.0,87138.0,277.5552627927391,-1.1167807932183778,-0.05185305131591813
63111.01565014921,8.024625105295854,PPG_2,PPG_1,87137.0,87137.0,276.5174435344088,-0.3409642190746317,-0.015749953705864617
63111.025744017265,8.034718973351119,PPG_2,PPG_1,87152.0,87152.0,291.47962427607854,0.5191733131436812,0.024277071133120803
63111.03583788532,8.044812841406383,PPG_2,PPG_1,87153.0,87153.0,292.44180501774827,1.468807693637918,0.0684688864094128
63111.045931753375,8.054906709461648,PPG_2,PPG_1,87159.0,87159.0,298.403985759418,2.507006517624665,0.11678210209754719
63111.05602562144,8.065000577524188,PPG_2,PPG_1,87159.0,87159.0,298.3661665010877,3.630203134960767,0.16905074195706868
63111.06611948949,8.075094445579452,PPG_2,PPG_1,87160.0,87160.0,299.32834724275745,4.835684527727116,0.22514855404387632
63111.07621335755,8.085188313634717,PPG_2,PPG_1,87150.0,87150.0,289.2905279844272,6.12335858983452,0.28507125214491497
63111.0863072256,8.095282181689981,PPG_2,PPG_1,87179.0,87179.0,318.2527087260969,7.495313989256509,0.3489160336986467
63111.096401093666,8.105376049752522,PPG_2,PPG_1,87138.0,87138.0,277.2148894677666,8.953343633545472,0.4167663327518902
63111.10649496172,8.115469917807786,PPG_2,PPG_1,87158.0,87158.0,297.17707020943635,10.494854742085343,0.48850149267679926
63111.11658882978,8.12556378586305,PPG_2,PPG_1,87182.0,87182.0,321.1392509511061,12.108302440694453,0.5635842657097044
63111.12668269783,8.135657653918315,PPG_2,PPG_1,87141.0,87141.0,280.1014316927758,13.76941523055824,0.6408851628450225
63111.136776565894,8.145751521980856,PPG_2,PPG_1,87155.0,87155.0,294.06361243444553,15.43844806209289,0.7185546239515789
63111.14687043395,8.15584539003612,PPG_2,PPG_1,87160.0,87160.0,299.02579317611526,17.059039410861647,0.7939698311030647
63111.156964302005,8.165939258091385,PPG_2,PPG_1,87189.0,87189.0,327.987973917785,18.560502990760362,0.8638413548493207
63111.16705817006,8.176033126146649,PPG_2,PPG_1,87152.0,87152.0,290.95015465946926,19.863851123627366,0.9244934553960409
63111.177152038115,8.186126994201913,PPG_2,PPG_1,87182.0,87182.0,320.912335401139,20.889056771905647,0.972202025725335
63111.18724590618,8.196220862264454,PPG_2,PPG_1,87171.0,87171.0,309.8745161428087,21.56109507061857,1.0034757379722088
63111.19733977423,8.206314730319718,PPG_2,PPG_1,87152.0,87152.0,290.83669688447844,21.814099402354014,1.015249448909607
63111.20743364229,8.216408598374983,PPG_2,PPG_1,87165.0,87165.0,303.79887762614817,21.594205898857147,1.0050165705654883
63111.217527510344,8.226502466430247,PPG_2,PPG_1,87171.0,87171.0,309.7610583678179,20.862607761830887,0.9709712049047405
63111.227621378406,8.236596334492788,PPG_2,PPG_1,87171.0,87171.0,309.7232391094876,19.60014557796464,0.912221756939635
63111.23771524646,8.246690202548052,PPG_2,PPG_1,87150.0,87150.0,288.68541985115735,17.8128154863135,0.8290472606593958
63111.24780911452,8.256784070603317,PPG_2,PPG_1,87196.0,87196.0,334.6476005928271,15.536321369299865,0.7231092180157905
63111.25790298257,8.266877938658581,PPG_2,PPG_1,87147.0,87147.0,285.6097813344968,12.837966886226768,0.5975396458570198
63111.267996850635,8.276971806721122,PPG_2,PPG_1,87149.0,87149.0,287.5719620761665,9.814322477489354,0.4568325085453163
63111.27809071869,8.287065674776386,PPG_2,PPG_1,87158.0,87158.0,296.53414281783625,6.5841985178908145,0.3065167193593647
63111.288184586745,8.29715954283165,PPG_2,PPG_1,87135.0,87135.0,273.496323559506,3.2786927827441397,0.15269299325721966
63111.2982784548,8.307253410886915,PPG_2,PPG_1,87156.0,87156.0,294.4585043011757,0.030643484615365566,0.001543037506362328
63111.30837232286,8.317347278949455,PPG_2,PPG_1,87132.0,87132.0,270.42068504284543,-3.0355127299729485,-0.14114241262742613
63111.31846619092,8.32744114700472,PPG_2,PPG_1,87123.0,87123.0,261.38286578451516,-5.8132598307579135,-0.2704065686895284
63111.32856005897,8.337535015059984,PPG_2,PPG_1,87115.0,87115.0,253.3450465261849,-8.221878408677053,-0.3824931037316259
63111.33865392703,8.347628883115249,PPG_2,PPG_1,87150.0,87150.0,288.3072272678546,-10.210311983681022,-0.47502607330463054
63111.34874779509,8.357722751170513,PPG_2,PPG_1,87129.0,87129.0,267.26940800952434,-11.755366025980742,-0.5469261058136282
63111.35884166315,8.367816619233054,PPG_2,PPG_1,87142.0,87142.0,280.23158875119407,-12.855876476866149,-0.5981390310763439
63111.3689355312,8.377910487288318,PPG_2,PPG_1,87140.0,87140.0,278.19376949287835,-13.526835723714337,-0.6293625289863536
63111.37902939926,8.388004355343583,PPG_2,PPG_1,87106.0,87106.0,244.15595023454807,-13.796620456579518,-0.6419171261281893
63111.38912326731,8.398098223398847,PPG_2,PPG_1,87098.0,87098.0,236.1181309762178,-13.70744956453648,-0.6377675042630487
63111.399217135375,8.408192091461387,PPG_2,PPG_1,87146.0,87146.0,284.0803117178875,-13.31566831705799,-0.619535724882574
63111.40931100343,8.418285959516652,PPG_2,PPG_1,87132.0,87132.0,270.04249245955725,-12.687765491572774,-0.5903158838097783
63111.419404871485,8.428379827571916,PPG_2,PPG_1,87120.0,87120.0,258.004673201227,-11.892070797274817,-0.5532877457505389
63111.42949873954,8.43847369562718,PPG_2,PPG_1,87143.0,87143.0,280.9668539428967,-10.989859785110344,-0.5113028058528717
63111.4395926076,8.448567563689721,PPG_2,PPG_1,87154.0,87154.0,291.92903468456643,-10.029076192028874,-0.4665921551666037
63111.44968647566,8.458661431744986,PPG_2,PPG_1,87107.0,87107.0,244.89121542623616,-9.042469318663015,-0.4206798023772991
63111.459780343714,8.46875529980025,PPG_2,PPG_1,87119.0,87119.0,256.8533961679059,-8.051149222958726,-0.3745481169108988
63111.46987421177,8.478849167855515,PPG_2,PPG_1,87119.0,87119.0,256.8155769095756,-7.071641653722105,-0.328966134570594
63111.479968079824,8.48894303591078,PPG_2,PPG_1,87137.0,87137.0,274.77775765124534,-6.121698774075723,-0.2847599630980389
63111.49006194789,8.49903690397332,PPG_2,PPG_1,87139.0,87139.0,276.73993839291506,-5.221826808464025,-0.24288387215877738
63111.50015581594,8.509130772028584,PPG_2,PPG_1,87129.0,87129.0,266.7021191345848,-4.393688204113417,-0.204345936950933
63111.510249684,8.519224640083848,PPG_2,PPG_1,87118.0,87118.0,255.66429987625452,-3.6581721561102336,-0.17011824891252353
63111.52034355205,8.529318508139113,PPG_2,PPG_1,87130.0,87130.0,267.62648061792424,-3.0339856231623203,-0.14107134778029273
63111.530437420115,8.539412376201653,PPG_2,PPG_1,87160.0,87160.0,297.58866135959397,-2.5354880847785735,-0.1178734606940274
63111.54053128817,8.549506244256918,PPG_2,PPG_1,87101.0,87101.0,238.5508421012637,-2.1693487273928658,-0.10083494231335505
63111.550625156226,8.559600112312182,PPG_2,PPG_1,87162.0,87162.0,299.5130228429334,-1.9316154732182917,-0.08977188028726585
63111.56071902428,8.569693980367447,PPG_2,PPG_1,87127.0,87127.0,264.47520358460315,-1.8066265638221795,-0.08395544513172366
63111.57081289234,8.579787848429987,PPG_2,PPG_1,87123.0,87123.0,260.43738432628743,-1.7681301052612632,-0.08216398894557544
63111.5809067604,8.589881716485252,PPG_2,PPG_1,87154.0,87154.0,291.39956506795716,-1.782724273548829,-0.0828431374708632
63111.591000628454,8.599975584540516,PPG_2,PPG_1,87116.0,87116.0,253.36174580962688,-1.8154000401883155,-0.08436372420719418
63111.60109449651,8.61006945259578,PPG_2,PPG_1,87120.0,87120.0,257.3239265512966,-1.8365798070274588,-0.08534933757900916
63111.61118836457,8.620163320658321,PPG_2,PPG_1,87115.0,87115.0,252.28610729296634,-1.8292559009969434,-0.08500851514350191
63111.62128223263,8.630257188713585,PPG_2,PPG_1,87141.0,87141.0,278.24828803463606,-1.7934414674320358,-0.08334186862686915
63111.63137610068,8.64035105676885,PPG_2,PPG_1,87122.0,87122.0,259.2104687763058,-1.7457469734365576,-0.08112237624997413
63111.64146996874,8.650444924824114,PPG_2,PPG_1,87131.0,87131.0,268.1726495179755,-1.7147431817889733,-0.07967959588997746
63111.65156383679,8.660538792879379,PPG_2,PPG_1,87150.0,87150.0,287.13483025964524,-1.7344975809715364,-0.08059887890826459
63111.661657704855,8.67063266094192,PPG_2,PPG_1,87116.0,87116.0,253.09701100131497,-1.838586820778671,-0.08544273518841794
63111.67175157291,8.680726528997184,PPG_2,PPG_1,87103.0,87103.0,240.0591917429847,-2.056114663657837,-0.09556552607238247
63111.681845440966,8.690820397052448,PPG_2,PPG_1,87128.0,87128.0,265.0213724846544,-2.4089729866417007,-0.11198600341429324
63111.69193930902,8.700914265107713,PPG_2,PPG_1,87138.0,87138.0,274.98355322632415,-2.907281033828056,-0.13517507241207777
63111.70203317709,8.711008133170253,PPG_2,PPG_1,87134.0,87134.0,270.9457339679939,-3.5416930088693848,-0.16469782073075462
63111.71212704514,8.721102001225518,PPG_2,PPG_1,87136.0,87136.0,272.9079147096636,-4.27562215849046,-0.19885166148477257
63111.722220913194,8.731195869280782,PPG_2,PPG_1,87131.0,87131.0,267.8700954513333,-5.041960376703169,-0.23451367801874987
63111.73231478125,8.741289737336047,PPG_2,PPG_1,87120.0,87120.0,256.83227619300305,-5.746821892097801,-0.26731483867963
63111.74240864931,8.751383605398587,PPG_2,PPG_1,87109.0,87109.0,245.79445693467278,-6.280012666956284,-0.29212719669188514
63111.75250251737,8.761477473453851,PPG_2,PPG_1,87112.0,87112.0,248.7566376763425,-6.529587759318984,-0.30374132588286473
63111.76259638542,8.771571341509116,PPG_2,PPG_1,87126.0,87126.0,262.71881841801223,-6.39664578821573,-0.2975547901485503
63111.77269025348,8.78166520956438,PPG_2,PPG_1,87103.0,87103.0,239.6809991596965,-5.807397722437086,-0.2701337719022967
63111.78278412154,8.79175907762692,PPG_2,PPG_1,87130.0,87130.0,266.64317990136624,-4.721566679552508,-0.21960396184693085
63111.7928779896,8.801852945682185,PPG_2,PPG_1,87102.0,87102.0,238.60536064303597,-3.137164543035474,-0.1458728417669244
63111.80297185765,8.81194681373745,PPG_2,PPG_1,87136.0,87136.0,272.5675413847057,-1.0915462321379192,-0.05067874562021917
63111.813065725706,8.822040681792714,PPG_2,PPG_1,87119.0,87119.0,255.52972212637542,1.3412597327207965,0.06253336423004142
63111.82315959376,8.832134549847979,PPG_2,PPG_1,87132.0,87132.0,268.49190286804514,4.056216643393002,0.18887554048641872
63111.833253461824,8.842228417910519,PPG_2,PPG_1,87117.0,87117.0,253.45408360971487,6.924751156596328,0.32236454417558
63111.84334732988,8.852322285965784,PPG_2,PPG_1,87131.0,87131.0,267.4162643513846,9.803495145923103,0.45632865206503403
63111.853441197934,8.862416154021048,PPG_2,PPG_1,87168.0,87168.0,304.3784450930543,12.544488441166083,0.5838824473624314
63111.86353506599,8.872510022076312,PPG_2,PPG_1,87106.0,87106.0,242.34062583472405,15.005988031499989,0.6984298325804044
63111.87362893405,8.882603890138853,PPG_2,PPG_1,87146.0,87146.0,282.3028065763938,17.061753061637482,0.7940961124975396
63111.88372280211,8.892697758194117,PPG_2,PPG_1,87143.0,87143.0,279.2649873180635,18.608082800324233,0.866055510316221
63111.89381667016,8.902791626249382,PPG_2,PPG_1,87137.0,87137.0,273.22716805973323,19.569785398432078,0.9108089274620842
63111.90391053822,8.912885494304646,PPG_2,PPG_1,87147.0,87147.0,283.18934880140296,19.90541301055036,0.9264275631612623
63111.91400440628,8.922979362367187,PPG_2,PPG_1,87162.0,87162.0,298.1515295430727,19.610469413507055,0.912702182925261
63111.924098274336,8.933073230422451,PPG_2,PPG_1,87125.0,87125.0,261.1137102847424,18.71683310019485,0.8711162718701808
63111.93419214239,8.943167098477716,PPG_2,PPG_1,87120.0,87120.0,256.07589102641214,17.28724111982245,0.8045893368573546
63111.94428601045,8.95326096653298,PPG_2,PPG_1,87145.0,87145.0,281.03807176808186,15.406047010302402,0.717046821238352
63111.95437987851,8.96335483459552,PPG_2,PPG_1,87113.0,87113.0,249.0002525097516,13.169696217691378,0.612976872687605
63111.96447374656,8.973448702650785,PPG_2,PPG_1,87133.0,87133.0,268.9624332514213,10.679481493935675,0.4970932112165023
63111.97456761462,8.98354257070605,PPG_2,PPG_1,87141.0,87141.0,276.9246139931056,8.036824097470593,0.3741155369643005
63111.984661482675,8.993636438761314,PPG_2,PPG_1,87104.0,87104.0,239.88679473477532,5.339979266848448,0.24861621740338652
63111.99475535073,9.003730306816578,PPG_2,PPG_1,87120.0,87120.0,255.84897547644505,2.6808382674430282,0.12487146863157016
63112.00484921879,9.01382417487912,PPG_2,PPG_1,87123.0,87123.0,258.8111562181148,0.1416616358559631,0.006709334907459537
63112.01494308685,9.023918042934383,PPG_2,PPG_1,87128.0,87128.0,263.7733369597845,-2.2075088927156554,-0.1026107488884917
63112.0250369549,9.034011910989648,PPG_2,PPG_1,87099.0,87099.0,234.73551770145423,-4.311325147662214,-0.20051312186857675
63112.03513082296,9.044105779044912,PPG_2,PPG_1,87090.0,87090.0,225.69769844312395,-6.1328591167927335,-0.28527931645539484
63112.04522469102,9.054199647107453,PPG_2,PPG_1,87098.0,87098.0,233.65987918479368,-7.657508655934903,-0.3562298129609954
63112.05531855907,9.064293515162715,PPG_2,PPG_1,87097.0,87097.0,232.6220599264634,-8.893364800528763,-0.4137411326559901
63112.06541242713,9.074387383217982,PPG_2,PPG_1,87121.0,87121.0,256.58424066813313,-9.865371093167548,-0.45897403851322205
63112.07550629519,9.084481251273246,PPG_2,PPG_1,87115.0,87115.0,250.54642140980286,-10.6045157237253,-0.4933705848546374
63112.08560016325,9.094575119335786,PPG_2,PPG_1,87120.0,87120.0,255.5086021514726,-11.136650618778472,-0.5181338068559511
63112.095694031304,9.104668987391053,PPG_2,PPG_1,87104.0,87104.0,239.4707828931423,-11.476125106785405,-0.5339314592716192
63112.10578789936,9.114762855446315,PPG_2,PPG_1,87090.0,87090.0,225.43296363481204,-11.627064862583218,-0.540955532897296
63112.115881767415,9.12485672350158,PPG_2,PPG_1,87066.0,87066.0,201.39514437648177,-11.591027334469047,-0.5392785045397014
63112.12597563547,9.134950591556844,PPG_2,PPG_1,87119.0,87119.0,254.3573251181515,-11.376091621643635,-0.5292763400092689
63112.13606950353,9.145044459619385,PPG_2,PPG_1,87097.0,87097.0,232.31950585982122,-11.002236129288471,-0.5118787465801135
63112.14616337159,9.15513832767465,PPG_2,PPG_1,87096.0,87096.0,231.28168660149095,-10.50185200635866,-0.48859306613097586
63112.15625723964,9.165232195729914,PPG_2,PPG_1,87082.0,87082.0,217.24386734316067,-9.917669968602125,-0.4614077985895577
63112.1663511077,9.175326063785178,PPG_2,PPG_1,87109.0,87109.0,244.2060480848304,-9.299334710735675,-0.4326331901131554
63112.17644497576,9.18541993184772,PPG_2,PPG_1,87105.0,87105.0,240.16822882651468,-8.697812902566618,-0.40464100577644957
63112.18653884382,9.195513799902985,PPG_2,PPG_1,87106.0,87106.0,241.1304095681844,-8.157918840755281,-0.37951670621611117
63112.19663271187,9.205607667958247,PPG_2,PPG_1,87124.0,87124.0,259.09259030985413,-7.711605010275654,-0.35874721981488694
63112.20672657993,9.215701536013512,PPG_2,PPG_1,87079.0,87079.0,214.05477105152386,-7.375091641329206,-0.3430873648813025
63112.21682044799,9.225795404076052,PPG_2,PPG_1,87100.0,87100.0,235.01695179319358,-7.151061904804301,-0.332662004409673
63112.226914316045,9.235889272131317,PPG_2,PPG_1,87086.0,87086.0,220.9791325348633,-7.034148711685349,-0.3272213776381515
63112.2370081841,9.24598314018658,PPG_2,PPG_1,87093.0,87093.0,227.94131327653304,-7.0160111107720935,-0.32637733331374896
63112.247102052155,9.256077008241846,PPG_2,PPG_1,87101.0,87101.0,235.90349401820276,-7.087132126554131,-0.32968699317470124
63112.25719592022,9.266170876304386,PPG_2,PPG_1,87098.0,87098.0,232.8656747598725,-7.234832400172916,-0.33656031552074145
63112.26728978827,9.27626474435965,PPG_2,PPG_1,87105.0,87105.0,239.82785550154222,-7.438923243883227,-0.34605780745035614
63112.27738365633,9.286358612414915,PPG_2,PPG_1,87097.0,87097.0,231.79003624321194,-7.667242395184237,-0.35668277845560004
63112.28747752438,9.29645248047018,PPG_2,PPG_1,87112.0,87112.0,246.75221698488167,-7.873100237520774,-0.36626249874434696
63112.29757139244,9.306546348525444,PPG_2,PPG_1,87103.0,87103.0,237.7143977265514,-7.996161523659415,-0.3719892307755434
63112.3076652605,9.316640216587984,PPG_2,PPG_1,87075.0,87075.0,209.67657846822112,-7.967818596991754,-0.37067027539080377
63112.31775912856,9.326734084643247,PPG_2,PPG_1,87101.0,87101.0,235.63875920989085,-7.720646718642625,-0.35916798123016697
63112.32785299661,9.336827952698512,PPG_2,PPG_1,87089.0,87089.0,223.60093995156058,-7.199366671806667,-0.33490989621327627
63112.33794686467,9.346921820753778,PPG_2,PPG_1,87094.0,87094.0,228.5631206932303,-6.37040667750499,-0.29633373712292194
63112.34804073273,9.357015688816318,PPG_2,PPG_1,87065.0,87065.0,199.52530143490003,-5.2286212098410685,-0.24320005377218004
63112.358134600785,9.367109556871585,PPG_2,PPG_1,87109.0,87109.0,243.48748217656976,-3.8000403553928987,-0.17672017212113442
63112.36822846884,9.377203424926847,PPG_2,PPG_1,87107.0,87107.0,241.44966291823948,-2.1391871277687695,-0.0994313538729999
63112.378322336896,9.387297292982112,PPG_2,PPG_1,87100.0,87100.0,234.41184365992376,-0.32151619493998657,-0.014844928037354373
63112.38841620496,9.397391161044652,PPG_2,PPG_1,87097.0,87097.0,231.3740244015935,1.5657426920329145,0.07297981570058894
63112.39851007301,9.407485029099917,PPG_2,PPG_1,87091.0,87091.0,225.33620514326321,3.431686052100042,0.15981262838918828
63112.40860394107,9.41757889715518,PPG_2,PPG_1,87120.0,87120.0,254.29838588493294,5.189011825651388,0.2415908554207646
63112.41869780912,9.427672765210446,PPG_2,PPG_1,87104.0,87104.0,238.26056662660267,6.761474524352948,0.3147663664776757
63112.42879167719,9.437766633272986,PPG_2,PPG_1,87120.0,87120.0,254.2227473682724,8.090643059325117,0.3766200351896061
63112.43888554524,9.44786050132825,PPG_2,PPG_1,87090.0,87090.0,224.18492810994212,9.139778237419947,0.4254421807885225
63112.4489794133,9.457954369383517,PPG_2,PPG_1,87111.0,87111.0,245.14710885161185,9.893878547503594,0.4605346988012623
63112.45907328135,9.46804823743878,PPG_2,PPG_1,87090.0,87090.0,224.10928959328157,10.357251481376304,0.4820980409867873
63112.46916714941,9.478142105494044,PPG_2,PPG_1,87121.0,87121.0,255.0714703349513,10.550907227011512,0.4911099292609352
63112.47926101747,9.488235973556584,PPG_2,PPG_1,87103.0,87103.0,237.03365107662103,10.510931272766657,0.489249623840482
63112.489354885525,9.498329841611849,PPG_2,PPG_1,87108.0,87108.0,241.99583181829075,10.287083540917568,0.4788327330674842
63112.49944875358,9.508423709667111,PPG_2,PPG_1,87109.0,87109.0,242.95801255996048,9.94008583725933,0.46268498322150503
63112.50954262163,9.518517577722378,PPG_2,PPG_1,87082.0,87082.0,215.9201933016302,9.53694482235679,0.44392457013326175
63112.5196364897,9.528611445784918,PPG_2,PPG_1,87122.0,87122.0,255.88237404329993,9.14512288786277,0.4256908973576959
63112.52973035775,9.538705313840182,PPG_2,PPG_1,87089.0,87089.0,222.84455478496966,8.826961426457716,0.4108850596382046
63112.53982422581,9.548799181895449,PPG_2,PPG_1,87113.0,87113.0,246.8067355266394,8.634894683178885,0.40194711655817456
63112.549918093864,9.558893049950711,PPG_2,PPG_1,87090.0,87090.0,223.7689162683091,8.606907617768956,0.4006447213941774
63112.56001196193,9.568986918013252,PPG_2,PPG_1,87104.0,87104.0,237.73109700997884,8.76187504178869,0.40785622501787594
63112.57010582998,9.579080786068516,PPG_2,PPG_1,87089.0,87089.0,222.69327775164857,9.095327149954786,0.4233736223133456
63112.58019969804,9.58917465412378,PPG_2,PPG_1,87101.0,87101.0,234.65545849333284,9.576691366376426,0.4457741998089192
63112.59029356609,9.599268522179043,PPG_2,PPG_1,87091.0,87091.0,224.61763923500257,10.149015165321616,0.4724076369724392
63112.600387434155,9.609362390241586,PPG_2,PPG_1,87128.0,87128.0,261.5798199766723,10.731532426379333,0.49951543311448343
63112.61048130221,9.61945625829685,PPG_2,PPG_1,87065.0,87065.0,198.54200071834202,11.224210107879662,0.5224424896099348
63112.620575170266,9.629550126352116,PPG_2,PPG_1,87075.0,87075.0,208.50418146001175,11.513313032302042,0.5358960705820773
63112.63066903832,9.63964399440738,PPG_2,PPG_1,87100.0,87100.0,233.46636220168148,11.479661737642042,0.5343300870541339
63112.640762906376,9.649737862462644,PPG_2,PPG_1,87135.0,87135.0,268.4285429433512,11.012862634567007,0.5126073059944438
63112.65085677444,9.659831730525184,PPG_2,PPG_1,87119.0,87119.0,252.39072368502093,10.030327621061055,0.46688443968799626
63112.660950642494,9.669925598580448,PPG_2,PPG_1,87059.0,87059.0,192.35290442669066,8.49377564999763,0.3953800562511654
63112.67104451055,9.680019466635713,PPG_2,PPG_1,87100.0,87100.0,233.31508516836038,6.417244327243327,0.29874740423741564
63112.681138378604,9.690113334690976,PPG_2,PPG_1,87095.0,87095.0,228.2772659100301,3.8679210814691207,0.180113091631571
63112.69123224667,9.700207202753518,PPG_2,PPG_1,87110.0,87110.0,243.23944665169984,0.9639130631590964,0.044973306739583024
63112.70132611472,9.710301070808782,PPG_2,PPG_1,87098.0,87098.0,231.20162739336956,-2.131201627256782,-0.09905974373465294
63112.71141998278,9.720394938864048,PPG_2,PPG_1,87080.0,87080.0,213.1638081350393,-5.220942842946874,-0.24284273628412192
63112.72151385083,9.730488806919311,PPG_2,PPG_1,87046.0,87046.0,179.12598887670902,-8.097704784157008,-0.3767146083552037
63112.731607718895,9.740582674981852,PPG_2,PPG_1,87041.0,87041.0,174.08816961837874,-10.570379462188834,-0.4917820330972152
63112.74170158695,9.750676543037116,PPG_2,PPG_1,87057.0,87057.0,190.05035036004847,-12.48975997632934,-0.5811015763530802
63112.751795455006,9.76077041109238,PPG_2,PPG_1,87077.0,87077.0,210.0125311017182,-13.763771858440458,-0.6403884965725798
63112.76188932306,9.770864279147643,PPG_2,PPG_1,87071.0,87071.0,203.97471184338792,-14.360121191736669,-0.6681399766353069
63112.77198319112,9.780958147210184,PPG_2,PPG_1,87073.0,87073.0,205.93689258505765,-14.300196300279667,-0.6653513352506706
63112.78207705918,9.79105201526545,PPG_2,PPG_1,87053.0,87053.0,185.89907332674193,-13.649835306114642,-0.6350863895964407
63112.792170927234,9.801145883320714,PPG_2,PPG_1,87070.0,87070.0,202.86125406841165,-12.50987099756894,-0.5820374549963697
63112.80226479529,9.81123975137598,PPG_2,PPG_1,87053.0,87053.0,185.82343481008138,-11.006095587422676,-0.5120583488190769
63112.812358663345,9.821333619431243,PPG_2,PPG_1,87081.0,87081.0,213.7856155517511,-9.277294843001359,-0.4316075514214287
63112.82245253141,9.831427487493784,PPG_2,PPG_1,87083.0,87083.0,215.74779629342083,-7.461284454205136,-0.3470984000154503
63112.83254639946,9.841521355549048,PPG_2,PPG_1,87066.0,87066.0,198.70997703509056,-5.68099835453362,-0.2642517001995821
63112.84264026752,9.851615223604313,PPG_2,PPG_1,87085.0,87085.0,217.6721577767603,-4.0336276912712155,-0.18759030130984736
63112.85273413557,9.861709091659575,PPG_2,PPG_1,87077.0,87077.0,209.63433851843,-2.5846437816973586,-0.12016095104045083
63112.862828003636,9.871802959722118,PPG_2,PPG_1,87066.0,87066.0,198.59651926009974,-1.3668923675977576,-0.06349214602485616
63112.87292187169,9.881896827777382,PPG_2,PPG_1,87068.0,87068.0,200.55870000176947,-0.3839908507051724,-0.017752224259704845
63112.883015739746,9.891990695832646,PPG_2,PPG_1,87095.0,87095.0,227.5208807434392,0.38357694632158906,0.01796701147456088
63112.8931096078,9.902084563887913,PPG_2,PPG_1,87072.0,87072.0,204.48306148510892,0.9710407835672493,0.04530499955745911
63112.903203475864,9.912178431950451,PPG_2,PPG_1,87047.0,87047.0,179.44524222677865,1.4204719094240028,0.06621955120094622
63112.91329734392,9.922272300005716,PPG_2,PPG_1,87063.0,87063.0,195.40742296844837,1.7709087612849665,0.08252734390679276
