timestamp,time_from_segment_start_sec,selected_channel_name,backup_channel_name,selected_channel_raw,selected_channel_clipped,selected_channel_detrended,selected_channel_filtered,selected_channel_filtered_z
63102.98690737315,0.0,PPG_1,PPG_2,128649.0,128649.0,380.3140918551944,1.5133424849625121,0.05036217917099884
63102.99695802272,0.0100506495655281,PPG_1,PPG_2,128673.0,128673.0,404.34237198746996,6.244091272260633,0.20864193627817024
63103.00700867229,0.0201012991383322,PPG_1,PPG_2,128697.0,128697.0,428.37065211976005,10.730579404481436,0.3587493048492433
63103.01705932186,0.0301519487038604,PPG_1,PPG_2,128685.0,128685.0,416.39893225205014,14.785618785621882,0.4944214102948368
63103.02710997143,0.0402025982766645,PPG_1,PPG_2,128705.0,128705.0,436.4272123843257,18.28751193533753,0.6115865403986541
63103.037160620996,0.0502532478421926,PPG_1,PPG_2,128678.0,128678.0,409.4554925166158,21.19090869332612,0.7087273851786715
63103.04721127056,0.0603038974077208,PPG_1,PPG_2,128663.0,128663.0,394.48377264890587,23.519457323131864,0.7866351600593554
63103.057261920134,0.0703545469805249,PPG_1,PPG_2,128644.0,128644.0,375.5120527811814,25.344009913135586,0.8476804097142174
63103.0673125697,0.080405196546053,PPG_1,PPG_2,128642.0,128642.0,373.5403329134715,26.754926086460173,0.894886355168772
63103.07736321927,0.0904558461188571,PPG_1,PPG_2,128680.0,128680.0,411.5686130457616,27.83896068679767,0.9311556099848122
63103.08741386884,0.1005064956843853,PPG_1,PPG_2,128707.0,128707.0,438.59689317803713,28.667792812134554,0.958886388637269
63103.0974645184,0.1105571452499134,PPG_1,PPG_2,128670.0,128670.0,401.6251733103272,29.29769496497468,0.9799614370567734
63103.107515167976,0.1206077948227175,PPG_1,PPG_2,128710.0,128710.0,441.6534534426173,29.774119019279606,0.9959014683257906
63103.11756581754,0.1306584443882457,PPG_1,PPG_2,128694.0,128694.0,425.68173357489286,30.135210101704406,1.0079827289019636
63103.12761646711,0.1407090939537738,PPG_1,PPG_2,128667.0,128667.0,398.71001370718295,30.411483378206157,1.0172261846562216
63103.13766711668,0.1507597435265779,PPG_1,PPG_2,128667.0,128667.0,398.73829383947304,30.621837443216787,1.0242641382262323
63103.147717766245,0.1608103930921061,PPG_1,PPG_2,128703.0,128703.0,434.7665739717486,30.76904382313524,1.0291893183839016
63103.15776841582,0.1708610426649102,PPG_1,PPG_2,128681.0,128681.0,412.7948541040387,30.838695847051877,1.0315197117155341
63103.167819065384,0.1809116922304383,PPG_1,PPG_2,128684.0,128684.0,415.82313423632877,30.802517355947607,1.0303092642701186
63103.17786971495,0.1909623417959665,PPG_1,PPG_2,128698.0,128698.0,429.8514143686043,30.624131582971547,1.0243408947608696
63103.18792036452,0.2010129913687706,PPG_1,PPG_2,128708.0,128708.0,439.8796945008944,30.265486873983527,1.0123414841012273
63103.19797101409,0.2110636409342987,PPG_1,PPG_2,128678.0,128678.0,409.9079746331845,29.69226780083608,0.9931629185619665
63103.20802166366,0.2211142905071028,PPG_1,PPG_2,128666.0,128666.0,397.93625476546003,28.876594770139434,0.9658724123477754
63103.218072313226,0.231164940072631,PPG_1,PPG_2,128718.0,128718.0,449.9645348977501,27.797525140987855,0.929769273820865
63103.22812296279,0.2412155896381591,PPG_1,PPG_2,128672.0,128672.0,403.9928150300402,26.441701156920917,0.8844065837844836
63103.23817361237,0.2512662392109632,PPG_1,PPG_2,128666.0,128666.0,398.02109516231576,24.804978180570952,0.8296456723947336
63103.24822426193,0.2613168887764914,PPG_1,PPG_2,128690.0,128690.0,422.04937529460585,22.894747233452257,0.7657338258937422
63103.2582749115,0.2713675383492955,PPG_1,PPG_2,128700.0,128700.0,432.07765542689594,20.733885648101815,0.6934364661629111
63103.26832556107,0.2814181879148236,PPG_1,PPG_2,128682.0,128682.0,414.1059355591715,18.366406228261518,0.6142261583709038
63103.278376210634,0.2914688374803518,PPG_1,PPG_2,128689.0,128689.0,421.1342156914616,15.861839210952319,0.5304292211455092
63103.28842686021,0.3015194870531559,PPG_1,PPG_2,128680.0,128680.0,412.16249582375167,13.3150745634444,0.44522045020020007
63103.29847750977,0.311570136618684,PPG_1,PPG_2,128671.0,128671.0,403.1907759560272,10.84084574471709,0.362438557932488
63103.308528159345,0.3216207861914881,PPG_1,PPG_2,128686.0,128686.0,418.2190560883173,8.56388179285413,0.2862566853692466
63103.31857880891,0.3316714357570163,PPG_1,PPG_2,128677.0,128677.0,409.2473362206074,6.606026783070398,0.2207514494472574
63103.32862945848,0.3417220853225444,PPG_1,PPG_2,128670.0,128670.0,402.27561635288293,5.070974517847049,0.16939220155425494
63103.33868010805,0.3517727348953485,PPG_1,PPG_2,128630.0,128630.0,362.303896485173,4.027273439206802,0.13447241176046626
63103.348730757614,0.3618233844608767,PPG_1,PPG_2,128650.0,128650.0,382.3321766174631,3.4926367543522567,0.1165847224275285
63103.35878140718,0.3718740340264048,PPG_1,PPG_2,128671.0,128671.0,403.36045674973866,3.425429588476942,0.11433612831084923
63103.36883205675,0.3819246835992089,PPG_1,PPG_2,128678.0,128678.0,410.38873688202875,3.7278690826312655,0.12445504432746193
63103.37888270632,0.3919753331647371,PPG_1,PPG_2,128671.0,128671.0,403.41701701431884,4.259873074750659,0.14225464993721057
63103.38893335589,0.4020259827375412,PPG_1,PPG_2,128666.0,128666.0,398.4452971465944,4.85845645893533,0.16228184582457653
63103.39898400546,0.4120766323030693,PPG_1,PPG_2,128696.0,128696.0,428.4735772788845,5.358344799354096,0.1790069370648109
63103.40903465502,0.4221272818685975,PPG_1,PPG_2,128674.0,128674.0,406.50185741117457,5.6115668000983066,0.18747915120554032
63103.419085304595,0.4321779314414016,PPG_1,PPG_2,128670.0,128670.0,402.5301375434501,5.504070863428869,0.18388258932685222
63103.42913595416,0.4422285810069297,PPG_1,PPG_2,128689.0,128689.0,421.5584176757402,4.967660124003367,0.16593554428951945
63103.43918660373,0.4522792305797338,PPG_1,PPG_2,128700.0,128700.0,432.5866978080303,3.986652293888884,0.13311332352657015
63103.4492372533,0.462329880145262,PPG_1,PPG_2,128666.0,128666.0,398.61497794030583,2.5983650199607924,0.08666448796330731
63103.459287902864,0.4723805297107901,PPG_1,PPG_2,128659.0,128659.0,391.6432580725959,0.8858381788546392,0.029367357078324646
63103.46933855244,0.4824311792835942,PPG_1,PPG_2,128681.0,128681.0,413.671538204886,-1.0365445052895907,-0.03495105803818834
63103.479389202,0.4924818288491224,PPG_1,PPG_2,128658.0,128658.0,390.69981833716156,-3.040887698812428,-0.1020116795368405
63103.489439851575,0.5025324784219265,PPG_1,PPG_2,128662.0,128662.0,394.72809846945165,-5.00370085099401,-0.16768280327272958
63103.49949050114,0.5125831279874546,PPG_1,PPG_2,128640.0,128640.0,372.75637860174174,-6.822093932978212,-0.22852197023813517
63103.509541150706,0.5226337775529828,PPG_1,PPG_2,128654.0,128654.0,386.7846587340173,-8.426054056258826,-0.28218671341876805
63103.51959180028,0.5326844271257869,PPG_1,PPG_2,128662.0,128662.0,394.8129388663074,-9.78382267105072,-0.32761446623752255
63103.529642449845,0.542735076691315,PPG_1,PPG_2,128663.0,128663.0,395.84121899859747,-10.8989074939667,-0.36492258866391686
63103.53969309942,0.5527857262641191,PPG_1,PPG_2,128646.0,128646.0,378.869499130873,-11.80015963088623,-0.39507637102220905
63103.54974374898,0.5628363758296473,PPG_1,PPG_2,128694.0,128694.0,426.8977792631631,-12.527823386451747,-0.41942229334128067
63103.55979439855,0.5728870253951754,PPG_1,PPG_2,128666.0,128666.0,398.9260593954532,-13.118590071803876,-0.43918796082199846
63103.56984504812,0.5829376749679795,PPG_1,PPG_2,128681.0,128681.0,413.95433952772873,-13.593456287353975,-0.4550758704606328
63103.57989569769,0.5929883245335077,PPG_1,PPG_2,128662.0,128662.0,394.9826196600188,-13.952499963226819,-0.4670886296163513
63103.58994634725,0.6030389740990358,PPG_1,PPG_2,128652.0,128652.0,385.0108997923089,-14.178420599249154,-0.4746474041365971
63103.599996996825,0.61308962367184,PPG_1,PPG_2,128638.0,128638.0,371.03917992458446,-14.246975176950237,-0.4769410794922292
63103.61004764639,0.6231402732373681,PPG_1,PPG_2,128671.0,128671.0,404.06746005687455,-14.139691586506935,-0.47335162222014915
63103.62009829596,0.6331909228101722,PPG_1,PPG_2,128628.0,128628.0,361.09574018916464,-13.85402811534168,-0.4637939925798208
63103.63014894553,0.6432415723757003,PPG_1,PPG_2,128661.0,128661.0,394.1240203214402,-13.408091604857265,-0.4488740030098388
63103.640199595095,0.6532922219412285,PPG_1,PPG_2,128664.0,128664.0,397.1523004537303,-12.838840693222707,-0.4298282028463486
63103.65025024467,0.6633428715140326,PPG_1,PPG_2,128673.0,128673.0,406.18058058602037,-12.194143884744902,-0.4082581599542771
63103.66030089423,0.6733935210795607,PPG_1,PPG_2,128689.0,128689.0,422.2088607182959,-11.521480378701547,-0.3857524169655
63103.670351543806,0.6834441706523648,PPG_1,PPG_2,128639.0,128639.0,372.237140850586,-10.85788783637929,-0.3635501671443073
63103.68040219337,0.693494820217893,PPG_1,PPG_2,128679.0,128679.0,412.2654209828761,-10.224356445266142,-0.3423536929255975
63103.69045284294,0.7035454697834211,PPG_1,PPG_2,128676.0,128676.0,409.29370111515163,-9.624456763158403,-0.3222824567974765
63103.70050349251,0.7135961193562252,PPG_1,PPG_2,128671.0,128671.0,404.3219812474417,-9.045740757417498,-0.3029199767882563
63103.710554142075,0.7236467689217534,PPG_1,PPG_2,128657.0,128657.0,390.3502613797318,-8.463972922774678,-0.28345538974291
63103.72060479165,0.7336974184945575,PPG_1,PPG_2,128641.0,128641.0,374.37854151200736,-7.85024597178038,-0.2629215256336339
63103.73065544121,0.7437480680600856,PPG_1,PPG_2,128674.0,128674.0,407.40682164429745,-7.178242173037545,-0.24043785490360123
63103.74070609078,0.7537987176256138,PPG_1,PPG_2,128671.0,128671.0,404.43510177658754,-6.427614496410462,-0.21532361365421315
63103.75075674035,0.7638493671984179,PPG_1,PPG_2,128692.0,128692.0,425.4633819088631,-5.582361150936018,-0.18704341949659253
63103.76080738992,0.773900016763946,PPG_1,PPG_2,128681.0,128681.0,414.4916620411532,-4.627327735377008,-0.15509024171429775
63103.77085803949,0.7839506663367501,PPG_1,PPG_2,128647.0,128647.0,380.51994217344327,-3.547232347939601,-0.11895278372135114
63103.780908689056,0.7940013159022783,PPG_1,PPG_2,128674.0,128674.0,407.5482223057188,-2.3296251793615546,-0.07821450410440411
63103.79095933862,0.8040519654678064,PPG_1,PPG_2,128672.0,128672.0,405.5765024380089,-0.9690045299797657,-0.032691328898529465
63103.801009988194,0.8141026150406105,PPG_1,PPG_2,128690.0,128690.0,423.604782570299,0.5314320617956355,0.01750975976180498
63103.81106063776,0.8241532646061387,PPG_1,PPG_2,128700.0,128700.0,433.63306270257453,2.1605664811995715,0.07201677583725781
63103.821111287325,0.8342039141716668,PPG_1,PPG_2,128685.0,128685.0,418.6613428348646,3.8994032826620715,0.13019417627827418
63103.8311619369,0.8442545637444709,PPG_1,PPG_2,128672.0,128672.0,405.6896229671547,5.716892237349735,0.19100309326522513
63103.84121258646,0.8543052133099991,PPG_1,PPG_2,128659.0,128659.0,392.71790309943026,7.561250353493257,0.25271098936523434
63103.85126323603,0.8643558628828032,PPG_1,PPG_2,128651.0,128651.0,384.74618323172035,9.351074236297926,0.31259429794326915
63103.8613138856,0.8744065124483313,PPG_1,PPG_2,128668.0,128668.0,401.77446336401044,10.973245624890302,0.36686834734153495
63103.87136453517,0.8844571620138595,PPG_1,PPG_2,128721.0,128721.0,454.802743496286,12.293127285503834,0.41102849154810045
63103.88141518474,0.8945078115866636,PPG_1,PPG_2,128700.0,128700.0,433.8310236285761,13.176633404692067,0.4405885337814317
63103.891465834306,0.9045584611521916,PPG_1,PPG_2,128715.0,128715.0,448.85930376086617,13.516899670717939,0.4519730448514221
63103.90151648388,0.9146091107249958,PPG_1,PPG_2,128677.0,128677.0,410.8875838931417,13.256311293392832,0.4432543690302258
63103.91156713344,0.924659760290524,PPG_1,PPG_2,128716.0,128716.0,449.9158640254318,12.398825496480534,0.4145649057421861
63103.92161778301,0.934710409856052,PPG_1,PPG_2,128709.0,128709.0,442.9441441577219,11.012286752511185,0.36817457188966884
63103.93166843258,0.9447610594288562,PPG_1,PPG_2,128664.0,128664.0,397.97242428999743,9.221389785446616,0.3082553604295219
63103.94171908215,0.9548117089943844,PPG_1,PPG_2,128691.0,128691.0,425.0007044222875,7.191765554769962,0.24034889473156085
63103.95176973172,0.9648623585671884,PPG_1,PPG_2,128667.0,128667.0,401.0289845545776,5.107874653522615,0.17062679353420365
63103.961820381286,0.9749130081327166,PPG_1,PPG_2,128665.0,128665.0,399.05726468685316,3.1496012800681634,0.10510756014518302
63103.97187103085,0.9849636576982448,PPG_1,PPG_2,128672.0,128672.0,406.08554481914325,1.4719655172211892,0.04897780289181191
63103.981921680424,0.9950143072710488,PPG_1,PPG_2,128672.0,128672.0,406.11382495143334,0.19076029307759218,0.006111681522956325
63103.99197232999,1.005064956836577,PPG_1,PPG_2,128666.0,128666.0,400.1421050837089,-0.624682866013803,-0.021171133726552077
63104.00202297956,1.0151156064093811,PPG_1,PPG_2,128677.0,128677.0,411.170385215999,-0.9519374623303168,-0.032120304850636765
63104.01207362913,1.0251662559749093,PPG_1,PPG_2,128675.0,128675.0,409.19866534828907,-0.8102658637319465,-0.027380305492534805
63104.022124278694,1.0352169055404374,PPG_1,PPG_2,128685.0,128685.0,419.2269454805646,-0.25126157798125975,-0.008677333394745669
63104.03217492827,1.0452675551132415,PPG_1,PPG_2,128679.0,128679.0,413.2552256128547,0.6525163028285926,0.021560954429266595
63104.04222557783,1.0553182046787697,PPG_1,PPG_2,128680.0,128680.0,414.2835057451448,1.8185750584690212,0.060574545070774234
63104.052276227405,1.0653688542515738,PPG_1,PPG_2,128692.0,128692.0,426.31178587742033,3.1635012650917376,0.10557262103770637
63104.06232687697,1.075419503817102,PPG_1,PPG_2,128695.0,128695.0,429.3400660097104,4.608916084380081,0.1539328102598292
63104.072377526536,1.08547015338263,PPG_1,PPG_2,128674.0,128674.0,408.3683461420005,6.083261604279919,0.2032609528592318
63104.08242817611,1.0955208029554342,PPG_1,PPG_2,128654.0,128654.0,388.39662627427606,7.518961566241366,0.25129610574415556
63104.092478825674,1.1055714525209623,PPG_1,PPG_2,128660.0,128660.0,394.42490640656615,8.847537917080407,0.29574715388979955
63104.10252947524,1.1156221020864905,PPG_1,PPG_2,128693.0,128693.0,427.45318653885624,9.998344224763308,0.33425043340159993
63104.11258012481,1.1256727516592946,PPG_1,PPG_2,128736.0,128736.0,470.4814666711318,10.904804145235723,0.3645784559812352
63104.12263077438,1.1357234012248227,PPG_1,PPG_2,128669.0,128669.0,403.5097468034219,11.51521994255417,0.3850015366557694
63104.13268142395,1.1457740507976268,PPG_1,PPG_2,128668.0,128668.0,402.53802693571197,11.800830142919798,0.3945573839801041
63104.14273207352,1.155824700363155,PPG_1,PPG_2,128701.0,128701.0,435.5663070679875,11.75773761859284,0.3931156092018873
63104.15278272308,1.1658753499286831,PPG_1,PPG_2,128679.0,128679.0,413.5945872002776,11.405709321078312,0.3813375681494743
63104.162833372655,1.1759259995014872,PPG_1,PPG_2,128708.0,128708.0,442.6228673325677,10.786938186469287,0.3606349374890157
63104.17288402222,1.1859766490670154,PPG_1,PPG_2,128695.0,128695.0,429.65114746484323,9.963724376195955,0.3330921344792306
63104.18293467179,1.1960272986398195,PPG_1,PPG_2,128681.0,128681.0,415.6794275971333,9.012125149582843,0.3012538566031993
63104.19298532136,1.2060779482053476,PPG_1,PPG_2,128671.0,128671.0,405.7077077294234,8.010130607697477,0.2677294696946934
63104.20303597093,1.2161285977708758,PPG_1,PPG_2,128659.0,128659.0,393.73598786169896,7.0222454024260506,0.23467714809183085
63104.2130866205,1.22617924734368,PPG_1,PPG_2,128664.0,128664.0,398.76426799398905,6.0853626536494545,0.203331249042528
63104.22313727006,1.236229896909208,PPG_1,PPG_2,128658.0,128658.0,392.79254812627914,5.20136770895344,0.17375485185438552
63104.233187919635,1.246280546482012,PPG_1,PPG_2,128674.0,128674.0,408.8208282585547,4.339972920561605,0.144934602881091
63104.2432385692,1.2563311960475405,PPG_1,PPG_2,128729.0,128729.0,463.8491083908448,3.451828753260212,0.11521938243775343
63104.25328921877,1.2663818456130684,PPG_1,PPG_2,128684.0,128684.0,418.87738852313487,2.4871934213363858,0.0829449470579157
63104.26333986834,1.2764324951858723,PPG_1,PPG_2,128665.0,128665.0,399.9056686554104,1.4118331211253385,0.04696591397607024
63104.273390517905,1.286483144751401,PPG_1,PPG_2,128689.0,128689.0,423.9339487877005,0.2140332446686389,0.006890339889870302
63104.28344116747,1.2965337943169288,PPG_1,PPG_2,128649.0,128649.0,383.9622289199906,-1.0968389590157088,-0.036968369022086535
63104.29349181704,1.306584443889733,PPG_1,PPG_2,128674.0,128674.0,408.99050905226613,-2.4959455359761282,-0.08377919308506081
63104.30354246661,1.316635093455261,PPG_1,PPG_2,128659.0,128659.0,394.0187891845562,-3.9490027298351986,-0.1323950782329585
63104.31359311618,1.3266857430280652,PPG_1,PPG_2,128682.0,128682.0,417.0470693168463,-5.416674341714801,-0.18149992752555208
63104.32364376575,1.3367363925935931,PPG_1,PPG_2,128658.0,128658.0,393.07534944912186,-6.857200224722629,-0.22969654440811837
63104.33369441531,1.3467870421591217,PPG_1,PPG_2,128656.0,128656.0,391.10362958141195,-8.228500679806583,-0.27557704086026785
63104.343745064885,1.3568376917319256,PPG_1,PPG_2,128656.0,128656.0,391.13190971370204,-9.490310747706578,-0.31779424579806387
63104.35379571445,1.3668883412974535,PPG_1,PPG_2,128676.0,128676.0,411.1601898459776,-10.60531392759403,-0.3550996366402405
63104.36384636402,1.3769389908702578,PPG_1,PPG_2,128698.0,128698.0,433.1884699782677,-11.538908467880127,-0.3863355199468788
63104.37389701359,1.386989640435786,PPG_1,PPG_2,128646.0,128646.0,381.21675011055777,-12.260378928331141,-0.41047422913955306
63104.383947663155,1.397040290001314,PPG_1,PPG_2,128627.0,128627.0,362.2450302428333,-12.749228042817318,-0.42682997377572496
63104.39399831273,1.4070909395741182,PPG_1,PPG_2,128654.0,128654.0,389.2733103751234,-13.005796348789678,-0.43541414743967827
63104.40404896229,1.4171415891396464,PPG_1,PPG_2,128635.0,128635.0,370.3015905074135,-13.05974735343801,-0.4372192214977964
63104.414099611866,1.4271922387124505,PPG_1,PPG_2,128666.0,128666.0,401.32987063968903,-12.970371197463837,-0.43422890497607636
63104.42415026143,1.4372428882779786,PPG_1,PPG_2,128672.0,128672.0,407.3581507719791,-12.817776661096131,-0.42912344974306743
63104.434200911,1.4472935378435068,PPG_1,PPG_2,128660.0,128660.0,395.3864309042692,-12.68852669417641,-0.42479904904246557
63104.44425156057,1.4573441874163109,PPG_1,PPG_2,128672.0,128672.0,407.41471103654476,-12.66087738356314,-0.4238739679686619
63104.454302210135,1.467394836981839,PPG_1,PPG_2,128647.0,128647.0,382.44299116883485,-12.793536516158813,-0.4283124313556141
63104.46435285971,1.4774454865546431,PPG_1,PPG_2,128661.0,128661.0,396.47127130112494,-13.11906110796729,-0.43920372058707713
63104.47440350927,1.4874961361201713,PPG_1,PPG_2,128662.0,128662.0,397.4995514334005,-13.6408884808713,-0.45666284039003174
63104.48445415884,1.4975467856856994,PPG_1,PPG_2,128663.0,128663.0,398.5278315656906,-14.332837492736417,-0.47981383116396986
63104.49450480841,1.5075974352585035,PPG_1,PPG_2,128656.0,128656.0,391.55611169798067,-15.141168567736642,-0.5068586927632023
63104.50455545798,1.5176480848240317,PPG_1,PPG_2,128660.0,128660.0,395.5843918302562,-15.990043132992993,-0.5352600444401253
63104.51460610755,1.5276987343968358,PPG_1,PPG_2,128637.0,128637.0,372.6126719625463,-16.790460057019427,-0.5620401171126652
63104.52465675712,1.537749383962364,PPG_1,PPG_2,128654.0,128654.0,389.6409520948364,-17.451284628503494,-0.5841497571226744
63104.53470740668,1.547800033527892,PPG_1,PPG_2,128662.0,128662.0,397.66923222711193,-17.890147993894093,-0.5988330958498893
63104.544758056254,1.5578506831006962,PPG_1,PPG_2,128631.0,128631.0,366.697512359402,-18.04269694881472,-0.6039370260346032
63104.55480870582,1.5679013326662243,PPG_1,PPG_2,128660.0,128660.0,395.7257924916921,-17.86992117182834,-0.5981563538313291
63104.564859355385,1.5779519822317525,PPG_1,PPG_2,128634.0,128634.0,369.75407262396766,-17.363166465971112,-0.5812015301105354
63104.57491000496,1.5880026318045566,PPG_1,PPG_2,128638.0,128638.0,373.78235275625775,-16.545525565298693,-0.5538451835831535
63104.58496065452,1.5980532813700847,PPG_1,PPG_2,128668.0,128668.0,403.81063288854784,-15.46815330709294,-0.5177988351064244
63104.595011304096,1.6081039309428888,PPG_1,PPG_2,128664.0,128664.0,399.8389130208234,-14.201249103127907,-0.47541119232563617
63104.60506195366,1.618154580508417,PPG_1,PPG_2,128641.0,128641.0,376.8671931531135,-12.821825792169195,-0.42925892417038436
63104.61511260323,1.6282052300739451,PPG_1,PPG_2,128670.0,128670.0,405.89547328540357,-11.401512869314994,-0.3817385855193156
63104.6251632528,1.6382558796467492,PPG_1,PPG_2,128666.0,128666.0,401.9237534176791,-9.99606415283541,-0.3347155683453209
63104.635213902366,1.6483065292122774,PPG_1,PPG_2,128665.0,128665.0,400.9520335499692,-8.637061480196898,-0.28924652684585195
63104.64526455194,1.6583571787850817,PPG_1,PPG_2,128706.0,128706.0,441.9803136822593,-7.327384165666449,-0.24542779612203244
63104.655315201504,1.6684078283506096,PPG_1,PPG_2,128651.0,128651.0,387.00859381453483,-6.043302128330082,-0.20246542333212977
63104.66536585107,1.6784584779161378,PPG_1,PPG_2,128640.0,128640.0,376.0368739468249,-4.745329253782633,-0.1590382957140509
63104.67541650064,1.688509127488942,PPG_1,PPG_2,128648.0,128648.0,384.065154079115,-3.395918146247368,-0.11389016548319465
63104.68546715021,1.69855977705447,PPG_1,PPG_2,128663.0,128663.0,399.09343421139056,-1.977204558260415,-0.0664233368250895
63104.69551779978,1.708610426627274,PPG_1,PPG_2,128657.0,128657.0,393.12171434368065,-0.5020037742699848,-0.01706657909548067
63104.705568449346,1.7186610761928025,PPG_1,PPG_2,128649.0,128649.0,385.14999447597074,0.9842450885533074,0.0326598214354668
63104.71561909891,1.7287117257583304,PPG_1,PPG_2,128680.0,128680.0,416.1782746082463,2.4098056011081703,0.08035573212820664
63104.725669748485,1.7387623753311343,PPG_1,PPG_2,128673.0,128673.0,409.2065547405364,3.6899535988732466,0.12318648118246187
63104.73572039805,1.748813024896663,PPG_1,PPG_2,128697.0,128697.0,433.23483487282647,4.744793415569476,0.15847894702252785
63104.745771047616,1.7588636744621908,PPG_1,PPG_2,128685.0,128685.0,421.263115005102,5.517009231110425,0.1843154767588584
63104.75582169719,1.768914324034995,PPG_1,PPG_2,128694.0,128694.0,430.2913951373921,5.984371914869011,0.19995233582541513
63104.765872346754,1.778964973600523,PPG_1,PPG_2,128683.0,128683.0,419.3196752696822,6.163296931994754,0.2059387471789619
63104.77592299633,1.7890156231733272,PPG_1,PPG_2,128642.0,128642.0,378.34795540195773,6.102490868587761,0.20390431893526753
63104.78597364589,1.799066272738855,PPG_1,PPG_2,128670.0,128670.0,406.3762355342478,5.869399496344209,0.1961056284020596
63104.79602429546,1.8091169223043837,PPG_1,PPG_2,128674.0,128674.0,410.4045156665379,5.535244153246476,0.18492557447833818
63104.80607494503,1.8191675718771876,PPG_1,PPG_2,128670.0,128670.0,406.43279579881346,5.16374653884331,0.17249613575364753
63104.81612559459,1.8292182214427155,PPG_1,PPG_2,128666.0,128666.0,402.46107593110355,4.804701731475258,0.1604833387407536
63104.82617624417,1.83926887101552,PPG_1,PPG_2,128658.0,128658.0,394.48935606339364,4.49124473804142,0.1499958030429242
63104.836226893734,1.849319520581048,PPG_1,PPG_2,128672.0,128672.0,408.5176361956692,4.240613774165184,0.14161027891778386
63104.8462775433,1.859370170146576,PPG_1,PPG_2,128679.0,128679.0,415.5459163279593,4.0591440442494235,0.13553872744363019
63104.85632819287,1.86942081971938,PPG_1,PPG_2,128689.0,128689.0,425.57419646024937,3.9508238293859046,0.13191458715014687
63104.86637884244,1.8794714692849084,PPG_1,PPG_2,128691.0,128691.0,427.6024765925249,3.926203985851979,0.13109086493834202
63104.87642949201,1.8895221188577125,PPG_1,PPG_2,128654.0,128654.0,390.630756724815,4.0074092135827355,0.13380780136827186
63104.88648014158,1.8995727684232409,PPG_1,PPG_2,128671.0,128671.0,407.6590368571051,4.227126761508579,0.14115903511191524
63104.89653079114,1.9096234179887688,PPG_1,PPG_2,128682.0,128682.0,418.6873169893952,4.623288672767535,0.15441368335228242
63104.906581440715,1.9196740675615729,PPG_1,PPG_2,128682.0,128682.0,418.7155971216707,5.232548645387363,0.17479809284371614
63104.91663209028,1.929724717127101,PPG_1,PPG_2,128639.0,128639.0,375.7438772539608,6.08364565060936,0.20327380214852506
63104.92668273985,1.9397753666999051,PPG_1,PPG_2,128674.0,128674.0,410.7721573862509,7.190967416764577,0.24032219090616022
63104.93673338942,1.9498260162654333,PPG_1,PPG_2,128681.0,128681.0,417.80043751852645,8.550709351092724,0.2858159663676159
63104.946784038984,1.9598766658309617,PPG_1,PPG_2,128691.0,128691.0,427.82871765081654,10.142031342703683,0.33905786730891196
63104.95683468856,1.9699273154037655,PPG_1,PPG_2,128686.0,128686.0,422.85699778310664,11.9318213610885,0.39894004286289714
63104.96688533812,1.9799779649692937,PPG_1,PPG_2,128689.0,128689.0,425.8852779153822,13.879006879448276,0.4640883026301654
63104.976935987695,1.9900286145420976,PPG_1,PPG_2,128680.0,128680.0,416.91355804767227,15.935582483178102,0.53289649804838
63104.98698663726,2.000079264107626,PPG_1,PPG_2,128674.0,128674.0,410.94183817996236,18.044353853858603,0.603451041388758
63104.99703728683,2.010129913673154,PPG_1,PPG_2,128675.0,128675.0,411.9701183122379,20.135658604926157,0.6734211926098076
63105.0070879364,2.020180563245958,PPG_1,PPG_2,128688.0,128688.0,424.998398444528,22.12638027948276,0.7400260700369937
63105.017138585965,2.0302312128114863,PPG_1,PPG_2,128701.0,128701.0,438.0266785768181,23.923704730936457,0.8001603300473095
63105.02718923553,2.0402818623770145,PPG_1,PPG_2,128712.0,128712.0,449.0549587090936,25.433226796917975,0.8506653973620186
63105.0372398851,2.0503325119498186,PPG_1,PPG_2,128690.0,128690.0,427.0832388413837,26.568089076615813,0.8886352270986879
63105.04729053467,2.0603831615153467,PPG_1,PPG_2,128700.0,128700.0,437.1115189736738,27.255423390547275,0.9116318209048516
63105.05734118424,2.070433811088151,PPG_1,PPG_2,128707.0,128707.0,444.13979910594935,27.438654711275944,0.9177623110752933
63105.06739183381,2.080484460653679,PPG_1,PPG_2,128646.0,128646.0,383.16807923823944,27.07669553888178,0.9056520062450971
63105.07744248337,2.090535110219207,PPG_1,PPG_2,128727.0,128727.0,464.19635937052954,26.142515496781108,0.874396533421204
63105.087493132945,2.1005857597920112,PPG_1,PPG_2,128692.0,128692.0,429.2246395028051,24.62387234484922,0.823586295966695
63105.09754378251,2.1106364093575394,PPG_1,PPG_2,128673.0,128673.0,410.25291963509517,22.526807747835214,0.7534234338116329
63105.10759443208,2.1206870589303435,PPG_1,PPG_2,128709.0,128709.0,446.28119976738526,19.87992555422325,0.6648649646278415
63105.11764508165,2.1307377084958716,PPG_1,PPG_2,128690.0,128690.0,427.3094798996608,16.737830106794608,0.5597378216347774
63105.127695731215,2.1407883580614,PPG_1,PPG_2,128692.0,128692.0,429.3377600319509,13.182849305484954,0.4407965032407998
63105.13774638079,2.150839007634204,PPG_1,PPG_2,128677.0,128677.0,414.366040164241,9.323350209010568,0.3116667170248197
63105.14779703035,2.160889657199732,PPG_1,PPG_2,128661.0,128661.0,398.3943202965165,5.287578039340252,0.1766392472782962
63105.157847679926,2.170940306772536,PPG_1,PPG_2,128688.0,128688.0,425.4226004288066,1.214344916500644,0.04035842191404073
63105.16789832949,2.1809909563380643,PPG_1,PPG_2,128654.0,128654.0,391.4508805610967,-2.7570877563404386,-0.0925163991951526
63105.17794897906,2.1910416059035924,PPG_1,PPG_2,128661.0,128661.0,398.47916069337225,-6.496639470062926,-0.21763302735493106
63105.18799962863,2.2010922554763965,PPG_1,PPG_2,128651.0,128651.0,388.50744082566234,-9.891976908800604,-0.3312330533261301
63105.198050278195,2.2111429050419247,PPG_1,PPG_2,128651.0,128651.0,388.53572095795244,-12.854796188445336,-0.43036203628834896
63105.20810092776,2.221193554607453,PPG_1,PPG_2,128666.0,128666.0,403.564001090228,-15.323440346073523,-0.5129570788960942
63105.21815157733,2.231244204180257,PPG_1,PPG_2,128657.0,128657.0,394.59228122251807,-17.26192116285113,-0.5778140997677746
63105.2282022269,2.241294853745785,PPG_1,PPG_2,128673.0,128673.0,410.62056135480816,-18.65739290890916,-0.6245033109152839
63105.23825287647,2.251345503318589,PPG_1,PPG_2,128628.0,128628.0,365.6488414870837,-19.518938119769846,-0.6533285926715274
63105.24830352604,2.2613961528841173,PPG_1,PPG_2,128635.0,128635.0,372.6771216193738,-19.878844554718093,-0.6653702177220624
63105.2583541756,2.2714468024496455,PPG_1,PPG_2,128653.0,128653.0,390.7054017516639,-19.79407262068583,-0.6625339476660075
63105.268404825176,2.2814974520224496,PPG_1,PPG_2,128650.0,128650.0,387.7336818839394,-19.344013867428604,-0.6474760375227392
63105.27845547474,2.2915481015879777,PPG_1,PPG_2,128667.0,128667.0,404.7619620162295,-18.623225653158574,-0.6233601546868784
63105.288506124314,2.301598751160782,PPG_1,PPG_2,128651.0,128651.0,388.7902421485196,-17.73156012570403,-0.5935271177931675
63105.29855677388,2.31164940072631,PPG_1,PPG_2,128657.0,128657.0,394.81852228079515,-16.76507835320254,-0.5611909048429523
63105.308607423445,2.321700050291838,PPG_1,PPG_2,128643.0,128643.0,380.84680241308524,-15.809399522030786,-0.5292161329682608
63105.31865807302,2.3317506998646422,PPG_1,PPG_2,128674.0,128674.0,411.87508254537534,-14.935015249415745,-0.4999612863233848
63105.32870872258,2.3418013494301704,PPG_1,PPG_2,128669.0,128669.0,406.9033626776509,-14.193762493086409,-0.47516070791561926
63105.33875937216,2.3518519990029745,PPG_1,PPG_2,128663.0,128663.0,400.93164280994097,-13.61739919703875,-0.4558769440537858
63105.34881002172,2.361902648568502,PPG_1,PPG_2,128633.0,128633.0,370.95992294223106,-13.220267960953912,-0.44258986447857146
63105.35886067129,2.3719532981340308,PPG_1,PPG_2,128636.0,128636.0,373.9882030745066,-13.00557336494077,-0.43540668692316575
63105.36891132086,2.382003947706835,PPG_1,PPG_2,128664.0,128664.0,402.0164832067967,-12.970856076607946,-0.4342451278948164
63105.378961970426,2.392054597272363,PPG_1,PPG_2,128668.0,128668.0,406.0447633390868,-13.10801553602746,-0.4388341616604987
63105.38901262,2.402105246845167,PPG_1,PPG_2,128662.0,128662.0,400.0730434713623,-13.397767212410363,-0.4485285730573623
63105.39906326957,2.4121558964106953,PPG_1,PPG_2,128694.0,128694.0,432.1013236036524,-13.802865983340983,-0.462082227658399
63105.40911391913,2.422206545976223,PPG_1,PPG_2,128641.0,128641.0,379.1296037359425,-14.265135142166779,-0.47754866932901496
63105.4191645687,2.4322571955490275,PPG_1,PPG_2,128668.0,128668.0,406.15788386821805,-14.70918072839483,-0.4924053930090793
63105.42921521827,2.4423078451145557,PPG_1,PPG_2,128649.0,128649.0,387.18616400050814,-15.052353302887342,-0.503887142342791
63105.43926586784,2.45235849468736,PPG_1,PPG_2,128652.0,128652.0,390.21444413279823,-15.217895909381653,-0.5094258096288576
63105.449316517406,2.462409144252888,PPG_1,PPG_2,128636.0,128636.0,374.2427242650738,-15.14773198707707,-0.5070782893779675
63105.45936716697,2.472459793818416,PPG_1,PPG_2,128668.0,128668.0,406.27100439736387,-14.811925315739012,-0.4958429858849846
63105.469417816545,2.48251044339122,PPG_1,PPG_2,128657.0,128657.0,395.29928452965396,-14.212828879395056,-0.4757986244758786
63105.47946846611,2.4925610929567483,PPG_1,PPG_2,128649.0,128649.0,387.3275646619295,-13.383979349075476,-0.44806726349352916
63105.48951911568,2.5026117425222765,PPG_1,PPG_2,128637.0,128637.0,375.3558447942196,-12.385047263173384,-0.41464533917836266
63105.49956976525,2.512662392095081,PPG_1,PPG_2,128671.0,128671.0,409.3841249265097,-11.292802148142618,-0.3781013798007815
63105.509620414814,2.5227130416606087,PPG_1,PPG_2,128704.0,128704.0,442.4124050587852,-10.187275251826186,-0.34111304317757474
63105.51967106439,2.532763691233413,PPG_1,PPG_2,128658.0,128658.0,396.4406851910753,-9.135567256448313,-0.30592536073224397
63105.52972171395,2.542814340798941,PPG_1,PPG_2,128679.0,128679.0,417.4689653233654,-8.179376097104816,-0.27393344755873733
63105.53977236352,2.552864990364469,PPG_1,PPG_2,128669.0,128669.0,407.49724545564095,-7.33068979004236,-0.24553839455936896
63105.54982301309,2.5629156399372732,PPG_1,PPG_2,128660.0,128660.0,398.52552558793104,-6.575344698386454,-0.22026631966915416
63105.559873662656,2.572966289502802,PPG_1,PPG_2,128663.0,128663.0,401.55380572022113,-5.881601059816129,-0.19705528489546673
63105.56992431223,2.5830169390756055,PPG_1,PPG_2,128671.0,128671.0,409.5820858524967,-5.210689335765002,-0.17460815242284702
63105.579974961795,2.5930675886411336,PPG_1,PPG_2,128661.0,128661.0,399.61036598478677,-4.526831634252226,-0.1517278779128301
63105.59002561136,2.6031182382066618,PPG_1,PPG_2,128653.0,128653.0,391.63864611707686,-3.805214764354262,-0.12758427020350588
63105.60007626093,2.613168887779466,PPG_1,PPG_2,128658.0,128658.0,396.6669262493524,-3.036609790031717,-0.10186855074408878
63105.6101269105,2.623219537344994,PPG_1,PPG_2,128695.0,128695.0,433.6952063816425,-2.2268993776329995,-0.07477753975113069
63105.62017756007,2.633270186917798,PPG_1,PPG_2,128681.0,128681.0,419.7234865139326,-1.391312319489736,-0.04682075689258716
63105.63022820964,2.6433208364833263,PPG_1,PPG_2,128669.0,128669.0,407.7517666462081,-0.5465529454784572,-0.01855708986137361
63105.6402788592,2.6533714860488544,PPG_1,PPG_2,128685.0,128685.0,423.7800467784982,0.29500004507249417,0.009599299100741086
63105.650329508775,2.6634221356216585,PPG_1,PPG_2,128689.0,128689.0,427.8083269107883,1.1273373011712688,0.037447351206210344
63105.66038015834,2.6734727851871867,PPG_1,PPG_2,128645.0,128645.0,383.83660704306385,1.949526924268988,0.06495588731562159
63105.67043080791,2.6835234347599908,PPG_1,PPG_2,128687.0,128687.0,425.86488717535394,2.76226472736561,0.09214818769972626
63105.68048145748,2.693574084325519,PPG_1,PPG_2,128685.0,128685.0,423.89316730764403,3.5644791082833445,0.11898839906340297
63105.69053210704,2.703624733891047,PPG_1,PPG_2,128668.0,128668.0,406.9214474399196,4.351839682444057,0.14533163689681516
63105.70058275662,2.713675383463851,PPG_1,PPG_2,128677.0,128677.0,415.94972757220967,5.11691163572611,0.17092914975992238
63105.71063340618,2.7237260330293793,PPG_1,PPG_2,128684.0,128684.0,422.97800770449976,5.850261000570961,0.195465299228268
63105.72068405575,2.7337766825949075,PPG_1,PPG_2,128705.0,128705.0,444.0062878367753,6.542609679959303,0.2186296619399995
63105.73073470532,2.7438273321677116,PPG_1,PPG_2,128659.0,128659.0,398.0345679690654,7.187173306889222,0.24019524888989388
63105.74078535489,2.7538779817332397,PPG_1,PPG_2,128698.0,128698.0,437.0628481013555,7.780351095881274,0.2600415862424747
63105.75083600446,2.763928631306044,PPG_1,PPG_2,128680.0,128680.0,419.091128233631,8.320389156122323,0.27810999292538374
63105.760886654025,2.773979280871572,PPG_1,PPG_2,128680.0,128680.0,419.1194083659211,8.805143660553078,0.2943287415141728
63105.77093730359,2.7840299304371,PPG_1,PPG_2,128661.0,128661.0,400.1476884982112,9.229998776778428,0.30854339708464834
63105.78098795316,2.794080580009904,PPG_1,PPG_2,128693.0,128693.0,432.17596863048675,9.587349351293065,0.3204995090405717
63105.79103860273,2.8041312295754324,PPG_1,PPG_2,128686.0,128686.0,425.20424876277684,9.869535500737738,0.3299407956531758
63105.8010892523,2.8141818791482365,PPG_1,PPG_2,128719.0,128719.0,458.23252889506693,10.075130074408236,0.3368195078076853
63105.81113990187,2.8242325287137646,PPG_1,PPG_2,128679.0,128679.0,418.2608090273425,10.215087025249456,0.34150213907402666
63105.82119055143,2.8342831782792928,PPG_1,PPG_2,128693.0,128693.0,432.28908915963257,10.314318413390593,0.3448221885458053
63105.831241201005,2.844333827852097,PPG_1,PPG_2,128691.0,128691.0,430.31736929192266,10.406928351306396,0.3479206998255377
63105.84129185057,2.854384477417625,PPG_1,PPG_2,128642.0,128642.0,381.3456494241982,10.52688310503246,0.3519341044972442
63105.851342500144,2.864435126990429,PPG_1,PPG_2,128684.0,128684.0,423.3739295564883,10.69823636674874,0.3576671826764946
63105.86139314971,2.8744857765559573,PPG_1,PPG_2,128694.0,128694.0,433.4022096887784,10.929898177847601,0.36541804344724316
63105.871443799275,2.8845364261214854,PPG_1,PPG_2,128699.0,128699.0,438.4304898210539,11.217637924779957,0.3750451404042438
63105.88149444885,2.8945870756942895,PPG_1,PPG_2,128677.0,128677.0,416.458769953344,11.551025428793464,0.38619950423339183
63105.89154509841,2.9046377252598177,PPG_1,PPG_2,128721.0,128721.0,460.4870500856341,11.920567675782452,0.3985635209512741
63105.901595747986,2.9146883748326218,PPG_1,PPG_2,128660.0,128660.0,399.51533021790965,12.321992183976976,0.4119942433401886
63105.91164639755,2.92473902439815,PPG_1,PPG_2,128689.0,128689.0,428.54361035019974,12.757099698737068,0.42655192011572196
63105.92169704712,2.934789673963678,PPG_1,PPG_2,128680.0,128680.0,419.57189048248983,13.232711327032098,0.44246476951622415
63105.93174769669,2.944840323536482,PPG_1,PPG_2,128708.0,128708.0,447.6001706147654,13.76036869863651,0.4601189473997753
63105.941798346255,2.9548909731020103,PPG_1,PPG_2,128693.0,128693.0,432.62845074705547,14.357670721687,0.48010327194938834
63105.95184899582,2.9649416226675385,PPG_1,PPG_2,128706.0,128706.0,445.65673087934556,15.049037980802058,0.503234798640976
63105.961899645394,2.9749922722403426,PPG_1,PPG_2,128700.0,128700.0,439.6850110116211,15.862814424842966,0.5304618495146489
63105.97195029496,2.9850429218058707,PPG_1,PPG_2,128667.0,128667.0,406.7132911439112,16.82326813294963,0.5625963775707514
63105.98200094453,2.995093571378675,PPG_1,PPG_2,128686.0,128686.0,425.7415712762013,17.938938676880035,0.5999240968483133
63105.9920515941,3.005144220944203,PPG_1,PPG_2,128688.0,128688.0,427.7698514084768,19.191558177085827,0.6418338069501498
63106.00210224366,3.015194870509731,PPG_1,PPG_2,128690.0,128690.0,429.7981315407669,20.530019056855355,0.686615568246836
63106.01215289323,3.0252455200825352,PPG_1,PPG_2,128679.0,128679.0,418.826411673057,21.871258629230514,0.7314902980798933
63106.0222035428,3.0352961696480634,PPG_1,PPG_2,128722.0,128722.0,461.85469180533255,23.107606436783257,0.7728555955154386
63106.032254192374,3.0453468192208675,PPG_1,PPG_2,128705.0,128705.0,444.88297193762264,24.11898062710386,0.8066938034579563
63106.04230484194,3.0553974687863956,PPG_1,PPG_2,128683.0,128683.0,422.91125206991273,24.786896281397873,0.829040694464636
63106.052355491505,3.065448118351924,PPG_1,PPG_2,128707.0,128707.0,446.9395322021883,25.00723121626118,0.8364125845269504
63106.06240614108,3.075498767924728,PPG_1,PPG_2,128713.0,128713.0,452.96781233447837,24.701087073321933,0.8261697196523008
63106.07245679064,3.085549417490256,PPG_1,PPG_2,128702.0,128702.0,441.99609246676846,23.824059081415783,0.7968264203615393
63106.08250744022,3.09560006706306,PPG_1,PPG_2,128702.0,128702.0,442.024372599044,22.372529520033336,0.7482616462128133
63106.09255808978,3.1056507166285883,PPG_1,PPG_2,128699.0,128699.0,439.0526527313341,20.385046862595495,0.6817651387003858
63106.10260873935,3.1157013661941164,PPG_1,PPG_2,128695.0,128695.0,435.0809328636242,17.938450843216387,0.5999077750782801
63106.11265938892,3.1257520157669205,PPG_1,PPG_2,128692.0,128692.0,432.1092129958997,15.139624793599003,0.5062656209000462
63106.122710038486,3.1358026653324487,PPG_1,PPG_2,128686.0,128686.0,426.1374931281898,12.113921149422092,0.4050326746137304
63106.13276068806,3.1458533149052528,PPG_1,PPG_2,128657.0,128657.0,397.1657732604799,8.991586141365728,0.30056666956833583
63106.142811337624,3.155903964470781,PPG_1,PPG_2,128660.0,128660.0,400.19405339275545,5.894730805009159,0.19695315456820486
63106.15286198719,3.165954614036309,PPG_1,PPG_2,128702.0,128702.0,442.22233352504554,2.9286735254003116,0.09771583572283594
63106.16291263676,3.176005263609113,PPG_1,PPG_2,128672.0,128672.0,412.25061365733563,0.17995448500368427,0.00575014453289736
63106.17296328633,3.1860559131746413,PPG_1,PPG_2,128685.0,128685.0,425.2788937896112,-2.2811114073738774,-0.07659134709653691
63106.18301393589,3.1961065627401695,PPG_1,PPG_2,128674.0,128674.0,414.30717392190127,-4.398001505809497,-0.1474175240228179
63106.193064585466,3.2061572123129736,PPG_1,PPG_2,128650.0,128650.0,390.33545405419136,-6.128496338173987,-0.20531582174627427
63106.20311523503,3.2162078618785017,PPG_1,PPG_2,128669.0,128669.0,409.3637341864669,-7.447625623610508,-0.24945079324432679
63106.213165884605,3.226258511451306,PPG_1,PPG_2,128682.0,128682.0,422.392014318757,-8.35073305456107,-0.2796666493887779
63106.22321653417,3.236309161016834,PPG_1,PPG_2,128668.0,128668.0,408.4202944510471,-8.855383099347947,-0.29655105608723836
63106.233267183736,3.246359810582362,PPG_1,PPG_2,128650.0,128650.0,390.4485745833226,-9.003303820301994,-0.3015001364202687
63106.24331783331,3.256410460155166,PPG_1,PPG_2,128648.0,128648.0,388.4768547156127,-8.863400331941753,-0.29681929388312944
63106.253368482874,3.2664611097206944,PPG_1,PPG_2,128654.0,128654.0,394.5051348479028,-8.5336511854978,-0.28578666096345695
63106.26341913245,3.2765117592934985,PPG_1,PPG_2,128651.0,128651.0,391.53341498017835,-8.137844704735876,-0.2725439045937572
63106.27346978201,3.2865624088590266,PPG_1,PPG_2,128673.0,128673.0,413.56169511246844,-7.8148079061020495,-0.261735851086092
63106.28352043158,3.2966130584245548,PPG_1,PPG_2,128664.0,128664.0,404.58997524475853,-7.70095816269894,-0.25792670573875476
63106.29357108115,3.306663707997359,PPG_1,PPG_2,128702.0,128702.0,442.6182553770341,-7.909655764134272,-0.2649092379232421
63106.30362173072,3.316714357562887,PPG_1,PPG_2,128665.0,128665.0,405.64653550932417,-8.512535962672384,-0.2850801951394749
63106.31367238029,3.326765007135691,PPG_1,PPG_2,128675.0,128675.0,415.67481564161426,-9.528112168603371,-0.31905899266729415
63106.323723029855,3.3368156567012193,PPG_1,PPG_2,128660.0,128660.0,400.7030957738898,-10.92056381361811,-0.3656471583184002
63106.33377367942,3.3468663062667474,PPG_1,PPG_2,128658.0,128658.0,398.7313759061799,-12.607954170636843,-0.4221032814105854
63106.34382432899,3.3569169558395515,PPG_1,PPG_2,128647.0,128647.0,387.75965603847,-14.476779933239575,-0.48462980756530094
63106.35387497856,3.3669676054050797,PPG_1,PPG_2,128647.0,128647.0,387.7879361707455,-16.399231482622586,-0.5489505267511606
63106.36392562813,3.377018254977884,PPG_1,PPG_2,128656.0,128656.0,396.8162163030356,-18.249846468720808,-0.6108677630425873
63106.3739762777,3.387068904543412,PPG_1,PPG_2,128643.0,128643.0,383.8444964353257,-19.91932309307599,-0.6667245346616014
63106.38402692726,3.39711955410894,PPG_1,PPG_2,128644.0,128644.0,384.87277656760125,-21.324785618790234,-0.7137480138601943
63106.394077576835,3.407170203681744,PPG_1,PPG_2,128633.0,128633.0,373.90105669989134,-22.416347521509948,-0.7502691145565163
63106.4041282264,3.4172208532472723,PPG_1,PPG_2,128654.0,128654.0,394.92933683218143,-23.179248013491964,-0.775793975418304
63106.414178875966,3.4272715028128005,PPG_1,PPG_2,128637.0,128637.0,377.957616964457,-23.63083448559073,-0.7909029994503113
63106.42422952554,3.437322152385605,PPG_1,PPG_2,128653.0,128653.0,393.98589709674707,-23.81290052092607,-0.7969945019050004
63106.434280175105,3.4473728019511327,PPG_1,PPG_2,128651.0,128651.0,392.01417722903716,-23.78109101908692,-0.7959302305916895
63106.44433082468,3.457423451523937,PPG_1,PPG_2,128656.0,128656.0,397.0424573613127,-23.59355124014976,-0.7896555895163051
63106.45438147424,3.467474101089465,PPG_1,PPG_2,128631.0,128631.0,372.0707374936028,-23.300987683426104,-0.7798670991993044
63106.46443212381,3.477524750654993,PPG_1,PPG_2,128666.0,128666.0,407.0990176258929,-22.939457306936735,-0.76777114087422
63106.47448277338,3.487575400227797,PPG_1,PPG_2,128666.0,128666.0,407.1272977581684,-22.52614991574286,-0.7539428450948266
63106.48453342295,3.497626049793326,PPG_1,PPG_2,128647.0,128647.0,388.1555778904585,-22.05907533766893,-0.7383156253686447
63106.49458407252,3.5076766993661295,PPG_1,PPG_2,128645.0,128645.0,386.1838580227486,-21.522619797527362,-0.7203670814044452
63106.504634722085,3.5177273489316576,PPG_1,PPG_2,128617.0,128617.0,358.21213815502415,-20.899017896467175,-0.6995028246304664
63106.51468537165,3.5277779984971858,PPG_1,PPG_2,128618.0,128618.0,359.24041828731424,-20.1815877512499,-0.6754992949078055
63106.52473602122,3.53782864806999,PPG_1,PPG_2,128648.0,128648.0,389.26869841960433,-19.38302063415633,-0.6487811124359913
63106.53478667079,3.547879297635518,PPG_1,PPG_2,128665.0,128665.0,406.2969785518799,-18.533815684870643,-0.6203687068844563
63106.54483732036,3.557929947208322,PPG_1,PPG_2,128673.0,128673.0,414.32525868416997,-17.67179390469175,-0.5915274802367544
63106.55488796993,3.5679805967738503,PPG_1,PPG_2,128641.0,128641.0,382.35353881646006,-16.829130273540837,-0.5633339318454881
63106.56493861949,3.5780312463393784,PPG_1,PPG_2,128653.0,128653.0,394.3818189487356,-16.023389418646723,-0.5363757329349087
63106.574989269066,3.5880818959121825,PPG_1,PPG_2,128659.0,128659.0,400.4100990810257,-15.25440530133097,-0.5106473282403264
63106.58503991863,3.5981325454777107,PPG_1,PPG_2,128655.0,128655.0,396.4383792133158,-14.505350784588028,-0.48558572123036814
63106.59509056821,3.608183195050515,PPG_1,PPG_2,128647.0,128647.0,388.4666593455913,-13.74663683110025,-0.4602009321258818
63106.60514121777,3.618233844616043,PPG_1,PPG_2,128661.0,128661.0,402.4949394778814,-12.94234102979923,-0.43329108131874344
63106.615191867335,3.628284494181571,PPG_1,PPG_2,128643.0,128643.0,384.5232196101715,-12.058516009761947,-0.40372036941107553
63106.62524251691,3.638335143754375,PPG_1,PPG_2,128627.0,128627.0,368.55149974244705,-11.071915610309885,-0.37071103439705166
63106.63529316647,3.6483857933199033,PPG_1,PPG_2,128641.0,128641.0,382.57977987473714,-9.976563818658038,-0.33406313290732204
63106.64534381604,3.658436442885431,PPG_1,PPG_2,128692.0,128692.0,433.60806000702723,-8.784837204863697,-0.29419075594324096
63106.65539446561,3.668487092458235,PPG_1,PPG_2,128649.0,128649.0,390.6363401393028,-7.522268611873461,-0.2519481725352617
63106.66544511518,3.678537742023764,PPG_1,PPG_2,128633.0,128633.0,374.66462027159287,-6.219676933528902,-0.20836651057684857
63106.67549576475,3.688588391596568,PPG_1,PPG_2,128690.0,128690.0,431.69290040388296,-4.906281502179592,-0.16442338038616972
63106.685546414315,3.698639041162096,PPG_1,PPG_2,128653.0,128653.0,394.7211805361585,-3.603982125419195,-0.12085149815308621
63106.69559706388,3.708689690727624,PPG_1,PPG_2,128660.0,128660.0,401.7494606684486,-2.3225293009385757,-0.07797709265777084
63106.705647713454,3.718740340300428,PPG_1,PPG_2,128680.0,128680.0,421.7777408007387,-1.0570162313425133,-0.03563599396966733
63106.71569836302,3.728790989865957,PPG_1,PPG_2,128677.0,128677.0,418.8060209330142,0.21101161530123275,0.006789243259327361
63106.72574901259,3.738841639438761,PPG_1,PPG_2,128640.0,128640.0,381.8343010653043,1.508082178293825,0.05018618164940891
63106.73579966216,3.7488922890042886,PPG_1,PPG_2,128656.0,128656.0,397.8625811975944,2.859021885177429,0.09538545522869638
63106.74585031172,3.7589429385698168,PPG_1,PPG_2,128645.0,128645.0,386.89086132986995,4.275884245704247,0.14279034615856556
63106.755900961296,3.768993588142621,PPG_1,PPG_2,128669.0,128669.0,410.91914146216004,5.7506932074435415,0.19213399443478185
63106.76595161086,3.779044237708149,PPG_1,PPG_2,128658.0,128658.0,399.94742159445013,7.25525287820755,0.24247303164622147
63106.776002260434,3.789094887280953,PPG_1,PPG_2,128684.0,128684.0,425.9757017267257,8.747649118723862,0.29240510901435585
63106.78605291,3.7991455368464817,PPG_1,PPG_2,128704.0,128704.0,446.00398185901577,10.18240346974965,0.3404086239755717
63106.796103559565,3.8091961864120094,PPG_1,PPG_2,128637.0,128637.0,379.03226199130586,11.519780796176464,0.38515413211919297
63106.80615420914,3.8192468359848135,PPG_1,PPG_2,128680.0,128680.0,422.0605421235814,12.730689346553772,0.4256682916846561
63106.816204858704,3.8292974855503417,PPG_1,PPG_2,128672.0,128672.0,414.0888222558715,13.797573947927752,0.4613637477655738
63106.82625550828,3.8393481351231458,PPG_1,PPG_2,128685.0,128685.0,427.1171023881616,14.714260535406437,0.4920339306336849
63106.83630615784,3.849398784688674,PPG_1,PPG_2,128659.0,128659.0,401.1453825204371,15.48582301735408,0.5178486013605631
63106.84635680741,3.859449434254202,PPG_1,PPG_2,128668.0,128668.0,410.1736626527272,16.12758276312612,0.539320377024215
63106.85640745698,3.869500083827006,PPG_1,PPG_2,128690.0,128690.0,432.2019427850173,16.663457068457753,0.5572494742351255
63106.866458106546,3.8795507333925343,PPG_1,PPG_2,128674.0,128674.0,416.23022291729285,17.124644118096985,0.5726797110707535
63106.87650875611,3.8896013829580625,PPG_1,PPG_2,128671.0,128671.0,413.25850304958294,17.548074170675246,0.5868466873544893
63106.88655940568,3.8996520325308666,PPG_1,PPG_2,128674.0,128674.0,416.28678318187303,17.973267072082702,0.6010726444247869
63106.89661005525,3.9097026820963943,PPG_1,PPG_2,128693.0,128693.0,435.3150633141486,18.437543182400866,0.6166062339844623
63106.90666070482,3.919753331669199,PPG_1,PPG_2,128642.0,128642.0,384.34334344643867,18.970302329357583,0.6344311053036376
63106.91671135439,3.929803981234727,PPG_1,PPG_2,128674.0,128674.0,416.37162357872876,19.587116292730034,0.6550682536056217
63106.92676200395,3.939854630800255,PPG_1,PPG_2,128670.0,128670.0,412.3999037110043,20.28560074350981,0.6784379048349151
63106.93681265353,3.949905280373059,PPG_1,PPG_2,128684.0,128684.0,426.4281838432944,21.045522734666058,0.7038631120459926
63106.94686330309,3.9599559299385874,PPG_1,PPG_2,128680.0,128680.0,422.4564639755845,21.83316150143825,0.7302156575516051
63106.956913952665,3.970006579511391,PPG_1,PPG_2,128663.0,128663.0,405.48474410786,22.607430942648968,0.7561208967854834
63106.96696460223,3.98005722907692,PPG_1,PPG_2,128685.0,128685.0,427.5130242401501,23.32573345245091,0.7801536137807683
63106.97701525179,3.990107878642448,PPG_1,PPG_2,128683.0,128683.0,425.5413043724402,23.949333157245306,0.8010177970728457
63106.98706590137,4.000158528215252,PPG_1,PPG_2,128692.0,128692.0,434.56958450471575,24.4481084439722,0.8177056481475338
63106.997116550934,4.01020917778078,PPG_1,PPG_2,128693.0,128693.0,435.59786463700584,24.802890060658697,0.8295758088007483
63107.00716720051,4.020259827353584,PPG_1,PPG_2,128648.0,128648.0,390.62614476929593,25.002987808544294,0.8362706100588623
63107.01721785007,4.030310476919112,PPG_1,PPG_2,128674.0,128674.0,416.6544249015715,25.038807563640642,0.8374690550389701
63107.02726849964,4.04036112648464,PPG_1,PPG_2,128680.0,128680.0,422.68270503386157,24.89295723985549,0.832589245338506
63107.03731914921,4.0504117760574445,PPG_1,PPG_2,128661.0,128661.0,403.71098516615166,24.53391309757763,0.8205764705779697
63107.047369798776,4.060462425622973,PPG_1,PPG_2,128663.0,128663.0,405.7392652984272,23.913819839444294,0.7998296047658041
63107.05742044835,4.070513075195777,PPG_1,PPG_2,128667.0,128667.0,409.7675454307173,22.970517226130013,0.7682689121086873
63107.067471097915,4.080563724761305,PPG_1,PPG_2,128649.0,128649.0,391.7958255630074,21.63451924023582,0.7235695534636523
63107.07752174748,4.090614374326833,PPG_1,PPG_2,128686.0,128686.0,428.8241056952829,19.841685546320452,0.6635855436662208
63107.08757239705,4.100665023899637,PPG_1,PPG_2,128696.0,128696.0,438.852385827573,17.550462757846155,0.5869266038781179
63107.09762304662,4.110715673465165,PPG_1,PPG_2,128671.0,128671.0,413.8806659598631,14.759347960924927,0.4935424501261626
63107.107673696184,4.1207663230306935,PPG_1,PPG_2,128674.0,128674.0,416.90894609213865,11.518093037666732,0.38509766367857456
63107.11772434576,4.130816972603498,PPG_1,PPG_2,128653.0,128653.0,395.93722622442874,7.92817061924056,0.264987280741372
63107.12777499532,4.140867622169026,PPG_1,PPG_2,128633.0,128633.0,375.96550635671883,4.1328004884502665,0.13800309928446636
63107.137825644895,4.15091827174183,PPG_1,PPG_2,128656.0,128656.0,398.9937864889944,0.30044734073379437,0.009781552835388022
63107.14787629446,4.160968921307358,PPG_1,PPG_2,128651.0,128651.0,394.02206662128447,-3.3936936504449173,-0.11381573907183179
63107.157926944026,4.171019570872886,PPG_1,PPG_2,128611.0,128611.0,354.05034675357456,-6.785738077311073,-0.227305588590505
63107.1679775936,4.18107022044569,PPG_1,PPG_2,128610.0,128610.0,353.0786268858501,-9.73969138841807,-0.32613793704310023
63107.178028243165,4.191120870011218,PPG_1,PPG_2,128648.0,128648.0,391.1069070181402,-12.159994804709152,-0.40711561184265377
63107.18807889274,4.2011715195840225,PPG_1,PPG_2,128638.0,128638.0,381.1351871504303,-13.99674832496687,-0.46856907600306497
63107.1981295423,4.211222169149551,PPG_1,PPG_2,128594.0,128594.0,337.1634672827058,-15.243853105462675,-0.5102942765197478
63107.20818019187,4.221272818715079,PPG_1,PPG_2,128662.0,128662.0,405.1917474149959,-15.933107976939864,-0.5333551276761779
63107.21823084144,4.231323468287883,PPG_1,PPG_2,128617.0,128617.0,360.220027547286,-16.126092668385215,-0.5398119427514968
63107.22828149101,4.241374117853411,PPG_1,PPG_2,128634.0,128634.0,377.24830767956155,-15.904909549279036,-0.5324116744340731
63107.23833214058,4.251424767426215,PPG_1,PPG_2,128592.0,128592.0,335.27658781185164,-15.363444433589853,-0.5142955218234336
63107.248382790145,4.261475416991743,PPG_1,PPG_2,128638.0,128638.0,381.30486794414173,-14.599050534608596,-0.4887206950666619
63107.25843343971,4.271526066557271,PPG_1,PPG_2,128652.0,128652.0,395.3331480764173,-13.702536315676527,-0.45872543233009694
63107.26848408928,4.2815767161300755,PPG_1,PPG_2,128636.0,128636.0,379.36142820870737,-12.746682731114873,-0.42674481361691313
63107.27853473885,4.291627365695604,PPG_1,PPG_2,128637.0,128637.0,380.38970834099746,-11.777700146516846,-0.3943249293603134
63107.28858538842,4.301678015268408,PPG_1,PPG_2,128626.0,128626.0,369.417988473273,-10.814048071076538,-0.3620833914359066
63107.29863603799,4.311728664833936,PPG_1,PPG_2,128618.0,128618.0,361.4462686055631,-9.852953913685097,-0.3299274354490912
63107.30868668755,4.321779314399464,PPG_1,PPG_2,128624.0,128624.0,367.4745487378532,-8.881425611211178,-0.29742237744406885
63107.318737337126,4.331829963972268,PPG_1,PPG_2,128636.0,128636.0,379.5028288701287,-7.887777796934513,-0.26417725246172824
63107.32878798669,4.341880613537796,PPG_1,PPG_2,128614.0,128614.0,357.5311090024188,-6.871078439356002,-0.23016087691445425
63107.33883863626,4.3519312631033245,PPG_1,PPG_2,128607.0,128607.0,350.5593891347089,-5.847506534695707,-0.1959145620633362
63107.34888928583,4.361981912676129,PPG_1,PPG_2,128640.0,128640.0,383.58766926698445,-4.852396859330206,-0.1626205266381738
63107.358939935395,4.372032562241657,PPG_1,PPG_2,128629.0,128629.0,372.61594939927454,-3.936273765078874,-0.13196919693161646
63107.36899058497,4.382083211814461,PPG_1,PPG_2,128650.0,128650.0,393.64422953156463,-3.1552956160605152,-0.10583950007167531
63107.37904123453,4.392133861379989,PPG_1,PPG_2,128652.0,128652.0,395.6725096638402,-2.55978010457566,-0.08591494800827784
63107.3890918841,4.402184510945517,PPG_1,PPG_2,128628.0,128628.0,371.70078979613027,-2.1856265575688156,-0.07339664800891285
63107.39914253367,4.412235160518321,PPG_1,PPG_2,128602.0,128602.0,345.72906992842036,-2.051573726352379,-0.06891155473542614
63107.40919318324,4.422285810083849,PPG_1,PPG_2,128619.0,128619.0,362.7573500606959,-2.1608568596831015,-0.07256791202202313
63107.41924383281,4.4323364596566535,PPG_1,PPG_2,128668.0,128668.0,411.785630192986,-2.502298478024796,-0.08399174762337806
63107.429294482376,4.442387109222182,PPG_1,PPG_2,128633.0,128633.0,376.8139103252761,-3.0481117197762564,-0.10225337833229585
63107.43934513194,4.45243775878771,PPG_1,PPG_2,128635.0,128635.0,378.8421904575516,-3.7517627938322056,-0.12579589265662652
63107.449395781514,4.462488408360514,PPG_1,PPG_2,128610.0,128610.0,353.8704705898417,-4.550937338881235,-0.15253439824293535
63107.45944643108,4.472539057926042,PPG_1,PPG_2,128631.0,128631.0,374.8987507221318,-5.376150971630409,-0.18014411062161018
63107.46949708065,4.482589707498846,PPG_1,PPG_2,128627.0,128627.0,370.92703085440735,-6.161544993438777,-0.20642155222642034
63107.47954773022,4.492640357064374,PPG_1,PPG_2,128593.0,128593.0,336.95531098669744,-6.854790472327425,-0.22961591974573398
63107.48959837978,4.502691006629902,PPG_1,PPG_2,128617.0,128617.0,360.98359111898753,-7.424424978874321,-0.24867455409516018
63107.49964902936,4.5127416562027065,PPG_1,PPG_2,128633.0,128633.0,377.0118712512631,-7.862679689178733,-0.2633375286509648
63107.50969967892,4.522792305768235,PPG_1,PPG_2,128621.0,128621.0,365.04015138355317,-8.182637221789012,-0.27404255714077574
63107.519750328494,4.532842955341039,PPG_1,PPG_2,128633.0,128633.0,377.06843151584326,-8.41174112736078,-0.28170783639288216
63107.52980097806,4.542893604906567,PPG_1,PPG_2,128603.0,128603.0,347.0967116481188,-8.585407723637331,-0.28751831331993555
63107.539851627625,4.552944254472095,PPG_1,PPG_2,128620.0,128620.0,364.1249917804089,-8.742632949901305,-0.29277870057427435
63107.5499022772,4.562994904044899,PPG_1,PPG_2,128617.0,128617.0,361.153271912699,-8.922756806750742,-0.29880522229275663
63107.55995292677,4.573045553610427,PPG_1,PPG_2,128597.0,128597.0,341.1815520449745,-9.161691244505699,-0.3067994080914053
63107.57000357633,4.5830962031759555,PPG_1,PPG_2,128631.0,128631.0,375.2098321772646,-9.486609094669513,-0.31767039717072293
63107.5800542259,4.59314685274876,PPG_1,PPG_2,128617.0,128617.0,361.2381123095547,-9.909039855594502,-0.33180393949986275
63107.59010487547,4.603197502314288,PPG_1,PPG_2,128623.0,128623.0,367.26639244183025,-10.417671427433751,-0.34882155875369225
63107.60015552504,4.613248151887092,PPG_1,PPG_2,128617.0,128617.0,361.29467257412034,-10.973436865298876,-0.3674161665988687
63107.610206174606,4.62329880145262,PPG_1,PPG_2,128626.0,128626.0,370.32295270641043,-11.509155908081953,-0.385340069089117
63107.62025682417,4.633349451018148,PPG_1,PPG_2,128606.0,128606.0,350.351232838686,-11.934672028115834,-0.3995768402964537
63107.630307473744,4.643400100590952,PPG_1,PPG_2,128609.0,128609.0,353.37951297097607,-12.147294093180626,-0.4066906758280379
63107.64035812331,4.65345075015648,PPG_1,PPG_2,128616.0,128616.0,360.40779310326616,-12.046181727890694,-0.4033076932732271
63107.65040877288,4.6635013997292845,PPG_1,PPG_2,128576.0,128576.0,320.4360732355417,-11.548303114940182,-0.3866498427996935
63107.66045942245,4.673552049294813,PPG_1,PPG_2,128608.0,128608.0,352.4643533678318,-10.602981576762305,-0.35502160165260277
63107.670510072014,4.683602698860341,PPG_1,PPG_2,128609.0,128609.0,353.4926335001219,-9.20162037415256,-0.3081353431042673
63107.68056072159,4.693653348433145,PPG_1,PPG_2,128612.0,128612.0,356.5209136323974,-7.380310117243535,-0.24719857430894004
63107.69061137115,4.703703997998673,PPG_1,PPG_2,128597.0,128597.0,341.5491937646875,-5.215832568651231,-0.17478023293030573
63107.700662020725,4.713754647571477,PPG_1,PPG_2,128636.0,128636.0,380.5774738969776,-2.81703466370658,-0.09452208209311473
63107.71071267029,4.723805297137005,PPG_1,PPG_2,128605.0,128605.0,349.60575402925315,-0.31307774250464254,-0.010745557252315173
63107.720763319856,4.733855946702533,PPG_1,PPG_2,128618.0,128618.0,362.63403416154324,2.1600478132698693,0.07199942242501302
63107.73081396943,4.7439065962753375,PPG_1,PPG_2,128638.0,128638.0,382.66231429383333,4.473291475317721,0.1493951289866695
63107.740864618994,4.753957245840866,PPG_1,PPG_2,128625.0,128625.0,369.6905944261089,6.517421123381967,0.21778691192384025
63107.75091526857,4.76400789541367,PPG_1,PPG_2,128633.0,128633.0,377.71887455839897,8.213318002917331,0.27452764330496565
63107.76096591813,4.774058544979198,PPG_1,PPG_2,128626.0,128626.0,370.74715469068906,9.517614526357777,0.3181663453810884
63107.7710165677,4.784109194544726,PPG_1,PPG_2,128604.0,128604.0,348.7754348229646,10.42299882942884,0.3484583803256408
63107.78106721727,4.79415984411753,PPG_1,PPG_2,128635.0,128635.0,379.8037149552547,10.95475681277569,0.3662497550589436
63107.79111786684,4.804210493683058,PPG_1,PPG_2,128637.0,128637.0,381.8319950875448,11.166060240991083,0.3733194720947845
63107.8011685164,4.8142611432485864,PPG_1,PPG_2,128625.0,128625.0,369.8602752198203,11.132836923037411,0.3722078978107894
63107.811219165975,4.8243117928213906,PPG_1,PPG_2,128610.0,128610.0,354.8885553521104,10.946763362840457,0.3659823129750194
63107.82126981554,4.834362442386919,PPG_1,PPG_2,128620.0,128620.0,364.9168354844005,10.705633958038893,0.35791468872791027
63107.83132046511,4.844413091959723,PPG_1,PPG_2,128659.0,128659.0,403.94511561667605,10.502752505846427,0.35112675125365816
63107.84137111468,4.854463741525251,PPG_1,PPG_2,128583.0,128583.0,327.97339574896614,10.41659277224679,0.3482440486795572
63107.85142176424,4.864514391090779,PPG_1,PPG_2,128609.0,128609.0,354.00167588125623,10.500313168413259,0.3510451367453036
63107.86147241382,4.874565040663583,PPG_1,PPG_2,128633.0,128633.0,378.0299560135318,10.772399505077326,0.36014850731424997
63107.87152306338,4.884615690229111,PPG_1,PPG_2,128607.0,128607.0,352.05823614582187,11.21187222801978,0.37485223371572873
63107.881573712955,4.8946663398019155,PPG_1,PPG_2,128628.0,128628.0,373.08651627811196,11.759366909919992,0.39317012146772795
63107.89162436252,4.904716989367444,PPG_1,PPG_2,128608.0,128608.0,353.1147964103875,12.322442831586862,0.41200932095209336
63107.901675012086,4.914767638932972,PPG_1,PPG_2,128596.0,128596.0,341.1430765426776,12.78391492172553,0.42744909457418917
63107.91172566166,4.924818288505776,PPG_1,PPG_2,128617.0,128617.0,362.1713566749677,13.014090945113404,0.4351502443734654
63107.921776311225,4.934868938071304,PPG_1,PPG_2,128623.0,128623.0,368.1996368072432,12.888571634416998,0.4309506626787811
63107.9318269608,4.944919587644108,PPG_1,PPG_2,128656.0,128656.0,401.2279169395333,12.311104237814414,0.4116299582023615
63107.94187761036,4.954970237209636,PPG_1,PPG_2,128649.0,128649.0,394.2561970718234,11.236449948790106,0.37567454659867444
63107.95192825993,4.965020886775164,PPG_1,PPG_2,128611.0,128611.0,356.28447720409895,9.685124417607916,0.32377083340025953
63107.9619789095,4.9750715363479685,PPG_1,PPG_2,128623.0,128623.0,368.31275733638904,7.743904192910696,0.25882215836564876
63107.97202955907,4.985122185913497,PPG_1,PPG_2,128590.0,128590.0,335.34103746867913,5.552183028312204,0.18549230950309173
63107.98208020864,4.995172835486301,PPG_1,PPG_2,128590.0,128590.0,335.3693176009547,3.279584300631643,0.10945648710111937
63107.992130858205,5.005223485051829,PPG_1,PPG_2,128613.0,128613.0,358.39759773324477,1.101626499973696,0.03658712811013112
63108.00218150777,5.015274134617357,PPG_1,PPG_2,128599.0,128599.0,344.42587786553486,-0.8216969397234166,-0.027762762480371787
63108.01223215734,5.025324784190161,PPG_1,PPG_2,128581.0,128581.0,326.4541579978104,-2.3629845217157897,-0.07933062944575815
63108.02228280691,5.035375433755689,PPG_1,PPG_2,128587.0,128587.0,332.4824381301005,-3.4404396794251677,-0.11537975154541413
63108.032333456475,5.0454260833212174,PPG_1,PPG_2,128601.0,128601.0,346.5107182623906,-4.0259181884057655,-0.13496848904966116
63108.04238410605,5.0554767328940216,PPG_1,PPG_2,128593.0,128593.0,338.5389983946661,-4.146477218293326,-0.1390021113842298
63108.05243475561,5.06552738245955,PPG_1,PPG_2,128604.0,128604.0,349.5672785269562,-3.8799343690534926,-0.13008421290067299
63108.062485405186,5.075578032032354,PPG_1,PPG_2,128561.0,128561.0,306.5955586592463,-3.346604777878812,-0.11224025585610381
63108.07253605475,5.085628681597882,PPG_1,PPG_2,128596.0,128596.0,341.62383879152185,-2.6981050875207466,-0.0905429774570591
63108.08258670432,5.09567933116341,PPG_1,PPG_2,128607.0,128607.0,352.65211892381194,-2.1019479681358275,-0.07059695869839917
63108.09263735389,5.105729980736214,PPG_1,PPG_2,128598.0,128598.0,343.68039905610203,-1.7214749895957704,-0.057867225343955615
63108.102688003455,5.115780630301742,PPG_1,PPG_2,128617.0,128617.0,362.7086791883776,-1.6942206892505338,-0.056955360387111506
63108.11273865303,5.1258312798745465,PPG_1,PPG_2,128599.0,128599.0,344.73695932066767,-2.113779531221499,-0.07099281504495183
63108.12278930259,5.135881929440075,PPG_1,PPG_2,128596.0,128596.0,341.76523945295776,-3.019041058926717,-0.10128074221376757
63108.13283995216,5.145932579005603,PPG_1,PPG_2,128579.0,128579.0,324.7935195852333,-4.3920100798866075,-0.14721706496603038
63108.14289060173,5.155983228578407,PPG_1,PPG_2,128580.0,128580.0,325.8217997175234,-6.162597129351883,-0.20645675422598905
63108.1529412513,5.166033878143935,PPG_1,PPG_2,128622.0,128622.0,367.8500798498135,-8.217226880669426,-0.2751998459870386
63108.16299190087,5.176084527716739,PPG_1,PPG_2,128566.0,128566.0,311.878359982089,-10.409637122980465,-0.34855274977342987
63108.17304255043,5.186135177282267,PPG_1,PPG_2,128578.0,128578.0,323.9066401143791,-12.574922540251366,-0.4209981205429645
63108.1830932,5.196185826847795,PPG_1,PPG_2,128553.0,128553.0,298.9349202466692,-14.54720161082926,-0.48698595170339226
63108.193143849574,5.2062364764205995,PPG_1,PPG_2,128573.0,128573.0,318.96320037894475,-16.177665436768027,-0.5415374466029997
63108.20319449914,5.216287125986128,PPG_1,PPG_2,128588.0,128588.0,333.99148051123484,-17.34856670503564,-0.5807130563575232
63108.21324514871,5.226337775558932,PPG_1,PPG_2,128575.0,128575.0,321.01976064352493,-17.981830366536443,-0.60190057297144
63108.22329579828,5.23638842512446,PPG_1,PPG_2,128553.0,128553.0,299.0480407758005,-18.044530215532014,-0.6039983628385157
63108.23334644784,5.246439074689988,PPG_1,PPG_2,128549.0,128549.0,295.07632090809057,-17.553078018965035,-0.5875555251821891
63108.243397097416,5.256489724262792,PPG_1,PPG_2,128565.0,128565.0,311.10460104038066,-16.57421097884006,-0.5548049302304574
63108.25344774698,5.26654037382832,PPG_1,PPG_2,128571.0,128571.0,317.1328811726562,-15.21894361587375,-0.5094608634303898
63108.26349839655,5.276591023393848,PPG_1,PPG_2,128597.0,128597.0,343.1611613049463,-13.628398908033493,-0.4562449685807215
63108.27354904612,5.2866416729666525,PPG_1,PPG_2,128561.0,128561.0,307.1894414372364,-11.954866276949144,-0.4002524924910661
63108.283599695686,5.296692322532181,PPG_1,PPG_2,128593.0,128593.0,339.2177215695119,-10.343160602307568,-0.3463286013312875
63108.29365034526,5.306742972104985,PPG_1,PPG_2,128576.0,128576.0,322.246001701802,-8.91563447088417,-0.29856692564212417
63108.303700994824,5.316793621670513,PPG_1,PPG_2,128571.0,128571.0,317.2742818340921,-7.7618680832291735,-0.25996460879816635
63108.31375164439,5.326844271236041,PPG_1,PPG_2,128596.0,128596.0,342.30256196636765,-6.933042013123217,-0.23223403273953208
63108.32380229396,5.336894920808845,PPG_1,PPG_2,128568.0,128568.0,314.33084209865774,-6.440808808579454,-0.21576506438837842
63108.33385294353,5.346945570374373,PPG_1,PPG_2,128583.0,128583.0,329.35912223094783,-6.260620651259166,-0.2097363913269765
63108.3439035931,5.3569962199471775,PPG_1,PPG_2,128569.0,128569.0,315.3874023632234,-6.339316897359014,-0.21236938311706563
63108.353954242666,5.367046869512706,PPG_1,PPG_2,128572.0,128572.0,318.41568249551347,-6.605890785759081,-0.22128832009811272
63108.36400489223,5.377097519078234,PPG_1,PPG_2,128572.0,128572.0,318.44396262780356,-6.983685151676367,-0.23392843335764554
63108.374055541804,5.387148168651038,PPG_1,PPG_2,128542.0,128542.0,288.4722427600791,-7.402202680728033,-0.24793104812790154
63108.38410619137,5.397198818216566,PPG_1,PPG_2,128555.0,128555.0,301.5005228923692,-7.8062301185573215,-0.261448858436484
63108.39415684094,5.40724946778937,PPG_1,PPG_2,128591.0,128591.0,337.5288030246593,-8.159291625109827,-0.27326146823962233
63108.40420749051,5.417300117354898,PPG_1,PPG_2,128562.0,128562.0,308.5570831569348,-8.440045188124255,-0.2826548238708091
63108.414258140074,5.427350766920426,PPG_1,PPG_2,128579.0,128579.0,325.5853632892249,-8.63414734065935,-0.2891490265728681
63108.42430878965,5.4374014164932305,PPG_1,PPG_2,128581.0,128581.0,327.613643421515,-8.726124595343878,-0.2922263697558204
63108.43435943921,5.447452066058759,PPG_1,PPG_2,128563.0,128563.0,309.64192355379055,-8.694485896072193,-0.29116781309575107
63108.444410088785,5.457502715631563,PPG_1,PPG_2,128549.0,128549.0,295.67020368608064,-8.511230514921522,-0.28503651792002976
63108.45446073835,5.467553365197091,PPG_1,PPG_2,128569.0,128569.0,315.69848381837073,-8.144719440885767,-0.27277391713868504
63108.46451138792,5.477604014762619,PPG_1,PPG_2,128573.0,128573.0,319.7267639506463,-7.5631972342981415,-0.25331754823187513
63108.47456203749,5.487654664335423,PPG_1,PPG_2,128567.0,128567.0,313.75504408293637,-6.737337539947476,-0.22568622014753553
63108.484612687054,5.497705313900951,PPG_1,PPG_2,128572.0,128572.0,318.78332421522646,-5.642857040484942,-0.18906747005059685
63108.49466333662,5.507755963466479,PPG_1,PPG_2,128572.0,128572.0,318.811604347502,-4.265023687417924,-0.142968398156703
63108.50471398619,5.5178066130392835,PPG_1,PPG_2,128530.0,128530.0,276.8398844797921,-2.605447086283596,-0.0874428580913406
63108.51476463576,5.527857262604812,PPG_1,PPG_2,128562.0,128562.0,308.8681646120822,-0.6891515411625813,-0.023328104367429766
63108.52481528533,5.537907912177616,PPG_1,PPG_2,128561.0,128561.0,307.8964447443577,1.4322216031265613,0.04764806475685193
63108.5348659349,5.547958561743144,PPG_1,PPG_2,128583.0,128583.0,329.9247248766478,3.6845245366366846,0.12300483749543499
63108.54491658446,5.558009211308672,PPG_1,PPG_2,128582.0,128582.0,328.9530050089379,5.981827295701681,0.19986719883720372
63108.554967234035,5.568059860881476,PPG_1,PPG_2,128570.0,128570.0,316.98128514121345,8.239456568222296,0.2754021783846359
63108.5650178836,5.578110510447004,PPG_1,PPG_2,128557.0,128557.0,304.00956527350354,10.38537601819951,0.3471996093169041
63108.57506853317,5.588161160019808,PPG_1,PPG_2,128610.0,128610.0,357.03784540579363,12.369002469312198,0.4135670972115199
63108.58511918274,5.598211809585337,PPG_1,PPG_2,128580.0,128580.0,327.0661255380692,14.16805687758964,0.4737592375190528
63108.595169832304,5.608262459150865,PPG_1,PPG_2,128582.0,128582.0,329.09440567035927,15.792161798210724,0.5280979783633503
63108.60522048188,5.618313108723669,PPG_1,PPG_2,128598.0,128598.0,345.12268580264936,17.28045553528645,0.5778927955899503
63108.61527113144,5.628363758289197,PPG_1,PPG_2,128561.0,128561.0,308.1509659349249,18.692224802871753,0.6251272835772934
63108.625321781015,5.638414407862001,PPG_1,PPG_2,128568.0,128568.0,315.179246067215,20.092196687434452,0.671967058802815
63108.63537243058,5.648465057427529,PPG_1,PPG_2,128556.0,128556.0,303.2075261995051,21.53425629178287,0.7202149904036582
63108.64542308015,5.658515706993057,PPG_1,PPG_2,128618.0,128618.0,365.2358063317806,23.048437578880645,0.7708759443273899
63108.65547372972,5.6685663565658615,PPG_1,PPG_2,128556.0,128556.0,303.2640864640707,24.63381745951677,0.8239190361743782
63108.665524379285,5.67861700613139,PPG_1,PPG_2,128583.0,128583.0,330.2923665963608,26.255939245659746,0.8781914259910437
63108.67557502886,5.688667655704194,PPG_1,PPG_2,128590.0,128590.0,337.3206467286509,27.846673063569472,0.931413648020025
63108.68562567842,5.698718305269722,PPG_1,PPG_2,128561.0,128561.0,308.34892686092644,29.306581027823114,0.9802587438748961
63108.69567632799,5.70876895483525,PPG_1,PPG_2,128567.0,128567.0,314.37720699321653,30.5109216904594,1.0205531573233921
63108.70572697756,5.718819604408054,PPG_1,PPG_2,128589.0,128589.0,336.4054871255066,31.320642512785636,1.0476445166081054
63108.71577762713,5.728870253973582,PPG_1,PPG_2,128605.0,128605.0,352.43376725778216,31.59932025165949,1.056968420032984
63108.72582827669,5.73892090353911,PPG_1,PPG_2,128586.0,128586.0,333.46204739007226,31.23397359524335,1.0447447779337191
63108.735878926265,5.7489715531119145,PPG_1,PPG_2,128579.0,128579.0,326.49032752236235,30.154472217618277,1.0086271941156744
63108.74592957583,5.759022202677443,PPG_1,PPG_2,128593.0,128593.0,340.5186076546379,28.347221635841084,0.9481608290692942
63108.7559802254,5.769072852250247,PPG_1,PPG_2,128603.0,128603.0,350.546887786928,25.861813748085403,0.8650049113755766
63108.76603087497,5.779123501815775,PPG_1,PPG_2,128580.0,128580.0,327.5751679192181,22.80971353324691,0.7628887977555828
63108.776081524535,5.789174151381303,PPG_1,PPG_2,128548.0,128548.0,295.6034480514936,19.353069085052073,0.6472375830609622
63108.78613217411,5.799224800954107,PPG_1,PPG_2,128559.0,128559.0,306.6317281837837,15.683899582232744,0.5244757785765242
63108.79618282367,5.809275450519635,PPG_1,PPG_2,128550.0,128550.0,297.6600083160738,11.998238995471185,0.40116222110790356
63108.806233473246,5.8193261000924394,PPG_1,PPG_2,128517.0,128517.0,264.68828844834934,8.471382423254836,0.28316187344601523
63108.81628412281,5.829376749657968,PPG_1,PPG_2,128564.0,128564.0,311.71656858063943,5.2388326760477,0.1750083417686311
63108.82633477238,5.839427399223496,PPG_1,PPG_2,128540.0,128540.0,287.7448487129295,2.385439149205239,0.07954048780597277
63108.83638542195,5.8494780487963,PPG_1,PPG_2,128510.0,128510.0,257.77312884520506,-0.05717733225178847,-0.002183729812397299
63108.846436071515,5.859528698361828,PPG_1,PPG_2,128537.0,128537.0,284.80140897749516,-2.106128807543908,-0.07073683977764647
63108.85648672109,5.869579347934632,PPG_1,PPG_2,128563.0,128563.0,310.82968910978525,-3.8159368979747055,-0.12794300764263414
63108.86653737065,5.87962999750016,PPG_1,PPG_2,128527.0,128527.0,274.8579692420608,-5.261263448048645,-0.1763002435839035
63108.87658802022,5.889680647065688,PPG_1,PPG_2,128535.0,128535.0,282.8862493743509,-6.517779597733689,-0.21834032643661702
63108.88663866979,5.8997312966384925,PPG_1,PPG_2,128551.0,128551.0,298.914529506641,-7.645769170600293,-0.2560802115246004
63108.89668931936,5.909781946204021,PPG_1,PPG_2,128552.0,128552.0,299.9428096389165,-8.678821168450188,-0.2906437080555896
63108.90673996893,5.919832595776825,PPG_1,PPG_2,128513.0,128513.0,260.9710897712066,-9.619501009397048,-0.32211664890175057
63108.916790618496,5.929883245342353,PPG_1,PPG_2,128532.0,128532.0,279.9993699034967,-10.443775487189326,-0.3496949393586225
63108.92684126806,5.939933894907881,PPG_1,PPG_2,128492.0,128492.0,240.02765003577224,-11.112948085845467,-0.3720838847751389
63108.936891917634,5.949984544480685,PPG_1,PPG_2,128512.0,128512.0,260.05593016806233,-11.588331257422844,-0.38798909054977865
63108.9469425672,5.960035194046213,PPG_1,PPG_2,128523.0,128523.0,271.0842103003524,-11.843192522767719,-0.3965161506386852
63108.956993216765,5.970085843611741,PPG_1,PPG_2,128512.0,128512.0,260.11249043262796,-11.868812454099158,-0.39737333344220477
63108.96704386634,5.9801364931845455,PPG_1,PPG_2,128546.0,128546.0,294.14077056491806,-11.675166971806764,-0.3908944098552166
63108.9770945159,5.990187142750074,PPG_1,PPG_2,128479.0,128479.0,227.16905069720815,-11.289186510260214,-0.37798040903874247
63108.98714516547,6.000237792322878,PPG_1,PPG_2,128525.0,128525.0,273.1973308294837,-10.752759725854828,-0.3600328271740209
63108.99719581504,6.010288441888406,PPG_1,PPG_2,128497.0,128497.0,245.22561096177378,-10.11965904391105,-0.3388507634737674
63109.00724646461,6.020339091453934,PPG_1,PPG_2,128546.0,128546.0,294.2538910940639,-9.44915761224824,-0.31641735842200336
63109.01729711418,6.030389741026738,PPG_1,PPG_2,128534.0,128534.0,282.2821712263394,-8.796646770296823,-0.2945858762999412
63109.027347763746,6.040440390592266,PPG_1,PPG_2,128528.0,128528.0,276.3104513586295,-8.205533534679104,-0.27480861406026885
63109.03739841332,6.0504910401650704,PPG_1,PPG_2,128481.0,128481.0,229.3387314909196,-7.705350346759711,-0.25807365791431214
63109.04744906288,6.060541689730599,PPG_1,PPG_2,128500.0,128500.0,248.36701162319514,-7.3164935651654845,-0.24506342217626892
63109.05749971245,6.070592339296127,PPG_1,PPG_2,128500.0,128500.0,248.39529175548523,-7.05612885606716,-0.23635222976926334
63109.06755036202,6.080642988868931,PPG_1,PPG_2,128543.0,128543.0,291.4235718877753,-6.938932257540588,-0.23243110650049498
63109.07760101159,6.090693638434459,PPG_1,PPG_2,128517.0,128517.0,265.45185202005086,-6.971712548468993,-0.2335278581394704
63109.08765166116,6.100744288007263,PPG_1,PPG_2,128513.0,128513.0,261.48013215234096,-7.146737167448022,-0.23938377132052052
63109.097702310726,6.110794937572791,PPG_1,PPG_2,128507.0,128507.0,255.50841228463105,-7.438959812197902,-0.24916085552258463
63109.10775296029,6.120845587138319,PPG_1,PPG_2,128508.0,128508.0,256.5366924169066,-7.8082831717697125,-0.2615175487809508
63109.117803609864,6.1308962367111235,PPG_1,PPG_2,128506.0,128506.0,254.56497254919668,-8.204807543314974,-0.2747843240922442
63109.12785425943,6.140946886276652,PPG_1,PPG_2,128514.0,128514.0,262.5932526814868,-8.575051402060714,-0.2871718150936776
63109.137904909,6.150997535849456,PPG_1,PPG_2,128484.0,128484.0,232.62153281376231,-8.868407511704076,-0.2969868223722135
63109.14795555857,6.161048185414984,PPG_1,PPG_2,128496.0,128496.0,244.6498129460524,-9.043263927300362,-0.30283710786264595
63109.158006208134,6.171098834980512,PPG_1,PPG_2,128505.0,128505.0,253.6780930783425,-9.071141161647592,-0.303769814729928
63109.16805685771,6.181149484553316,PPG_1,PPG_2,128490.0,128490.0,238.70637321061804,-8.936981077907308,-0.2992811330385846
63109.17810750727,6.191200134118844,PPG_1,PPG_2,128529.0,128529.0,277.73465334290813,-8.635520819930676,-0.2891949799674007
63109.18815815684,6.201250783684372,PPG_1,PPG_2,128493.0,128493.0,241.76293347519822,-8.165891221965449,-0.27348227526918134
63109.19820880641,6.2113014332571765,PPG_1,PPG_2,128511.0,128511.0,259.79121360747376,-7.527470007286695,-0.2521221990244372
63109.208259455976,6.221352082822705,PPG_1,PPG_2,128503.0,128503.0,251.81949373976386,-6.719137974617848,-0.2250773053838592
63109.21831010555,6.231402732395509,PPG_1,PPG_2,128486.0,128486.0,234.84777387205395,-5.742145097762873,-0.19238941553875907
63109.228360755114,6.241453381961037,PPG_1,PPG_2,128477.0,128477.0,225.8760540043295,-4.604934415921057,-0.15434101377519688
63109.23841140468,6.251504031526565,PPG_1,PPG_2,128512.0,128512.0,260.9043341366196,-3.3267822060303707,-0.11157703910153106
63109.24846205425,6.261554681099369,PPG_1,PPG_2,128513.0,128513.0,261.9326142689097,-1.9373329647555584,-0.06508932683657162
63109.25851270382,6.271605330664897,PPG_1,PPG_2,128491.0,128491.0,239.96089440118521,-0.47230596286210835,-0.016072959990430305
63109.26856335339,6.281655980237701,PPG_1,PPG_2,128508.0,128508.0,256.9891745334753,1.0315432083228209,0.03424230557177203
63109.27861400296,6.29170662980323,PPG_1,PPG_2,128508.0,128508.0,257.0174546657654,2.5400801143623974,0.08471441174579646
63109.28866465252,6.301757279368758,PPG_1,PPG_2,128510.0,128510.0,259.04573479804094,4.0238939651121335,0.13435934248477563
63109.298715302095,6.311807928941562,PPG_1,PPG_2,128485.0,128485.0,234.07401493033103,5.45874188174682,0.1823659879317805
63109.30876595166,6.32185857850709,PPG_1,PPG_2,128514.0,128514.0,263.1022950626211,6.824374018223747,0.22805683573999114
63109.31881660123,6.331909228079894,PPG_1,PPG_2,128504.0,128504.0,253.13057519489666,8.102922293089726,0.27083406181864733
63109.3288672508,6.341959877645422,PPG_1,PPG_2,128490.0,128490.0,239.15885532718676,9.27804250128833,0.3101508274065391
63109.33891790037,6.35201052721095,PPG_1,PPG_2,128493.0,128493.0,242.18713545947685,10.335249157792532,0.3455224821544844
63109.34896854994,6.3620611767837545,PPG_1,PPG_2,128520.0,128520.0,269.2154155917524,11.264313980851846,0.3766068117484537
63109.3590191995,6.372111826349283,PPG_1,PPG_2,128503.0,128503.0,252.24369572404248,12.064532095880502,0.4033802327382909
63109.369069849075,6.382162475922087,PPG_1,PPG_2,128543.0,128543.0,292.2719758563326,12.751255105214714,0.4263563737266192
63109.37912049864,6.392213125487615,PPG_1,PPG_2,128503.0,128503.0,252.30025598860811,13.359590267027137,0.44670984121784374
63109.38917114821,6.402263775053143,PPG_1,PPG_2,128496.0,128496.0,245.3285361208982,13.941372002064751,0.4661748933377925
63109.39922179778,6.412314424625947,PPG_1,PPG_2,128509.0,128509.0,258.3568162531883,14.554759186868605,0.4866973896673545
63109.409272447345,6.422365074191475,PPG_1,PPG_2,128491.0,128491.0,240.38509638546384,15.249633867414015,0.5099462664523479
63109.41932309691,6.432415723757003,PPG_1,PPG_2,128477.0,128477.0,226.41337651775393,16.053273500762543,0.5368341634190242
63109.42937374648,6.4424663733298075,PPG_1,PPG_2,128498.0,128498.0,247.44165665004402,16.96021522431805,0.5671783059996137
63109.43942439605,6.452517022895336,PPG_1,PPG_2,128503.0,128503.0,252.46993678231956,17.929603736971703,0.5996117716567352
63109.44947504562,6.46256767246814,PPG_1,PPG_2,128521.0,128521.0,270.49821691460966,18.8911612758903,0.6317832313024562
63109.45952569519,6.472618322033668,PPG_1,PPG_2,128518.0,128518.0,267.52649704689975,19.75697420082734,0.6607513007605582
63109.46957634475,6.482668971599196,PPG_1,PPG_2,128499.0,128499.0,248.5547771791753,20.433858228467237,0.6833982525015228
63109.479626994325,6.492719621172,PPG_1,PPG_2,128498.0,128498.0,247.58305731146538,20.83240997653428,0.696732859075447
63109.48967764389,6.502770270737528,PPG_1,PPG_2,128485.0,128485.0,234.61133744375547,20.872694207418377,0.6980806749427161
63109.499728293464,6.512820920310332,PPG_1,PPG_2,128533.0,128533.0,282.639617576031,20.48930763217203,0.6852534594771492
63109.50977894303,6.522871569875861,PPG_1,PPG_2,128484.0,128484.0,233.6678977083211,19.63761989361785,0.6567579856207784
63109.519829592595,6.532922219441389,PPG_1,PPG_2,128501.0,128501.0,250.6961778406112,18.300045096956836,0.6120058705863434
63109.52988024217,6.542972869014193,PPG_1,PPG_2,128506.0,128506.0,255.72445797288674,16.490428486713313,0.5514603437776721
63109.53993089173,6.553023518579721,PPG_1,PPG_2,128514.0,128514.0,263.75273810517683,14.255825525005042,0.4766957705752646
63109.549981541306,6.563074168152525,PPG_1,PPG_2,128472.0,128472.0,221.78101823746692,11.674758739448697,0.39033933055626907
63109.56003219087,6.573124817718053,PPG_1,PPG_2,128494.0,128494.0,243.80929836974246,8.850640662625125,0.29585096447735426
63109.57008284044,6.583175467283581,PPG_1,PPG_2,128483.0,128483.0,232.83757850203256,5.9009709202664276,0.1971619341867492
63109.58013349001,6.5932261168563855,PPG_1,PPG_2,128474.0,128474.0,223.86585863432265,2.944650635259353,0.09825039233986738
63109.590184139575,6.603276766421914,PPG_1,PPG_2,128454.0,128454.0,203.8941387665982,0.08937035601777006,0.0027194120678484483
63109.60023478915,6.613327415994718,PPG_1,PPG_2,128483.0,128483.0,232.92241889888828,-2.579177578212649,-0.08656394197388405
63109.61028543871,6.623378065560246,PPG_1,PPG_2,128467.0,128467.0,216.95069903117837,-5.004290573226284,-0.1677025339952604
63109.62033608828,6.633428715125774,PPG_1,PPG_2,128451.0,128451.0,200.97897916345391,-7.160833535024557,-0.2398554027125949
63109.63038673785,6.643479364698578,PPG_1,PPG_2,128480.0,128480.0,230.007259295744,-9.054320051179843,-0.3032070198323725
63109.64043738742,6.653530014264106,PPG_1,PPG_2,128448.0,128448.0,198.0355394280341,-10.717284077181727,-0.35884589518763554
63109.65048803698,6.663580663829634,PPG_1,PPG_2,128461.0,128461.0,211.06381956030964,-12.203384989869882,-0.40856734565412045
63109.66053868656,6.6736313134024385,PPG_1,PPG_2,128444.0,128444.0,194.09209969259973,-13.579684627358768,-0.45461510302253577
63109.67058933612,6.683681962967967,PPG_1,PPG_2,128480.0,128480.0,230.12037982488982,-14.917133596678994,-0.49936300816931184
63109.680639985694,6.693732612540771,PPG_1,PPG_2,128434.0,128434.0,184.14865995716536,-16.279648488897234,-0.5449495602970093
63109.69069063526,6.703783262106299,PPG_1,PPG_2,128457.0,128457.0,207.17694008945546,-17.713257221218697,-0.5929147455437527
63109.700741284825,6.713833911671827,PPG_1,PPG_2,128460.0,128460.0,210.20522022174555,-19.236620454289717,-0.6438829058408853
63109.7107919344,6.723884561244631,PPG_1,PPG_2,128472.0,128472.0,222.2335003540211,-20.833700533568518,-0.6973174588883161
63109.72084258396,6.733935210810159,PPG_1,PPG_2,128444.0,128444.0,194.26178048631118,-22.450583635841692,-0.75141457463152
63109.730893233536,6.743985860382963,PPG_1,PPG_2,128438.0,128438.0,188.29006061860127,-23.999258097363533,-0.803229589257937
63109.7409438831,6.754036509948492,PPG_1,PPG_2,128451.0,128451.0,201.3183407508768,-25.368776304867087,-0.8490504558868145
63109.75099453267,6.76408715951402,PPG_1,PPG_2,128434.0,128434.0,184.3466208831669,-26.44123643723277,-0.884932456155722
63109.76104518224,6.774137809086824,PPG_1,PPG_2,128412.0,128412.0,162.374901015457,-27.10948955417669,-0.9072906378710532
63109.771095831806,6.784188458652352,PPG_1,PPG_2,128446.0,128446.0,196.40318114773254,-27.293750446969145,-0.9134555751075952
63109.78114648138,6.794239108225156,PPG_1,PPG_2,128424.0,128424.0,174.43146128002263,-26.954025631610666,-0.9020891797068094
63109.791197130944,6.804289757790684,PPG_1,PPG_2,128429.0,128429.0,179.45974141231272,-26.096274201887784,-0.8733908289680448
63109.80124778051,6.814340407356212,PPG_1,PPG_2,128443.0,128443.0,193.48802154458826,-24.77212877934446,-0.8290880292891738
63109.81129843008,6.8243910569290165,PPG_1,PPG_2,128443.0,128443.0,193.51630167687836,-23.072955152541823,-0.7722376656310275
63109.82134907965,6.834441706494545,PPG_1,PPG_2,128449.0,128449.0,199.54458180916845,-21.119791628724887,-0.7068893958242736
63109.83139972922,6.844492356067349,PPG_1,PPG_2,128411.0,128411.0,161.572861941444,-19.05140435245777,-0.6376860095505961
63109.841450378786,6.854543005632877,PPG_1,PPG_2,128470.0,128470.0,220.60114207373408,-17.01157562536433,-0.569438125340076
63109.85150102835,6.864593655198405,PPG_1,PPG_2,128442.0,128442.0,192.62942220602417,-15.135136212383596,-0.5066568643036934
63109.861551677925,6.874644304771209,PPG_1,PPG_2,128482.0,128482.0,232.6577023382997,-13.533420084281284,-0.4530671999377979
63109.87160232749,6.884694954336737,PPG_1,PPG_2,128435.0,128435.0,185.6859824705898,-12.282598021024967,-0.4112176278598916
63109.881652977056,6.894745603902265,PPG_1,PPG_2,128465.0,128465.0,215.7142626028799,-11.418553419952888,-0.38230872237020486
63109.89170362663,6.9047962534750695,PPG_1,PPG_2,128440.0,128440.0,190.74254273515544,-10.939134436796811,-0.36626848780728494
63109.901754276194,6.914846903040598,PPG_1,PPG_2,128437.0,128437.0,187.77082286744553,-10.811843347298618,-0.36200962655010366
63109.91180492577,6.924897552613402,PPG_1,PPG_2,128426.0,128426.0,176.79910299973562,-10.983695081854139,-0.36775938246124534
63109.92185557533,6.93494820217893,PPG_1,PPG_2,128470.0,128470.0,220.82738313201116,-11.389546096009097,-0.3813382053559682
63109.9319062249,6.944998851744458,PPG_1,PPG_2,128451.0,128451.0,201.85566326430126,-11.956663581961726,-0.40031262610069734
63109.94195687447,6.955049501317262,PPG_1,PPG_2,128429.0,128429.0,179.88394339659135,-12.606790307723292,-0.42206434128766923
63109.95200752403,6.96510015088279,PPG_1,PPG_2,128458.0,128458.0,208.9122235288669,-13.258479745990472,-0.44386834116929264
63109.96205817361,6.975150800455594,PPG_1,PPG_2,128466.0,128466.0,216.94050366115698,-13.830651612473025,-0.46301186963006696
63109.972108823174,6.985201450021123,PPG_1,PPG_2,128423.0,128423.0,173.96878379344707,-14.247472094241276,-0.47695770517912667
63109.98215947274,6.995252099586651,PPG_1,PPG_2,128418.0,128418.0,168.9970639257226,-14.445169333247858,-0.4835721910412245
63109.99221012231,7.005302749159455,PPG_1,PPG_2,128450.0,128450.0,201.0253440580127,-14.379202309977929,-0.48136508918701454
63110.00226077188,7.015353398724983,PPG_1,PPG_2,128458.0,128458.0,209.0536241903028,-14.02781629581309,-0.4696085374288239
63110.01231142145,7.025404048297787,PPG_1,PPG_2,128439.0,128439.0,190.08190432257834,-13.390697283572473,-0.44829202982297395
63110.02236207102,7.035454697863315,PPG_1,PPG_2,128445.0,128445.0,196.11018445486843,-12.485726596037157,-0.4180138334839949
63110.03241272058,7.045505347428843,PPG_1,PPG_2,128430.0,128430.0,181.13846458715852,-11.346564847399575,-0.37990015360222806
63110.042463370155,7.0555559970016475,PPG_1,PPG_2,128436.0,128436.0,187.16674471943406,-10.020396804077,-0.3355296817767153
63110.05251401972,7.065606646567176,PPG_1,PPG_2,128471.0,128471.0,222.19502485172416,-8.563520181021579,-0.2867860074874644
63110.06256466929,7.07565729613998,PPG_1,PPG_2,128441.0,128441.0,192.22330498401425,-7.034100371859632,-0.23561520836174998
63110.07261531886,7.085707945705508,PPG_1,PPG_2,128471.0,128471.0,222.2515851162898,-5.4843224674841045,-0.18376327512588747
63110.082665968424,7.095758595271036,PPG_1,PPG_2,128438.0,128438.0,189.27986524857988,-3.9551254905164335,-0.13259993144267726
63110.092716618,7.10580924484384,PPG_1,PPG_2,128454.0,128454.0,205.30814538086997,-2.4748918179960024,-0.08307478506892507
63110.10276726756,7.115859894409368,PPG_1,PPG_2,128479.0,128479.0,230.3364255131455,-1.0613210846684948,-0.035780024263697696
63110.11281791713,7.125910543974896,PPG_1,PPG_2,128425.0,128425.0,176.3647056454356,0.27454806058616993,0.008915023675771022
63110.1228685667,7.1359611935477005,PPG_1,PPG_2,128440.0,128440.0,191.3929857777257,1.5227870367632912,0.05067817171937239
63110.13291921627,7.146011843113229,PPG_1,PPG_2,128464.0,128464.0,215.42126591000124,2.6695838740523783,0.08904730375714813
63110.14296986584,7.156062492686033,PPG_1,PPG_2,128466.0,128466.0,217.44954604229133,3.6960822452167106,0.12339153131263234
63110.153020515405,7.166113142251561,PPG_1,PPG_2,128454.0,128454.0,205.47782617458142,4.581600519425813,0.15301889553288045
63110.16307116497,7.176163791817089,PPG_1,PPG_2,128453.0,128453.0,204.50610630685696,5.308497625114856,0.17733916754548038
63110.17312181454,7.186214441389893,PPG_1,PPG_2,128480.0,128480.0,231.53438643914706,5.866532954160172,0.19600972062487113
63110.18317246411,7.196265090955421,PPG_1,PPG_2,128456.0,128456.0,207.56266657143715,6.256280692471118,0.20904976568466357
63110.19322311368,7.206315740528225,PPG_1,PPG_2,128446.0,128446.0,197.5909467037127,6.490998986411156,0.21690288920142867
63110.20327376325,7.216366390093754,PPG_1,PPG_2,128448.0,128448.0,199.61922683600278,6.596778171779185,0.22044201260869978
63110.21332441281,7.226417039659282,PPG_1,PPG_2,128484.0,128484.0,235.64750696829287,6.612784520393977,0.22097754748591084
63110.223375062385,7.236467689232086,PPG_1,PPG_2,128465.0,128465.0,216.6757871005684,6.593120606837404,0.2203196390656059
63110.23342571195,7.246518338797614,PPG_1,PPG_2,128463.0,128463.0,214.7040672328585,6.6084850663703145,0.22083369783987045
63110.24347636152,7.256568988370418,PPG_1,PPG_2,128464.0,128464.0,215.7323473651486,6.74428363319979,0.22537719933185038
63110.25352701109,7.266619637935946,PPG_1,PPG_2,128458.0,128458.0,209.76062749742414,7.094062471292277,0.23707997874874837
63110.263577660655,7.276670287501474,PPG_1,PPG_2,128457.0,128457.0,208.78890762971423,7.749658280841007,0.2590146766499483
63110.27362831023,7.2867209370742785,PPG_1,PPG_2,128437.0,128437.0,188.81718776200432,8.790357735852398,0.2938340391582768
63110.28367895979,7.296771586639807,PPG_1,PPG_2,128501.0,128501.0,252.84546789427986,10.273562353910537,0.34345858640052357
63110.293729609366,7.306822236212611,PPG_1,PPG_2,128442.0,128442.0,193.87374802656996,12.228463372637291,0.40886498871117194
63110.30378025893,7.316872885778139,PPG_1,PPG_2,128476.0,128476.0,227.90202815886005,14.651958728846084,0.4899494583327698
63110.3138309085,7.326923535343667,PPG_1,PPG_2,128458.0,128458.0,209.9303082911356,17.50550035845247,0.5854222674664918
63110.32388155807,7.336974184916471,PPG_1,PPG_2,128482.0,128482.0,233.95858842342568,20.71336844136011,0.6927500085542734
63110.333932207635,7.347024834481999,PPG_1,PPG_2,128461.0,128461.0,212.98686855571577,24.163698076643467,0.8081899444220643
63110.3439828572,7.357075484047527,PPG_1,PPG_2,128476.0,128476.0,228.0151486879913,27.71285742457957,0.9269364906420364
63110.354033506774,7.3671261336203315,PPG_1,PPG_2,128511.0,128511.0,263.0434288202814,31.19332369675897,1.043384727686322
63110.36408415634,7.37717678318586,PPG_1,PPG_2,128479.0,128479.0,231.0717089525715,34.42426617724684,1.1514844839895804
63110.37413480591,7.387227432758664,PPG_1,PPG_2,128486.0,128486.0,238.09998908484704,37.22240226319818,1.245103553602054
63110.38418545548,7.397278082324192,PPG_1,PPG_2,128485.0,128485.0,237.12826921713713,39.41122868433868,1.3183365511389504
63110.39423610504,7.40732873188972,PPG_1,PPG_2,128477.0,128477.0,229.15654934942722,40.82960315902105,1.3657920338613707
63110.404286754616,7.417379381462524,PPG_1,PPG_2,128503.0,128503.0,255.18482948170276,41.34214186442971,1.3829403766391406
63110.41433740418,7.427430031028052,PPG_1,PPG_2,128502.0,128502.0,254.21310961399286,40.852463233787574,1.3665568783382562
63110.424388053754,7.437480680600856,PPG_1,PPG_2,128491.0,128491.0,243.24138974628295,39.31760080979044,1.3152039820873564
63110.43443870332,7.447531330166385,PPG_1,PPG_2,128506.0,128506.0,258.2696698785585,36.76022569423678,1.2296402097711052
63110.444489352885,7.457581979731913,PPG_1,PPG_2,128522.0,128522.0,274.2979500108486,33.27548574145269,1.1130489853989192
63110.45454000246,7.467632629304717,PPG_1,PPG_2,128472.0,128472.0,224.32623014313867,29.0296337175805,0.9709927365328065
63110.46459065202,7.477683278870245,PPG_1,PPG_2,128483.0,128483.0,235.3545102754142,24.248156132794485,0.8110157128605026
63110.4746413016,7.487733928443049,PPG_1,PPG_2,128457.0,128457.0,209.3827904077043,19.194071479519806,0.6419178961539256
63110.48469195116,7.497784578008577,PPG_1,PPG_2,128460.0,128460.0,212.4110705399944,14.140933041358362,0.4728517375854211
63110.49474260073,7.507835227574105,PPG_1,PPG_2,128482.0,128482.0,234.43935067226994,9.345920833924138,0.31242187718861214
63110.5047932503,7.517885877146909,PPG_1,PPG_2,128415.0,128415.0,167.46763080456003,5.026188573897908,0.167893768927877
63110.514843899866,7.527936526712438,PPG_1,PPG_2,128454.0,128454.0,206.49591093685012,1.339894336829162,0.044559011006384715
63110.52489454944,7.537987176285242,PPG_1,PPG_2,128452.0,128452.0,204.52419106912566,-1.626020489956228,-0.0546735417016749
63110.53494519901,7.54803782585077,PPG_1,PPG_2,128439.0,128439.0,191.55247120141576,-3.8591141628038588,-0.1293876176392714
63110.54499584857,7.558088475416298,PPG_1,PPG_2,128429.0,128429.0,181.58075133370585,-5.41586527982742,-0.18147285821268494
63110.55504649814,7.568139124989102,PPG_1,PPG_2,128453.0,128453.0,205.6090314659814,-6.40859276602364,-0.2146871911763449
63110.56509714771,7.57818977455463,PPG_1,PPG_2,128467.0,128467.0,219.63731159827148,-6.985803153179135,-0.2339992967195537
63110.57514779727,7.588240424120158,PPG_1,PPG_2,128473.0,128473.0,225.66559173056157,-7.308556095849335,-0.24479785307254076
63110.585198446846,7.598291073692963,PPG_1,PPG_2,128428.0,128428.0,180.6938718628371,-7.528501229098395,-0.2521567012872329
63110.59524909641,7.608341723258491,PPG_1,PPG_2,128443.0,128443.0,195.7221519951272,-7.772484405330128,-0.2603198060320635
63110.605299745985,7.618392372831295,PPG_1,PPG_2,128448.0,128448.0,200.7504321274173,-8.133662208362011,-0.27240396807632167
63110.61535039555,7.628443022396823,PPG_1,PPG_2,128469.0,128469.0,221.77871225969284,-8.665987827644857,-0.2902143345764915
63110.62540104512,7.638493671962351,PPG_1,PPG_2,128447.0,128447.0,199.80699239198293,-9.38117701587121,-0.31414288713503774
63110.63545169469,7.648544321535155,PPG_1,PPG_2,128448.0,128448.0,200.83527252427302,-10.250568690952717,-0.34323069317799815
63110.645502344254,7.658594971100683,PPG_1,PPG_2,128434.0,128434.0,186.86355265654856,-11.213768287538565,-0.37545709222135243
63110.65555299383,7.668645620673487,PPG_1,PPG_2,128417.0,128417.0,169.89183278883866,-12.19254121164409,-0.4082045382718492
63110.66560364339,7.678696270239016,PPG_1,PPG_2,128460.0,128460.0,212.92011292112875,-13.105807505268977,-0.4387602861308836
63110.67565429296,7.688746919804544,PPG_1,PPG_2,128432.0,128432.0,184.9483930534043,-13.881994113623824,-0.46472966928014403
63110.68570494253,7.698797569377348,PPG_1,PPG_2,128417.0,128417.0,169.97667318569438,-14.467715965054973,-0.48432654845195766
63110.695755592096,7.708848218942876,PPG_1,PPG_2,128437.0,128437.0,190.00495331798447,-14.833097609051277,-0.49655136115358156
63110.70580624167,7.71889886851568,PPG_1,PPG_2,128456.0,128456.0,209.03323345026,-14.972879301959201,-0.5012281287005922
63110.715856891235,7.728949518081208,PPG_1,PPG_2,128441.0,128441.0,194.0615135825501,-14.902894940356173,-0.4988866161295655
63110.7259075408,7.739000167646736,PPG_1,PPG_2,128461.0,128461.0,214.0897937148402,-14.654600036695081,-0.49057925109933065
63110.73595819037,7.7490508172195405,PPG_1,PPG_2,128405.0,128405.0,158.11807384711574,-14.271467951894767,-0.4777605502871084
63110.74600883994,7.759101466785069,PPG_1,PPG_2,128425.0,128425.0,178.14635397940583,-13.808029986023287,-0.462255003074513
63110.75605948951,7.769152116357873,PPG_1,PPG_2,128452.0,128452.0,205.17463411169592,-13.328143799610224,-0.4461991369865723
63110.76611013908,7.779202765923401,PPG_1,PPG_2,128450.0,128450.0,203.20291424397146,-12.898634968568478,-0.4318287790349509
63110.77616078864,7.789253415488929,PPG_1,PPG_2,128453.0,128453.0,206.23119437626156,-12.578898290470883,-0.4211311398190574
63110.786211438215,7.799304065061733,PPG_1,PPG_2,128446.0,128446.0,199.25947450855165,-12.411081568388928,-0.4155163859600126
63110.79626208778,7.809354714627261,PPG_1,PPG_2,128442.0,128442.0,195.2877546408272,-12.41481510683644,-0.4156413013983908
63110.806312737346,7.819405364192789,PPG_1,PPG_2,128428.0,128428.0,181.31603477311728,-12.587178241054191,-0.4214081675425975
63110.81636338692,7.8294560137655935,PPG_1,PPG_2,128441.0,128441.0,194.34431490540737,-12.905985949370738,-0.4320747256087798
63110.82641403648,7.839506663331122,PPG_1,PPG_2,128436.0,128436.0,189.3725950376829,-13.333581362259695,-0.446381065077475
63110.83646468606,7.849557312903926,PPG_1,PPG_2,128444.0,128444.0,197.400875169973,-13.819257787749073,-0.46263065898225775
63110.84651533562,7.859607962469454,PPG_1,PPG_2,128472.0,128472.0,225.4291553022631,-14.300548317082281,-0.47873351109002105
63110.85656598519,7.869658612034982,PPG_1,PPG_2,128430.0,128430.0,183.45743543453864,-14.705758654265242,-0.49229089843615076
63110.86661663476,7.879709261607786,PPG_1,PPG_2,128426.0,128426.0,179.48571556682873,-14.960602912538862,-0.5008173895083481
63110.87666728433,7.889759911173314,PPG_1,PPG_2,128442.0,128442.0,195.51399569911882,-14.99909638241399,-0.5021052907129959
63110.8867179339,7.899810560746118,PPG_1,PPG_2,128432.0,128432.0,185.54227583139436,-14.77534495894785,-0.4946190929563758
63110.896768583465,7.909861210311647,PPG_1,PPG_2,128434.0,128434.0,187.57055596368446,-14.272720833775912,-0.47780246877586097
63110.90681923303,7.919911859877175,PPG_1,PPG_2,128421.0,128421.0,174.59883609597455,-13.508966604176015,-0.45224904385606324
63110.9168698826,7.929962509449979,PPG_1,PPG_2,128430.0,128430.0,183.6271162282501,-12.536273242502268,-0.4197050057031922
63110.92692053217,7.940013159015507,PPG_1,PPG_2,128438.0,128438.0,191.65539636054018,-11.434758182804543,-0.3828508957223444
63110.93697118174,7.950063808588311,PPG_1,PPG_2,128466.0,128466.0,219.68367649283027,-10.298745604609886,-0.3448425796963235
63110.94702183131,7.960114458153839,PPG_1,PPG_2,128469.0,128469.0,222.7119566251058,-9.218465680387359,-0.30869894753543026
63110.95707248087,7.970165107719367,PPG_1,PPG_2,128445.0,128445.0,198.7402367573959,-8.263024525556634,-0.2767321277535722
63110.967123130446,7.9802157572921715,PPG_1,PPG_2,128437.0,128437.0,190.768516889686,-7.470245046563196,-0.2502075860760385
63110.97717378001,7.9902664068577,PPG_1,PPG_2,128478.0,128478.0,231.79679702196154,-6.844815325370284,-0.22928217472809032
63110.987224429584,8.000317056430504,PPG_1,PPG_2,128396.0,128396.0,149.82507715425163,-6.362484707126755,-0.21314452368521183
63110.99727507915,8.010367705996032,PPG_1,PPG_2,128474.0,128474.0,227.85335728654172,-5.977311419901059,-0.2002575290280567
63111.007325728715,8.02041835556156,PPG_1,PPG_2,128441.0,128441.0,194.88163741881726,-5.62922126128846,-0.18861124886527814
63111.01737637829,8.030469005134364,PPG_1,PPG_2,128454.0,128454.0,207.90991755110736,-5.250282052131636,-0.17593283183650557
63111.02742702785,8.040519654699892,PPG_1,PPG_2,128467.0,128467.0,220.93819768339745,-4.770609588910857,-0.15988411642523023
63111.03747767742,8.05057030426542,PPG_1,PPG_2,128433.0,128433.0,186.966477815673,-4.126021334830774,-0.13831770550866135
63111.04752832699,8.060620953838225,PPG_1,PPG_2,128434.0,128434.0,187.99475794796308,-3.2681084664565785,-0.10961395341132403
63111.05757897656,8.070671603403753,PPG_1,PPG_2,128434.0,128434.0,188.02303808025317,-2.1745202217644404,-0.07302505606596565
63111.06762962613,8.080722252976557,PPG_1,PPG_2,128450.0,128450.0,204.0513182125287,-0.8550823985432919,-0.028879761617402553
63111.077680275695,8.090772902542085,PPG_1,PPG_2,128463.0,128463.0,217.0795983448188,0.6494975845575393,0.021459955197178814
63111.08773092526,8.100823552107613,PPG_1,PPG_2,128448.0,128448.0,202.1078784771089,2.2757257250588574,0.07586973399805322
63111.097781574834,8.110874201680417,PPG_1,PPG_2,128467.0,128467.0,221.13615860938444,3.948869371047864,0.13184919555889354
63111.1078322244,8.120924851245945,PPG_1,PPG_2,128483.0,128483.0,237.16443874167453,5.594609884014156,0.18691181257063072
63111.11788287397,8.13097550081875,PPG_1,PPG_2,128447.0,128447.0,201.19271887396462,7.148119851764462,0.23888861189239793
63111.12793352354,8.141026150384278,PPG_1,PPG_2,128461.0,128461.0,215.22099900624016,8.558481286450068,0.2860759970933894
63111.1379841731,8.151076799949806,PPG_1,PPG_2,128448.0,128448.0,202.24927913853026,9.788567602964584,0.3272317997269024
63111.14803482267,8.16112744952261,PPG_1,PPG_2,128441.0,128441.0,195.27755927082035,10.813417464706578,0.3615208720241626
63111.15808547224,8.171178099088138,PPG_1,PPG_2,128481.0,128481.0,235.3058394030959,11.620862617665685,0.38853609275008116
63111.168136121814,8.181228748660942,PPG_1,PPG_2,128473.0,128473.0,227.33411953538598,12.21604818483741,0.40844960565073946
63111.17818677138,8.19127939822647,PPG_1,PPG_2,128475.0,128475.0,229.36239966767607,12.627782442335736,0.42222526806691196
63111.188237420945,8.201330047791998,PPG_1,PPG_2,128493.0,128493.0,247.3906797999516,12.91205819922581,0.431736468042871
63111.19828807052,8.211380697364802,PPG_1,PPG_2,128439.0,128439.0,193.4189599322417,13.148733619567123,0.4396550724180266
63111.20833872008,8.22143134693033,PPG_1,PPG_2,128464.0,128464.0,218.4472400645318,13.430597919173055,0.4490855906900167
63111.21838936966,8.231481996503135,PPG_1,PPG_2,128444.0,128444.0,198.47552019680734,13.848024597454641,0.4630517081524063
63111.22844001922,8.241532646068663,PPG_1,PPG_2,128471.0,128471.0,225.50380032909743,14.474574278045258,0.4840145907146186
63111.23849066879,8.251583295634191,PPG_1,PPG_2,128461.0,128461.0,215.53208046138752,15.357367444522682,0.5135507792226794
63111.24854131836,8.261633945206995,PPG_1,PPG_2,128458.0,128458.0,212.56036059366306,16.512771407792584,0.552207885505313
63111.258591967926,8.271684594772523,PPG_1,PPG_2,128478.0,128478.0,232.58864072595316,17.92624629645532,0.599499439572888
63111.26864261749,8.281735244338051,PPG_1,PPG_2,128443.0,128443.0,197.61692085824325,19.5554367793735,0.6540083314020145
63111.278693267064,8.291785893910856,PPG_1,PPG_2,128482.0,128482.0,236.6452009905188,21.336338806754934,0.7135931356263355
63111.28874391663,8.301836543476384,PPG_1,PPG_2,128469.0,128469.0,223.67348112280888,23.192718095398195,0.7757032319591093
63111.2987945662,8.311887193049188,PPG_1,PPG_2,128506.0,128506.0,260.701761255099,25.048056286711535,0.8377784956174136
63111.30884521577,8.321937842614716,PPG_1,PPG_2,128486.0,128486.0,240.7300413873745,26.83698507148574,0.8976318563150558
63111.31889586533,8.331988492180244,PPG_1,PPG_2,128486.0,128486.0,240.7583215196646,28.511598945588613,0.9536605082597482
63111.32894651491,8.342039141753048,PPG_1,PPG_2,128469.0,128469.0,223.7866016519547,30.039553561702267,1.0047822854630934
63111.33899716447,8.352089791318576,PPG_1,PPG_2,128465.0,128465.0,219.81488178423024,31.394865110797717,1.050127830627391
63111.349047814045,8.36214044089138,PPG_1,PPG_2,128483.0,128483.0,237.84316191652033,32.54578483862153,1.088634904911047
63111.35909846361,8.372191090456909,PPG_1,PPG_2,128452.0,128452.0,206.87144204881042,33.44467202843967,1.1187095616869824
63111.369149113176,8.382241740022437,PPG_1,PPG_2,128480.0,128480.0,234.89972218108596,34.02318198431727,1.138065147751125
63111.37919976275,8.39229238959524,PPG_1,PPG_2,128469.0,128469.0,223.92800231337606,34.19453072520103,1.143798074673924
63111.389250412314,8.402343039160769,PPG_1,PPG_2,128485.0,128485.0,239.95628244566615,33.8632944146475,1.1327156847317112
63111.39930106189,8.412393688733573,PPG_1,PPG_2,128499.0,128499.0,253.9845625779417,32.94118028461985,1.1018639090217555
63111.40935171145,8.422444338299101,PPG_1,PPG_2,128489.0,128489.0,244.01284271023178,31.36490462522822,1.0491254230610696
63111.41940236102,8.43249498786463,PPG_1,PPG_2,128472.0,128472.0,227.04112284252187,29.111230611460016,0.9737227771933096
63111.42945301059,8.442545637437433,PPG_1,PPG_2,128513.0,128513.0,268.0694029747974,26.20536354254924,0.8764992816046521
63111.43950366016,8.452596287002962,PPG_1,PPG_2,128449.0,128449.0,204.0976831070875,22.72103850197046,0.7599219392215614
63111.44955430973,8.462646936575766,PPG_1,PPG_2,128458.0,128458.0,213.1259632393776,18.772191658496922,0.6278027869815241
63111.459604959295,8.472697586141294,PPG_1,PPG_2,128441.0,128441.0,196.15424337165314,14.498385300966435,0.4848112516860395
63111.46965560886,8.482748235706822,PPG_1,PPG_2,128475.0,128475.0,230.18252350394323,10.04879920290872,0.3359385386138542
63111.47970625843,8.492798885279626,PPG_1,PPG_2,128440.0,128440.0,195.21080363623332,5.568782964799958,0.186047704438103
63111.489756908,8.502849534845154,PPG_1,PPG_2,128443.0,128443.0,198.23908376850886,1.1892640647418382,0.039519275448457215
63111.49980755757,8.512900184410682,PPG_1,PPG_2,128436.0,128436.0,191.26736390079896,-2.982209126893091,-0.10004843216768716
63111.50985820714,8.522950833983487,PPG_1,PPG_2,128421.0,128421.0,176.29564403308905,-6.868432563162568,-0.23007235210367655
63111.5199088567,8.533001483549015,PPG_1,PPG_2,128409.0,128409.0,164.3239241653646,-10.425578996123846,-0.349086127452613
63111.529959506275,8.543052133121819,PPG_1,PPG_2,128462.0,128462.0,217.35220429765468,-13.640195404420172,-0.45663965167778475
63111.54001015584,8.553102782687347,PPG_1,PPG_2,128437.0,128437.0,192.38048442994477,-16.520005917577304,-0.5529913560339825
63111.550060805406,8.563153432252875,PPG_1,PPG_2,128413.0,128413.0,168.4087645622203,-19.082178296230513,-0.6387156335202006
63111.56011145498,8.57320408182568,PPG_1,PPG_2,128428.0,128428.0,183.4370446945104,-21.344050070053374,-0.7143925572092134
63111.570162104545,8.583254731391207,PPG_1,PPG_2,128417.0,128417.0,172.4653248268005,-23.31796023910374,-0.780434961098325
63111.58021275412,8.593305380964011,PPG_1,PPG_2,128426.0,128426.0,181.49360495907604,-25.008779449252224,-0.837005805572882
63111.59026340368,8.60335603052954,PPG_1,PPG_2,128422.0,128422.0,177.52188509136613,-26.41335125455587,-0.8839994833559742
63111.60031405325,8.613406680095068,PPG_1,PPG_2,128385.0,128385.0,140.55016522365622,-27.522358736851924,-0.9211042722213555
63111.61036470282,8.623457329667872,PPG_1,PPG_2,128430.0,128430.0,185.57844535593176,-28.32427931462938,-0.9479346536211573
63111.62041535239,8.6335079792334,PPG_1,PPG_2,128421.0,128421.0,176.60672548822185,-28.809672850928813,-0.9641747827172414
63111.63046600196,8.643558628806204,PPG_1,PPG_2,128400.0,128400.0,155.63500562051195,-28.975014640960634,-0.9697067311555453
63111.640516651525,8.653609278371732,PPG_1,PPG_2,128423.0,128423.0,178.6632857527875,-28.82728195605196,-0.9647639420675012
63111.65056730109,8.66365992793726,PPG_1,PPG_2,128372.0,128372.0,127.69156588507758,-28.389847242594414,-0.950128402682657
63111.66061795066,8.673710577510064,PPG_1,PPG_2,128422.0,128422.0,177.71984601736767,-27.70762440109472,-0.927302826753649
63111.67066860023,8.683761227075593,PPG_1,PPG_2,128400.0,128400.0,155.7481261496432,-26.848265429583442,-0.8985506914375908
63111.6807192498,8.693811876648397,PPG_1,PPG_2,128420.0,128420.0,175.7764062819333,-25.897799973787837,-0.8667503468735316
63111.69076989937,8.703862526213925,PPG_1,PPG_2,128407.0,128407.0,162.8046864142234,-24.951870216104748,-0.8351017561285482
63111.70082054893,8.713913175779453,PPG_1,PPG_2,128432.0,128432.0,187.83296654649894,-24.105108045346885,-0.8067710802163229
63111.710871198506,8.723963825352257,PPG_1,PPG_2,128394.0,128394.0,149.86124667878903,-23.440929987766463,-0.7845492404280845
63111.72092184807,8.734014474917785,PPG_1,PPG_2,128437.0,128437.0,192.88952681107912,-23.02325113623767,-0.7705746858403872
63111.73097249764,8.744065124483313,PPG_1,PPG_2,128395.0,128395.0,150.91780694335466,-22.890722013846243,-0.7661405722898934
63111.74102314721,8.754115774056118,PPG_1,PPG_2,128419.0,128419.0,174.94608707564475,-23.05341773716945,-0.7715839895432285
63111.751073796775,8.764166423621646,PPG_1,PPG_2,128427.0,128427.0,182.97436720793485,-23.49170723117757,-0.7862481278801642
63111.76112444635,8.77421707319445,PPG_1,PPG_2,128401.0,128401.0,157.0026473402104,-24.15738331791635,-0.808520088209988
63111.77117509591,8.784267722759978,PPG_1,PPG_2,128405.0,128405.0,161.03092747250048,-24.977652153021033,-0.8359643592589064
63111.78122574548,8.794318372325506,PPG_1,PPG_2,128427.0,128427.0,183.05920760479057,-25.861979370136687,-0.8655518735027707
63111.79127639505,8.80436902189831,PPG_1,PPG_2,128389.0,128389.0,145.0874877370661,-26.710816659975936,-0.8939519780316776
63111.80132704462,8.814419671463838,PPG_1,PPG_2,128396.0,128396.0,152.1157678693562,-27.425351239695186,-0.9178586289251465
63111.81137769419,8.824470321036642,PPG_1,PPG_2,128426.0,128426.0,182.1440480016463,-27.91725916072658,-0.9343167140530212
63111.82142834376,8.83452097060217,PPG_1,PPG_2,128407.0,128407.0,163.17232813392184,-28.1172539789153,-0.9410080715249285
63111.83147899332,8.844571620167699,PPG_1,PPG_2,128373.0,128373.0,129.20060826621193,-27.982704946661656,-0.9365063765287174
63111.841529642894,8.854622269740503,PPG_1,PPG_2,128377.0,128377.0,133.22888839850202,-27.504569188027514,-0.9205090756481336
63111.85158029246,8.864672919306031,PPG_1,PPG_2,128424.0,128424.0,180.25716853077756,-26.710493562886136,-0.8939411679609689
63111.86163094203,8.874723568878835,PPG_1,PPG_2,128408.0,128408.0,164.28544866306765,-25.660214190628974,-0.8588012838940156
63111.8716815916,8.884774218444363,PPG_1,PPG_2,128392.0,128392.0,148.31372879535775,-24.434174290011267,-0.8177808648443912
63111.88173224116,8.894824868009891,PPG_1,PPG_2,128421.0,128421.0,177.3420089276333,-23.11983829303752,-0.7738062655342827
63111.891782890736,8.904875517582695,PPG_1,PPG_2,128395.0,128395.0,151.37028905992338,-21.798559348419964,-0.7295993714826693
63111.9018335403,8.914926167148224,PPG_1,PPG_2,128419.0,128419.0,175.39856919221347,-20.533548286164805,-0.6872750687825915
63111.911884189874,8.924976816721028,PPG_1,PPG_2,128421.0,128421.0,177.426849324489,-19.35954180058423,-0.647995565740946
63111.92193483944,8.935027466286556,PPG_1,PPG_2,128432.0,128432.0,188.4551294567791,-18.27587459333859,-0.6117386030359344
63111.931985489005,8.945078115852084,PPG_1,PPG_2,128404.0,128404.0,160.4834095890692,-17.245632493742576,-0.5772691191091053
63111.94203613858,8.955128765424888,PPG_1,PPG_2,128408.0,128408.0,164.51168972134474,-16.202927089853418,-0.5423826422568498
63111.952086788144,8.965179414990416,PPG_1,PPG_2,128391.0,128391.0,147.53996985363483,-15.067200187845216,-0.5043838842858931
63111.96213743772,8.97523006456322,PPG_1,PPG_2,128413.0,128413.0,169.56824998592492,-13.760243786370024,-0.4606561889302276
63111.97218808728,8.985280714128749,PPG_1,PPG_2,128398.0,128398.0,154.59653011820046,-12.221203901790386,-0.4091635246476582
63111.98223873685,8.995331363694277,PPG_1,PPG_2,128403.0,128403.0,159.62481025049055,-10.416776085430802,-0.34879160271055276
63111.99228938642,9.00538201326708,PPG_1,PPG_2,128418.0,128418.0,174.65309038278065,-8.34563570831431,-0.2794961041406357
63112.002340035986,9.015432662832607,PPG_1,PPG_2,128422.0,128422.0,178.6813705150562,-6.037198534035105,-0.20226121138473496
63112.01239068555,9.025483312398135,PPG_1,PPG_2,128407.0,128407.0,163.70965064734628,-3.5460285189214034,-0.11891250642632535
63112.02244133512,9.03553396197094,PPG_1,PPG_2,128444.0,128444.0,200.73793077963637,-0.9440700479715634,-0.03185707962144928
63112.03249198469,9.04558461153647,PPG_1,PPG_2,128414.0,128414.0,170.7662109119119,1.687369540917847,0.05618471623334375
63112.04254263426,9.055635261109272,PPG_1,PPG_2,128418.0,128418.0,174.794491044202,4.264513634352523,0.1424099121757375
63112.05259328383,9.065685910674802,PPG_1,PPG_2,128427.0,128427.0,183.8227711764921,6.7064776350101845,0.22411229931713994
63112.062643933394,9.07573656024033,PPG_1,PPG_2,128441.0,128441.0,197.85105130876764,8.93999652165153,0.2988406019108143
63112.07269458297,9.085787209813134,PPG_1,PPG_2,128423.0,128423.0,179.87933144105773,10.904069143015658,0.3645538645311085
63112.08274523253,9.095837859378662,PPG_1,PPG_2,128402.0,128402.0,158.90761157334782,12.553791950503319,0.419749719775927
63112.092795882105,9.105888508951466,PPG_1,PPG_2,128449.0,128449.0,205.93589170562336,13.863587794117105,0.4635724162048313
63112.10284653167,9.115939158516994,PPG_1,PPG_2,128466.0,128466.0,222.96417183791345,14.831347880862129,0.4959513985509858
63112.11289718123,9.125989808082522,PPG_1,PPG_2,128424.0,128424.0,180.99245197020355,15.482393994565772,0.5177338743018138
63112.12294783081,9.136040457655326,PPG_1,PPG_2,128411.0,128411.0,168.0207321024791,15.868944755740674,0.5306669560060527
63112.132998480374,9.146091107220856,PPG_1,PPG_2,128442.0,128442.0,199.04901223476918,16.063370453766407,0.5371719837812605
63112.14304912995,9.15614175679366,PPG_1,PPG_2,128420.0,128420.0,177.07729236705927,16.148655430502927,0.5400254190427124
63112.15309977951,9.166192406359189,PPG_1,PPG_2,128427.0,128427.0,184.1055724993348,16.20988352325446,0.5420739673982854
63112.16315042908,9.176243055924717,PPG_1,PPG_2,128430.0,128430.0,187.1338526316249,16.32776171533269,0.5460178951884208
63112.17320107865,9.18629370549752,PPG_1,PPG_2,128446.0,128446.0,203.162132763915,16.57382026527758,0.5542504370693146
63112.18325172822,9.196344355063047,PPG_1,PPG_2,128402.0,128402.0,159.19041289619054,17.006507334731676,0.5687271314227519
63112.19330237778,9.206395004628575,PPG_1,PPG_2,128435.0,128435.0,192.21869302848063,17.667439428446198,0.5908403688743681
63112.203353027355,9.21644565420138,PPG_1,PPG_2,128424.0,128424.0,181.24697316077072,18.57851858646587,0.6213229403066
63112.21340367692,9.226496303766908,PPG_1,PPG_2,128436.0,128436.0,193.27525329304626,19.741426599680796,0.6602311144975123
63112.22345432649,9.236546953339712,PPG_1,PPG_2,128426.0,128426.0,183.30353342533635,21.13954656430683,0.7070089288261576
63112.23350497606,9.24659760290524,PPG_1,PPG_2,128444.0,128444.0,201.33181355762645,22.740919886869108,0.7605871237228313
63112.243555625624,9.256648252470768,PPG_1,PPG_2,128425.0,128425.0,182.360093689902,24.50090963976133,0.8194722522984266
63112.2536062752,9.266698902043572,PPG_1,PPG_2,128416.0,128416.0,173.38837382219208,26.364031638329124,0.8818079438883327
63112.26365692476,9.2767495516091,PPG_1,PPG_2,128420.0,128420.0,177.41665395448217,28.265937446702594,0.945441250775888
63112.273707574335,9.286800201181904,PPG_1,PPG_2,128433.0,128433.0,190.4449340867577,30.138262943172624,1.0080848698161828
63112.2837582239,9.296850850747433,PPG_1,PPG_2,128482.0,128482.0,239.4732142190478,31.918294246504537,1.0676405416563377
63112.293808873466,9.30690150031296,PPG_1,PPG_2,128424.0,128424.0,181.5014943513379,33.56119356491589,1.1226080989630958
63112.30385952304,9.316952149885765,PPG_1,PPG_2,128459.0,128459.0,216.52977448361344,35.04901550031834,1.1723871308124532
63112.313910172605,9.327002799451291,PPG_1,PPG_2,128436.0,128436.0,193.55805461590353,36.39225409323283,1.2173287431834856
63112.32396082218,9.337053449024095,PPG_1,PPG_2,128430.0,128430.0,187.58633474819362,37.62402372011138,1.2585408654330965
63112.33401147174,9.347104098589623,PPG_1,PPG_2,128430.0,128430.0,187.61461488046916,38.789719792805684,1.2975423215540027
63112.34406212131,9.357154748155152,PPG_1,PPG_2,128467.0,128467.0,224.64289501275925,39.93554079429465,1.3358788044150067
63112.35411277088,9.367205397727956,PPG_1,PPG_2,128433.0,128433.0,190.67117514504935,41.097857633285344,1.3747671993031432
63112.36416342045,9.377256047293486,PPG_1,PPG_2,128417.0,128417.0,174.6994552773249,42.29303815515314,1.414755135929239
63112.37421407002,9.38730669686629,PPG_1,PPG_2,128430.0,128430.0,187.72773540961498,43.50776692373181,1.455397111034312
63112.384264719585,9.397357346431818,PPG_1,PPG_2,128460.0,128460.0,217.75601554190507,44.6929057504173,1.4950490760952582
63112.39431536915,9.407407995997346,PPG_1,PPG_2,128430.0,128430.0,187.7842956741806,45.7637741138507,1.530877819509638
63112.40436601872,9.41745864557015,PPG_1,PPG_2,128438.0,128438.0,195.8125758064707,46.60601249981176,1.5590571401943851
63112.41441666829,9.427509295135678,PPG_1,PPG_2,128438.0,128438.0,195.8408559387608,47.08474472104754,1.5750743973144472
63112.42446731786,9.437559944708482,PPG_1,PPG_2,128449.0,128449.0,206.86913607103634,47.05641072765086,1.5741264083608286
63112.43451796743,9.44761059427401,PPG_1,PPG_2,128426.0,128426.0,183.89741620332643,46.38320997555492,1.5516026903793954
63112.44456861699,9.45766124383954,PPG_1,PPG_2,128429.0,128429.0,186.92569633561652,44.94928922979544,1.503627065894932
63112.454619266566,9.467711893412345,PPG_1,PPG_2,128474.0,128474.0,231.95397646789206,42.6778025933018,1.4276284514553481
63112.46466991613,9.477762542977873,PPG_1,PPG_2,128442.0,128442.0,199.98225660018215,39.547207453521025,1.3228860817789414
63112.4747205657,9.4878131925434,PPG_1,PPG_2,128425.0,128425.0,183.01053673247225,35.60260620496451,1.1909089771855783
63112.48477121527,9.497863842116203,PPG_1,PPG_2,128430.0,128430.0,188.03881686476234,30.957785578526458,1.0355041747718614
63112.494821864835,9.507914491681731,PPG_1,PPG_2,128442.0,128442.0,200.06709699703788,25.78726715350377,0.8625107571910998
63112.50487251441,9.517965141254535,PPG_1,PPG_2,128385.0,128385.0,143.09537712932797,20.3101221594159,0.6792583338891824
63112.51492316397,9.528015790820064,PPG_1,PPG_2,128411.0,128411.0,169.12365726161806,14.767196342500418,0.4938050385630689
63112.52497381354,9.538066440385592,PPG_1,PPG_2,128387.0,128387.0,145.1519373938936,9.394349103928818,0.31404217350069746
63112.53502446311,9.548117089958396,PPG_1,PPG_2,128367.0,128367.0,125.1802175261837,4.3958972316943505,0.14680569914522645
63112.54507511268,9.558167739523924,PPG_1,PPG_2,128365.0,128365.0,123.20849765847379,-0.07742588240622907,-0.0028611988018355807
63112.55512576225,9.568218389096728,PPG_1,PPG_2,128360.0,128360.0,118.23677779074933,-3.941857114438397,-0.1321560027038533
63112.565176411816,9.578269038662256,PPG_1,PPG_2,128388.0,128388.0,146.26505792303942,-7.181837752250497,-0.24055815454961366
63112.57522706138,9.588319688227784,PPG_1,PPG_2,128401.0,128401.0,159.2933380553295,-9.838896112103022,-0.329457094384724
63112.585277710954,9.598370337800588,PPG_1,PPG_2,128366.0,128366.0,124.32161818760505,-11.992959552383459,-0.4015270041284941
63112.59532836052,9.608420987366117,PPG_1,PPG_2,128371.0,128371.0,129.34989831989515,-13.743113363248197,-0.4600830451568474
63112.60537901009,9.61847163693892,PPG_1,PPG_2,128373.0,128373.0,131.37817845218524,-15.192036342199758,-0.5085606091719159
63112.61542965966,9.628522286504449,PPG_1,PPG_2,128378.0,128378.0,136.40645858446078,-16.43436150030584,-0.5501258947354014
63112.62548030922,9.638572936069975,PPG_1,PPG_2,128340.0,128340.0,98.43473871675087,-17.548351178724054,-0.5873973761958731
63112.6355309588,9.64862358564278,PPG_1,PPG_2,128386.0,128386.0,144.46301884904096,-18.59084851312846,-0.6222768915312548
63112.64558160836,9.65867423520831,PPG_1,PPG_2,128355.0,128355.0,113.4912989813165,-19.595081336329667,-0.6558761660820637
63112.65563225793,9.668724884773836,PPG_1,PPG_2,128331.0,128331.0,89.5195791136066,-20.5707781014087,-0.6885206910675393
63112.6656829075,9.678775534346642,PPG_1,PPG_2,128394.0,128394.0,152.5478592458967,-21.50610653748798,-0.7198145864600722
63112.675733557066,9.68882618391217,PPG_1,PPG_2,128354.0,128354.0,112.57613937817223,-22.370743663700612,-0.7487433164510258
63112.68578420664,9.698876833484974,PPG_1,PPG_2,128362.0,128362.0,120.60441951046232,-23.120873511388865,-0.7738409015119199
63112.69583485621,9.708927483050502,PPG_1,PPG_2,128324.0,128324.0,82.63269964275241,-23.708193381699058,-0.7934912466468188
63112.70588550577,9.71897813261603,PPG_1,PPG_2,128354.0,128354.0,112.66097977502795,-24.092359557658842,-0.8063445457234821
