timestamp,PPG_1,PPG_2,PPG_3,time_from_segment_start_sec
63102.99102504391,154351.0,86960.0,4003.0,0.0
63103.00111891197,154388.0,86995.0,4008.0,0.010093868055264466
63103.01121278003,154388.0,87020.0,4012.0,0.02018773611780489
63103.02130664809,154377.0,86978.0,4024.0,0.030281604173069354
63103.03140051614,154359.0,86989.0,4019.0,0.04037547222833382
63103.0414943842,154400.0,86988.0,4012.0,0.050469340283598285
63103.05158825226,154374.0,86974.0,3986.0,0.06056320834613871
63103.061682120315,154358.0,87014.0,4030.0,0.07065707640140317
63103.07177598837,154377.0,87004.0,4041.0,0.08075094445666764
63103.081869856425,154297.0,86980.0,4015.0,0.0908448125119321
63103.09196372449,154284.0,86960.0,4024.0,0.10093868057447253
63103.10205759254,154194.0,86979.0,4000.0,0.111032548629737
63103.1121514606,154182.0,86963.0,4018.0,0.12112641668500146
63103.122245328654,154190.0,86944.0,3986.0,0.13122028474026592
63103.13233919671,154175.0,86947.0,3971.0,0.1413141527955304
63103.14243306477,154191.0,86942.0,3990.0,0.1514080208580708
63103.15252693283,154157.0,86935.0,3961.0,0.16150188891333528
63103.16262080088,154167.0,86941.0,3990.0,0.17159575696859974
63103.17271466894,154163.0,86922.0,3998.0,0.1816896250238642
63103.182808537,154191.0,86965.0,3993.0,0.19178349308640463
63103.192902405055,154187.0,86973.0,3960.0,0.2018773611416691
63103.20299627311,154185.0,86939.0,3997.0,0.21197122919693356
63103.213090141166,154177.0,86946.0,4022.0,0.22206509725219803
63103.22318400923,154183.0,86946.0,3960.0,0.23215896531473845
63103.23327787728,154193.0,86929.0,3982.0,0.24225283337000292
63103.24337174534,154221.0,86950.0,3989.0,0.2523467014252674
63103.253465613394,154202.0,86937.0,3976.0,0.26244056948053185
63103.26355948146,154221.0,86979.0,3998.0,0.27253443754307227
63103.27365334951,154212.0,86941.0,3962.0,0.28262830559833674
63103.28374721757,154236.0,86958.0,3988.0,0.2927221736536012
63103.29384108562,154275.0,86959.0,4004.0,0.30281604170886567
63103.30393495368,154256.0,86935.0,4017.0,0.31290990976413013
63103.31402882174,154238.0,86956.0,3971.0,0.32300377782667056
63103.324122689795,154250.0,86958.0,3988.0,0.333097645881935
63103.33421655785,154236.0,86970.0,3993.0,0.3431915139371995
63103.344310425906,154216.0,86940.0,3963.0,0.35328538199246395
63103.35440429397,154236.0,86956.0,3990.0,0.3633792500550044
63103.364498162024,154234.0,86960.0,3990.0,0.37347311811026884
63103.37459203008,154249.0,86977.0,4001.0,0.3835669861655333
63103.384685898134,154222.0,86932.0,4000.0,0.3936608542207978
63103.3947797662,154236.0,86960.0,3999.0,0.4037547222833382
63103.40487363425,154226.0,86964.0,3973.0,0.41384859033860266
63103.41496750231,154199.0,86971.0,3980.0,0.4239424583938671
63103.42506137036,154235.0,86986.0,3995.0,0.4340363264491316
63103.435155238425,154210.0,86965.0,4005.0,0.444130194511672
63103.44524910648,154235.0,86959.0,3999.0,0.4542240625669365
63103.455342974536,154252.0,86946.0,3999.0,0.46431793062220095
63103.46543684259,154225.0,86994.0,4027.0,0.4744117986774654
63103.475530710646,154228.0,86955.0,3982.0,0.4845056667327299
63103.48562457871,154199.0,86964.0,3968.0,0.4945995347952703
63103.495718446764,154265.0,86956.0,3990.0,0.5046934028505348
63103.50581231482,154246.0,86943.0,3989.0,0.5147872709057992
63103.515906182874,154287.0,86959.0,3995.0,0.5248811389610637
63103.52600005094,154261.0,86950.0,4011.0,0.5349750070236041
63103.53609391899,154286.0,86978.0,3993.0,0.5450688750788686
63103.54618778705,154261.0,86974.0,3994.0,0.555162743134133
63103.5562816551,154325.0,86993.0,4015.0,0.5652566111893975
63103.566375523165,154319.0,86981.0,3980.0,0.5753504792519379
63103.57646939122,154318.0,86989.0,3997.0,0.5854443473072024
63103.586563259276,154322.0,86985.0,4021.0,0.5955382153624669
63103.59665712733,154325.0,86970.0,3994.0,0.6056320834177313
63103.606750995394,154344.0,86965.0,4051.0,0.6157259514802718
63103.61684486345,154317.0,86982.0,4015.0,0.6258198195355362
63103.626938731504,154350.0,86966.0,4020.0,0.6359136875908007
63103.63703259956,154336.0,86988.0,3999.0,0.6460075556460652
63103.647126467615,154370.0,87007.0,4017.0,0.6561014237013296
63103.65722033568,154351.0,86990.0,4022.0,0.66619529176387
63103.66731420373,154329.0,86971.0,3994.0,0.6762891598191345
63103.67740807179,154360.0,86971.0,4029.0,0.686383027874399
63103.68750193984,154336.0,86972.0,3997.0,0.6964768959296634
63103.697595807906,154358.0,87000.0,4016.0,0.7065707639922039
63103.70768967596,154361.0,86988.0,3998.0,0.7166646320474683
63103.717783544016,154384.0,86998.0,4007.0,0.7267585001027328
63103.72787741207,154360.0,86977.0,4008.0,0.7368523681579973
63103.737971280134,154369.0,87003.0,4024.0,0.7469462362205377
63103.74806514819,154428.0,86999.0,4023.0,0.7570401042758022
63103.758159016244,154447.0,87012.0,4055.0,0.7671339723310666
63103.7682528843,154412.0,86991.0,4035.0,0.7772278403863311
63103.778346752355,154417.0,86972.0,4013.0,0.7873217084415955
63103.78844062042,154442.0,87016.0,4028.0,0.797415576504136
63103.79853448847,154470.0,87009.0,4043.0,0.8075094445594004
63103.80862835653,154458.0,86998.0,4015.0,0.8176033126146649
63103.81872222458,154473.0,87046.0,4045.0,0.8276971806699294
63103.828816092646,154484.0,87026.0,4038.0,0.8377910487324698
63103.8389099607,154494.0,87011.0,4037.0,0.8478849167877343
63103.84900382876,154502.0,86982.0,4029.0,0.8579787848429987
63103.85909769681,154530.0,87049.0,4045.0,0.8680726528982632
63103.869191564874,154499.0,87025.0,4033.0,0.8781665209608036
63103.87928543293,154489.0,87002.0,4072.0,0.8882603890160681
63103.889379300985,154464.0,87007.0,4048.0,0.8983542570713325
63103.89947316904,154463.0,87003.0,4034.0,0.908448125126597
63103.9095670371,154465.0,87008.0,4033.0,0.9185419931891374
63103.91966090516,154441.0,86984.0,4033.0,0.9286358612444019
63103.92975477321,154431.0,87023.0,4042.0,0.9387297292996664
63103.93984864127,154374.0,87023.0,4025.0,0.9488235973549308
63103.94994250932,154379.0,87002.0,4043.0,0.9589174654101953
63103.960036377386,154336.0,87011.0,4027.0,0.9690113334727357
63103.97013024544,154342.0,87009.0,4000.0,0.9791052015280002
63103.9802241135,154341.0,86995.0,4020.0,0.9891990695832646
63103.99031798155,154293.0,86966.0,4026.0,0.9992929376385291
63104.000411849614,154308.0,86984.0,4009.0,1.0093868057010695
63104.01050571767,154276.0,86987.0,4000.0,1.019480673756334
63104.020599585725,154321.0,86970.0,4033.0,1.0295745418115985
63104.03069345378,154279.0,86944.0,4001.0,1.039668409866863
63104.04078732184,154325.0,86981.0,4005.0,1.0497622779294034
63104.0508811899,154321.0,86992.0,4020.0,1.0598561459846678
63104.06097505795,154294.0,86972.0,4024.0,1.0699500140399323
63104.07106892601,154313.0,87002.0,4023.0,1.0800438820951968
63104.08116279407,154374.0,87000.0,4016.0,1.0901377501577372
63104.09125666213,154392.0,86986.0,4032.0,1.1002316182130016
63104.10135053018,154380.0,86993.0,3991.0,1.110325486268266
63104.11144439824,154421.0,87002.0,4032.0,1.1204193543235306
63104.12153826629,154391.0,87014.0,4029.0,1.130513222378795
63104.131632134355,154377.0,86993.0,4013.0,1.1406070904413355
63104.14172600241,154420.0,87020.0,4055.0,1.1507009584966
63104.151819870465,154424.0,86984.0,4051.0,1.1607948265518644
63104.16191373852,154414.0,86993.0,4012.0,1.1708886946071289
63104.17200760658,154411.0,86995.0,4021.0,1.1809825626696693
63104.18210147464,154406.0,86993.0,4041.0,1.1910764307249337
63104.19219534269,154435.0,87008.0,4048.0,1.2011702987801982
63104.20228921075,154418.0,87007.0,4033.0,1.2112641668354627
63104.21238307881,154420.0,87034.0,4038.0,1.221358034898003
63104.22247694687,154390.0,86996.0,4003.0,1.2314519029532676
63104.23257081492,154391.0,87009.0,4005.0,1.241545771008532
63104.24266468298,154390.0,87007.0,4034.0,1.2516396390637965
63104.25275855104,154374.0,87023.0,4053.0,1.261733507126337
63104.262852419095,154406.0,87020.0,4027.0,1.2718273751816014
63104.27294628715,154417.0,86974.0,4055.0,1.2819212432368658
63104.283040155206,154400.0,87008.0,4033.0,1.2920151112921303
63104.29313402326,154405.0,87007.0,4022.0,1.3021089793473948
63104.30322789132,154402.0,87026.0,4044.0,1.3122028474099352
63104.31332175938,154379.0,86987.0,4040.0,1.3222967154651997
63104.323415627434,154422.0,87013.0,4040.0,1.3323905835204641
63104.33350949549,154424.0,86996.0,4033.0,1.3424844515757286
63104.34360336355,154458.0,86980.0,4027.0,1.352578319638269
63104.35369723161,154408.0,87000.0,4002.0,1.3626721876935335
63104.36379109966,154453.0,87014.0,4041.0,1.372766055748798
63104.37388496772,154481.0,87041.0,4022.0,1.3828599238040624
63104.38397883578,154421.0,87024.0,4018.0,1.3929537918666028
63104.394072703835,154496.0,87042.0,4060.0,1.4030476599218673
63104.40416657189,154488.0,87032.0,4046.0,1.4131415279771318
63104.414260439946,154494.0,87009.0,4054.0,1.4232353960323962
63104.42435430801,154523.0,87019.0,4050.0,1.4333292640949367
63104.43444817606,154514.0,87046.0,4046.0,1.4434231321502011
63104.44454204412,154511.0,87028.0,4032.0,1.4535170002054656
63104.454635912174,154497.0,87009.0,4065.0,1.46361086826073
63104.46472978023,154509.0,87041.0,4062.0,1.4737047363159945
63104.47482364829,154494.0,87034.0,4053.0,1.483798604378535
63104.48491751635,154528.0,87036.0,4066.0,1.4938924724337994
63104.4950113844,154532.0,87036.0,4045.0,1.5039863404890639
63104.50510525246,154507.0,87015.0,4035.0,1.5140802085443283
63104.51519912052,154505.0,87050.0,4053.0,1.5241740766068688
63104.525292988576,154551.0,87041.0,4076.0,1.5342679446621332
63104.53538685663,154550.0,87058.0,4056.0,1.5443618127173977
63104.545480724686,154513.0,87027.0,4042.0,1.5544556807726622
63104.55557459275,154568.0,87032.0,4059.0,1.5645495488352026
63104.565668460804,154548.0,87052.0,4069.0,1.574643416890467
63104.57576232886,154551.0,87037.0,4058.0,1.5847372849457315
63104.585856196914,154541.0,87051.0,4061.0,1.594831153000996
63104.59595006498,154549.0,87033.0,4045.0,1.6049250210635364
63104.60604393303,154557.0,87033.0,4043.0,1.6150188891188009
63104.61613780109,154571.0,87049.0,4065.0,1.6251127571740653
63104.62623166914,154574.0,87042.0,4057.0,1.6352066252293298
63104.6363255372,154553.0,87022.0,4036.0,1.6453004932845943
63104.64641940526,154552.0,87053.0,4062.0,1.6553943613471347
63104.656513273316,154596.0,87052.0,4054.0,1.6654882294023992
63104.66660714137,154597.0,87043.0,4049.0,1.6755820974576636
63104.676701009426,154591.0,87035.0,4064.0,1.685675965512928
63104.68679487749,154602.0,87054.0,4042.0,1.6957698335754685
63104.696888745544,154594.0,87027.0,4054.0,1.705863701630733
63104.7069826136,154608.0,87038.0,4075.0,1.7159575696859974
63104.717076481655,154606.0,87051.0,4081.0,1.726051437741262
63104.72717034972,154653.0,87039.0,4080.0,1.7361453058038023
63104.73726421777,154634.0,87056.0,4064.0,1.7462391738590668
63104.74735808583,154640.0,87050.0,4055.0,1.7563330419143313
63104.75745195388,154652.0,87056.0,4099.0,1.7664269099695957
63104.76754582194,154619.0,87034.0,4052.0,1.7765207780248602
63104.77763969,154660.0,87061.0,4069.0,1.7866146460874006
63104.787733558056,154656.0,87046.0,4048.0,1.796708514142665
63104.79782742611,154647.0,87038.0,4063.0,1.8068023821979295
63104.80792129417,154699.0,87089.0,4089.0,1.816896250253194
63104.81801516223,154677.0,87048.0,4078.0,1.8269901183157344
63104.828109030284,154639.0,87048.0,4080.0,1.837083986370999
63104.83820289834,154662.0,87071.0,4072.0,1.8471778544262634
63104.848296766395,154660.0,87077.0,4093.0,1.8572717224815278
63104.85839063446,154637.0,87046.0,4078.0,1.8673655905440683
63104.86848450251,154629.0,87029.0,4059.0,1.8774594585993327
63104.87857837057,154633.0,87078.0,4058.0,1.8875533266545972
63104.88867223862,154558.0,87032.0,4056.0,1.8976471947098617
63104.898766106686,154549.0,87038.0,4060.0,1.907741062772402
63104.90885997474,154548.0,87025.0,4087.0,1.9178349308276665
63104.918953842796,154528.0,87014.0,4068.0,1.927928798882931
63104.92904771085,154476.0,87009.0,4027.0,1.9380226669381955
63104.93914157891,154492.0,87027.0,4049.0,1.94811653499346
63104.94923544697,154452.0,87018.0,4062.0,1.9582104030560004
63104.959329315025,154476.0,87006.0,4050.0,1.9683042711112648
63104.96942318308,154485.0,87034.0,4045.0,1.9783981391665293
63104.979517051135,154490.0,87023.0,4058.0,1.9884920072217938
63104.9896109192,154489.0,87016.0,4041.0,1.9985858752843342
63104.99970478725,154540.0,87031.0,4052.0,2.0086797433395986
63105.00979865531,154495.0,87008.0,4063.0,2.018773611394863
63105.01989252336,154521.0,87025.0,4044.0,2.0288674794501276
63105.029986391426,154524.0,87014.0,4088.0,2.038961347512668
63105.04008025948,154550.0,87056.0,4073.0,2.0490552155679325
63105.05017412754,154544.0,87031.0,4067.0,2.059149083623197
63105.06026799559,154543.0,87049.0,4048.0,2.0692429516784614
63105.070361863654,154542.0,87026.0,4068.0,2.079336819741002
63105.08045573171,154594.0,87052.0,4081.0,2.0894306877962663
63105.090549599765,154524.0,87038.0,4057.0,2.0995245558515307
63105.10064346782,154595.0,87041.0,4102.0,2.109618423906795
63105.110737335875,154562.0,87061.0,4063.0,2.1197122919620597
63105.12083120394,154553.0,87028.0,4061.0,2.1298061600246
63105.13092507199,154570.0,87024.0,4064.0,2.1399000280798646
63105.14101894005,154561.0,87029.0,4052.0,2.149993896135129
63105.151112808104,154564.0,87060.0,4066.0,2.1600877641903935
63105.161206676166,154555.0,87046.0,4063.0,2.170181632252934
63105.17130054422,154589.0,87061.0,4081.0,2.1802755003081984
63105.18139441228,154529.0,87007.0,4075.0,2.190369368363463
63105.19148828033,154554.0,87037.0,4068.0,2.2004632364187273
63105.201582148395,154530.0,87038.0,4055.0,2.2105571044812677
63105.21167601645,154557.0,87015.0,4045.0,2.220650972536532
63105.221769884505,154531.0,87025.0,4048.0,2.2307448405917967
63105.23186375256,154579.0,87076.0,4077.0,2.240838708647061
63105.24195762062,154557.0,87031.0,4063.0,2.2509325767096016
63105.25205148868,154535.0,87033.0,4052.0,2.261026444764866
63105.26214535673,154577.0,87056.0,4082.0,2.2711203128201305
63105.27223922479,154582.0,87052.0,4070.0,2.281214180875395
63105.282333092844,154580.0,87047.0,4052.0,2.2913080489306594
63105.29242696091,154605.0,87075.0,4092.0,2.3014019169932
63105.30252082896,154599.0,87061.0,4052.0,2.3114957850484643
63105.31261469702,154622.0,87055.0,4073.0,2.321589653103729
63105.32270856507,154631.0,87061.0,4064.0,2.3316835211589932
63105.332802433135,154610.0,87025.0,4068.0,2.3417773892215337
63105.34289630119,154645.0,87074.0,4068.0,2.351871257276798
63105.352990169245,154648.0,87062.0,4075.0,2.3619651253320626
63105.3630840373,154653.0,87071.0,4098.0,2.372058993387327
63105.37317790536,154664.0,87059.0,4089.0,2.3821528614498675
63105.38327177342,154652.0,87049.0,4094.0,2.392246729505132
63105.393365641474,154659.0,87051.0,4072.0,2.4023405975603964
63105.40345950953,154635.0,87032.0,4075.0,2.412434465615661
63105.413553377584,154686.0,87089.0,4080.0,2.4225283336709253
63105.42364724565,154663.0,87040.0,4087.0,2.4326222017334658
63105.4337411137,154675.0,87073.0,4082.0,2.4427160697887302
63105.44383498176,154662.0,87043.0,4063.0,2.4528099378439947
63105.45392884981,154695.0,87083.0,4089.0,2.462903805899259
63105.464022717875,154676.0,87063.0,4104.0,2.4729976739617996
63105.47411658593,154694.0,87070.0,4079.0,2.483091542017064
63105.484210453986,154659.0,87091.0,4084.0,2.4931854100723285
63105.49430432204,154638.0,87063.0,4079.0,2.503279278127593
63105.5043981901,154706.0,87081.0,4088.0,2.5133731461901334
63105.51449205816,154699.0,87069.0,4090.0,2.523467014245398
63105.524585926214,154696.0,87083.0,4062.0,2.5335608823006623
63105.53467979427,154684.0,87082.0,4057.0,2.543654750355927
63105.54477366233,154699.0,87066.0,4085.0,2.5537486184184672
63105.55486753039,154719.0,87079.0,4091.0,2.5638424864737317
63105.56496139844,154705.0,87046.0,4091.0,2.573936354528996
63105.5750552665,154699.0,87098.0,4089.0,2.5840302225842606
63105.58514913455,154763.0,87104.0,4068.0,2.594124090639525
63105.595243002615,154741.0,87076.0,4100.0,2.6042179587020655
63105.60533687067,154738.0,87096.0,4104.0,2.61431182675733
63105.615430738726,154767.0,87111.0,4120.0,2.6244056948125944
63105.62552460678,154774.0,87109.0,4121.0,2.634499562867859
63105.635618474844,154724.0,87069.0,4084.0,2.6445934309303993
63105.6457123429,154729.0,87078.0,4099.0,2.654687298985664
63105.655806210954,154737.0,87064.0,4101.0,2.6647811670409283
63105.66590007901,154753.0,87067.0,4086.0,2.6748750350961927
63105.67599394707,154791.0,87088.0,4106.0,2.684968903158733
63105.68608781513,154776.0,87091.0,4096.0,2.6950627712139976
63105.69618168318,154780.0,87116.0,4100.0,2.705156639269262
63105.70627555124,154769.0,87069.0,4087.0,2.7152505073245266
63105.7163694193,154805.0,87128.0,4111.0,2.725344375387067
63105.726463287356,154798.0,87085.0,4092.0,2.7354382434423314
63105.73655715541,154797.0,87091.0,4080.0,2.745532111497596
63105.746651023466,154829.0,87112.0,4127.0,2.7556259795528604
63105.75674489152,154821.0,87097.0,4090.0,2.765719847608125
63105.766838759584,154832.0,87101.0,4104.0,2.7758137156706653
63105.77693262764,154800.0,87063.0,4099.0,2.7859075837259297
63105.787026495695,154855.0,87114.0,4093.0,2.796001451781194
63105.79712036375,154826.0,87086.0,4105.0,2.8060953198364587
63105.80721423181,154809.0,87096.0,4098.0,2.816189187898999
63105.81730809987,154843.0,87077.0,4109.0,2.8262830559542635
63105.82740196792,154754.0,87061.0,4100.0,2.836376924009528
63105.83749583598,154742.0,87066.0,4078.0,2.8464707920647925
63105.84758970404,154724.0,87080.0,4095.0,2.856564660127333
63105.857683572096,154682.0,87074.0,4050.0,2.8666585281825974
63105.86777744015,154685.0,87043.0,4054.0,2.876752396237862
63105.87787130821,154679.0,87071.0,4082.0,2.8868462642931263
63105.88796517627,154668.0,87057.0,4093.0,2.8969401323556667
63105.898059044324,154686.0,87058.0,4094.0,2.907034000410931
63105.90815291238,154647.0,87014.0,4072.0,2.9171278684661957
63105.918246780435,154672.0,87079.0,4099.0,2.92722173652146
63105.92834064849,154667.0,87065.0,4082.0,2.9373156045767246
63105.93843451655,154657.0,87042.0,4079.0,2.947409472639265
63105.94852838461,154666.0,87030.0,4063.0,2.9575033406945295
63105.95862225266,154693.0,87092.0,4102.0,2.967597208749794
63105.96871612072,154688.0,87071.0,4075.0,2.9776910768050584
63105.97880998878,154673.0,87041.0,4100.0,2.987784944867599
63105.988903856836,154690.0,87028.0,4099.0,2.9978788129228633
63105.99899772489,154674.0,87067.0,4069.0,3.0079726809781278
63106.00909159295,154711.0,87062.0,4087.0,3.018066549033392
63106.01918546101,154732.0,87064.0,4109.0,3.0281604170959326
63106.029279329065,154692.0,87045.0,4104.0,3.038254285151197
63106.03937319712,154679.0,87067.0,4080.0,3.0483481532064616
63106.049467065175,154700.0,87068.0,4090.0,3.058442021261726
63106.05956093324,154686.0,87045.0,4112.0,3.0685358893242665
63106.06965480129,154728.0,87052.0,4101.0,3.078629757379531
63106.07974866935,154759.0,87067.0,4106.0,3.0887236254347954
63106.0898425374,154732.0,87073.0,4093.0,3.09881749349006
63106.09993640546,154721.0,87070.0,4082.0,3.1089113615453243
63106.11003027352,154750.0,87085.0,4110.0,3.1190052296078647
63106.12012414158,154708.0,87066.0,4069.0,3.129099097663129
63106.13021800963,154718.0,87072.0,4095.0,3.1391929657183937
63106.14031187769,154717.0,87085.0,4077.0,3.149286833773658
63106.15040574575,154727.0,87049.0,4082.0,3.1593807018361986
63106.160499613805,154708.0,87056.0,4086.0,3.169474569891463
63106.17059348186,154744.0,87072.0,4091.0,3.1795684379467275
63106.180687349915,154707.0,87076.0,4082.0,3.189662306001992
63106.19078121798,154705.0,87071.0,4076.0,3.1997561740645324
63106.20087508603,154743.0,87054.0,4095.0,3.209850042119797
63106.21096895409,154716.0,87074.0,4080.0,3.2199439101750613
63106.221062822144,154737.0,87057.0,4091.0,3.230037778230326
63106.231156690206,154754.0,87107.0,4067.0,3.240131646292866
63106.24125055826,154732.0,87088.0,4088.0,3.2502255143481307
63106.25134442632,154761.0,87081.0,4080.0,3.260319382403395
63106.26143829437,154780.0,87092.0,4100.0,3.2704132504586596
63106.27153216243,154794.0,87076.0,4066.0,3.280507118513924
63106.28162603049,154777.0,87077.0,4103.0,3.2906009865764645
63106.291719898545,154816.0,87104.0,4085.0,3.300694854631729
63106.3018137666,154768.0,87057.0,4089.0,3.3107887226869934
63106.311907634656,154789.0,87073.0,4097.0,3.320882590742258
63106.32200150272,154813.0,87112.0,4116.0,3.3309764588047983
63106.33209537077,154835.0,87076.0,4129.0,3.341070326860063
63106.34218923883,154802.0,87080.0,4086.0,3.3511641949153272
63106.352283106884,154795.0,87102.0,4120.0,3.3612580629705917
63106.36237697495,154792.0,87066.0,4095.0,3.371351931033132
63106.372470843,154823.0,87071.0,4072.0,3.3814457990883966
63106.38256471106,154821.0,87090.0,4099.0,3.391539667143661
63106.39265857911,154846.0,87099.0,4107.0,3.4016335351989255
63106.40275244717,154841.0,87078.0,4092.0,3.41172740325419
63106.41284631523,154841.0,87072.0,4106.0,3.4218212713167304
63106.422940183285,154847.0,87091.0,4097.0,3.431915139371995
63106.43303405134,154831.0,87099.0,4096.0,3.4420090074272593
63106.443127919396,154824.0,87069.0,4092.0,3.452102875482524
63106.45322178746,154872.0,87114.0,4131.0,3.4621967435450642
63106.463315655514,154858.0,87098.0,4098.0,3.4722906116003287
63106.47340952357,154870.0,87111.0,4064.0,3.482384479655593
63106.483503391624,154887.0,87106.0,4111.0,3.4924783477108576
63106.49359725969,154838.0,87072.0,4128.0,3.502572215773398
63106.50369112774,154868.0,87104.0,4102.0,3.5126660838286625
63106.5137849958,154829.0,87112.0,4112.0,3.522759951883927
63106.52387886385,154883.0,87080.0,4129.0,3.5328538199391915
63106.533972731915,154870.0,87094.0,4124.0,3.542947688001732
63106.54406659997,154900.0,87113.0,4107.0,3.5530415560569963
63106.554160468026,154879.0,87093.0,4123.0,3.563135424112261
63106.56425433608,154865.0,87083.0,4110.0,3.5732292921675253
63106.574348204136,154831.0,87106.0,4111.0,3.5833231602227897
63106.5844420722,154896.0,87116.0,4119.0,3.59341702828533
63106.594535940254,154915.0,87103.0,4117.0,3.6035108963405946
63106.60462980831,154925.0,87113.0,4086.0,3.613604764395859
63106.614723676365,154936.0,87117.0,4121.0,3.6236986324511236
63106.62481754443,154924.0,87105.0,4104.0,3.633792500513664
63106.63491141248,154906.0,87107.0,4113.0,3.6438863685689284
63106.64500528054,154941.0,87139.0,4149.0,3.653980236624193
63106.65509914859,154917.0,87109.0,4108.0,3.6640741046794574
63106.665193016655,154950.0,87115.0,4118.0,3.674167972741998
63106.67528688471,154974.0,87144.0,4127.0,3.6842618407972623
63106.685380752766,154942.0,87112.0,4137.0,3.6943557088525267
63106.69547462082,154958.0,87114.0,4105.0,3.704449576907791
63106.705568488884,154959.0,87135.0,4133.0,3.7145434449703316
63106.71566235694,154985.0,87135.0,4136.0,3.724637313025596
63106.725756224994,154943.0,87104.0,4113.0,3.7347311810808606
63106.73585009305,154999.0,87144.0,4091.0,3.744825049136125
63106.745943961105,154979.0,87117.0,4126.0,3.7549189171913895
63106.75603782917,154960.0,87111.0,4123.0,3.76501278525393
63106.76613169722,154964.0,87133.0,4113.0,3.7751066533091944
63106.77622556528,154941.0,87079.0,4123.0,3.785200521364459
63106.78631943333,154891.0,87102.0,4099.0,3.7952943894197233
63106.796413301396,154895.0,87103.0,4112.0,3.8053882574822637
63106.80650716945,154880.0,87139.0,4124.0,3.815482125537528
63106.816601037506,154850.0,87081.0,4087.0,3.8255759935927927
63106.82669490556,154862.0,87099.0,4104.0,3.835669861648057
63106.836788773624,154816.0,87079.0,4137.0,3.8457637297105975
63106.84688264168,154808.0,87072.0,4112.0,3.855857597765862
63106.856976509735,154830.0,87063.0,4097.0,3.8659514658211265
63106.86707037779,154807.0,87065.0,4095.0,3.876045333876391
63106.87716424585,154838.0,87088.0,4098.0,3.8861392019389314
63106.88725811391,154800.0,87089.0,4084.0,3.896233069994196
63106.89735198196,154877.0,87127.0,4114.0,3.9063269380494603
63106.90744585002,154828.0,87078.0,4107.0,3.9164208061047248
63106.91753971807,154866.0,87085.0,4100.0,3.9265146741599892
63106.927633586136,154869.0,87090.0,4101.0,3.9366085422225296
63106.93772745419,154851.0,87088.0,4114.0,3.946702410277794
63106.94782132225,154894.0,87135.0,4126.0,3.9567962783330586
63106.9579151903,154878.0,87103.0,4101.0,3.966890146388323
63106.968009058364,154893.0,87077.0,4125.0,3.9769840144508635
63106.97810292642,154863.0,87141.0,4093.0,3.987077882506128
63106.988196794475,154910.0,87105.0,4118.0,3.9971717505613924
63106.99829066253,154895.0,87101.0,4096.0,4.007265618616657
63107.00838453059,154863.0,87089.0,4095.0,4.017359486679197
63107.01847839865,154866.0,87120.0,4098.0,4.027453354734462
63107.0285722667,154907.0,87096.0,4114.0,4.037547222789726
63107.03866613476,154909.0,87110.0,4108.0,4.047641090844991
63107.048760002814,154919.0,87111.0,4090.0,4.057734958900255
63107.058853870876,154870.0,87138.0,4098.0,4.067828826962796
63107.06894773893,154859.0,87081.0,4082.0,4.07792269501806
63107.07904160699,154906.0,87100.0,4101.0,4.0880165630733245
63107.08913547504,154906.0,87126.0,4112.0,4.098110431128589
63107.099229343105,154880.0,87096.0,4067.0,4.108204299191129
63107.10932321116,154887.0,87092.0,4082.0,4.118298167246394
63107.119417079215,154882.0,87094.0,4103.0,4.128392035301658
63107.12951094727,154887.0,87108.0,4140.0,4.138485903356923
63107.13960481533,154873.0,87086.0,4090.0,4.148579771419463
63107.14969868339,154907.0,87129.0,4120.0,4.158673639474728
63107.15979255144,154914.0,87119.0,4103.0,4.168767507529992
63107.1698864195,154893.0,87089.0,4078.0,4.178861375585257
63107.17998028756,154907.0,87105.0,4102.0,4.188955243647797
63107.19007415562,154893.0,87094.0,4122.0,4.1990491117030615
63107.20016802367,154941.0,87111.0,4111.0,4.209142979758326
63107.21026189173,154941.0,87104.0,4101.0,4.21923684781359
63107.22035575978,154951.0,87134.0,4128.0,4.229330715868855
63107.230449627845,154904.0,87106.0,4086.0,4.239424583931395
63107.2405434959,154945.0,87124.0,4087.0,4.24951845198666
63107.250637363955,154985.0,87138.0,4128.0,4.259612320041924
63107.26073123201,154934.0,87096.0,4136.0,4.269706188097189
63107.27082510007,154976.0,87161.0,4111.0,4.279800056159729
63107.28091896813,154996.0,87122.0,4115.0,4.289893924214994
63107.291012836184,154969.0,87111.0,4103.0,4.299987792270258
63107.30110670424,154964.0,87111.0,4087.0,4.3100816603255225
63107.3112005723,155007.0,87149.0,4118.0,4.320175528388063
63107.32129444036,155004.0,87116.0,4096.0,4.330269396443327
63107.33138830841,154993.0,87111.0,4135.0,4.340363264498592
63107.34148217647,155008.0,87150.0,4119.0,4.350457132553856
63107.35157604453,155017.0,87143.0,4145.0,4.360551000616397
63107.361669912585,155018.0,87123.0,4132.0,4.370644868671661
63107.37176378064,155000.0,87152.0,4130.0,4.380738736726926
63107.381857648696,154993.0,87129.0,4127.0,4.39083260478219
63107.39195151675,154981.0,87135.0,4085.0,4.400926472837455
63107.40204538481,155042.0,87135.0,4121.0,4.411020340899995
63107.41213925287,155028.0,87151.0,4123.0,4.4211142089552595
63107.422233120924,155047.0,87121.0,4108.0,4.431208077010524
63107.43232698898,155037.0,87106.0,4121.0,4.4413019450657885
63107.44242085704,155025.0,87129.0,4128.0,4.451395813128329
63107.4525147251,155040.0,87133.0,4119.0,4.461489681183593
63107.46260859315,155034.0,87107.0,4118.0,4.471583549238858
63107.47270246121,155030.0,87133.0,4099.0,4.481677417294122
63107.48279632927,155046.0,87119.0,4108.0,4.491771285356663
63107.492890197325,155050.0,87140.0,4117.0,4.501865153411927
63107.50298406538,155051.0,87135.0,4120.0,4.511959021467192
63107.513077933436,155026.0,87115.0,4117.0,4.522052889522456
63107.5231718015,155018.0,87132.0,4101.0,4.5321467575849965
63107.533265669554,155075.0,87128.0,4113.0,4.542240625640261
63107.54335953761,155093.0,87143.0,4135.0,4.5523344936955255
63107.553453405664,155056.0,87113.0,4134.0,4.56242836175079
63107.56354727372,155105.0,87151.0,4135.0,4.572522229806054
63107.57364114178,155093.0,87145.0,4126.0,4.582616097868595
63107.58373500984,155093.0,87161.0,4125.0,4.592709965923859
63107.59382887789,155102.0,87172.0,4141.0,4.602803833979124
63107.60392274595,155126.0,87144.0,4147.0,4.612897702034388
63107.61401661401,155114.0,87149.0,4135.0,4.622991570096929
63107.624110482066,155133.0,87167.0,4101.0,4.633085438152193
63107.63420435012,155129.0,87158.0,4152.0,4.643179306207458
63107.644298218176,155101.0,87143.0,4132.0,4.653273174262722
63107.65439208624,155136.0,87151.0,4126.0,4.6633670423252624
63107.664485954294,155108.0,87162.0,4118.0,4.673460910380527
63107.67457982235,155106.0,87156.0,4112.0,4.683554778435791
63107.684673690404,155130.0,87154.0,4100.0,4.693648646491056
63107.69476755847,155129.0,87156.0,4136.0,4.703742514553596
63107.70486142652,155096.0,87163.0,4157.0,4.713836382608861
63107.71495529458,155071.0,87131.0,4101.0,4.723930250664125
63107.72504916263,155068.0,87162.0,4121.0,4.73402411871939
63107.73514303069,155058.0,87154.0,4125.0,4.744117986774654
63107.74523689875,155076.0,87112.0,4140.0,4.7542118548371946
63107.755330766806,155028.0,87138.0,4092.0,4.764305722892459
63107.76542463486,155048.0,87143.0,4125.0,4.7743995909477235
63107.77551850292,154988.0,87109.0,4099.0,4.784493459002988
63107.78561237098,155001.0,87106.0,4099.0,4.794587327065528
63107.795706239034,155006.0,87102.0,4119.0,4.804681195120793
63107.80580010709,154967.0,87092.0,4092.0,4.814775063176057
63107.815893975145,154998.0,87110.0,4109.0,4.824868931231322
63107.82598784321,155013.0,87119.0,4074.0,4.834962799293862
63107.83608171126,155017.0,87135.0,4129.0,4.845056667349127
63107.84617557932,155013.0,87141.0,4108.0,4.855150535404391
63107.85626944737,155027.0,87124.0,4098.0,4.865244403459656
63107.866363315436,155051.0,87151.0,4107.0,4.875338271522196
63107.87645718349,155008.0,87123.0,4097.0,4.8854321395774605
63107.886551051546,155057.0,87158.0,4130.0,4.895526007632725
63107.8966449196,155049.0,87133.0,4088.0,4.905619875687989
63107.90673878766,155011.0,87107.0,4117.0,4.915713743743254
63107.91683265572,155047.0,87141.0,4107.0,4.925807611805794
63107.926926523774,155073.0,87140.0,4135.0,4.935901479861059
63107.93702039183,155017.0,87134.0,4081.0,4.945995347916323
63107.947114259885,155070.0,87115.0,4110.0,4.956089215971588
63107.95720812795,155082.0,87156.0,4129.0,4.966183084034128
63107.967301996,155063.0,87127.0,4089.0,4.976276952089393
63107.97739586406,155051.0,87137.0,4093.0,4.986370820144657
63107.98748973211,155062.0,87152.0,4107.0,4.9964646881999215
63107.997583600176,155059.0,87122.0,4095.0,5.006558556262462
63108.00767746823,155041.0,87108.0,4105.0,5.016652424317726
63108.01777133629,155079.0,87159.0,4116.0,5.026746292372991
63108.02786520434,155055.0,87145.0,4112.0,5.036840160428255
63108.0379590724,155052.0,87128.0,4119.0,5.04693402848352
63108.04805294046,155071.0,87157.0,4132.0,5.05702789654606
63108.058146808515,155022.0,87109.0,4119.0,5.067121764601325
63108.06824067657,155056.0,87147.0,4108.0,5.077215632656589
63108.078334544625,155041.0,87120.0,4107.0,5.087309500711854
63108.08842841269,155040.0,87133.0,4093.0,5.097403368774394
63108.09852228074,155031.0,87171.0,4107.0,5.1074972368296585
63108.1086161488,155072.0,87140.0,4110.0,5.117591104884923
63108.11871001685,155093.0,87124.0,4129.0,5.127684972940187
63108.128803884916,155058.0,87124.0,4093.0,5.137778841002728
63108.13889775297,155090.0,87132.0,4105.0,5.147872709057992
63108.14899162103,155101.0,87147.0,4104.0,5.157966577113257
63108.15908548908,155079.0,87177.0,4128.0,5.168060445168521
63108.169179357144,155108.0,87156.0,4130.0,5.178154313231062
63108.1792732252,155094.0,87128.0,4114.0,5.188248181286326
63108.189367093255,155097.0,87147.0,4110.0,5.198342049341591
63108.19946096131,155089.0,87142.0,4085.0,5.208435917396855
63108.209554829366,155111.0,87141.0,4135.0,5.2185297854521195
63108.21964869743,155103.0,87130.0,4103.0,5.22862365351466
63108.22974256548,155127.0,87150.0,4116.0,5.238717521569924
63108.23983643354,155109.0,87149.0,4091.0,5.248811389625189
63108.249930301594,155164.0,87171.0,4132.0,5.258905257680453
63108.26002416966,155142.0,87147.0,4093.0,5.268999125742994
63108.27011803771,155142.0,87153.0,4125.0,5.279092993798258
63108.28021190577,155114.0,87137.0,4105.0,5.289186861853523
63108.29030577382,155138.0,87165.0,4117.0,5.299280729908787
63108.300399641885,155158.0,87137.0,4130.0,5.309374597971328
63108.31049350994,155170.0,87180.0,4122.0,5.319468466026592
63108.320587377995,155121.0,87130.0,4108.0,5.3295623340818565
63108.33068124605,155154.0,87160.0,4098.0,5.339656202137121
63108.34077511411,155180.0,87176.0,4135.0,5.349750070199661
63108.35086898217,155162.0,87152.0,4121.0,5.359843938254926
63108.36096285022,155138.0,87152.0,4104.0,5.36993780631019
63108.37105671828,155160.0,87178.0,4127.0,5.380031674365455
63108.381150586334,155153.0,87159.0,4108.0,5.390125542420719
63108.3912444544,155172.0,87160.0,4127.0,5.40021941048326
63108.40133832245,155188.0,87178.0,4113.0,5.410313278538524
63108.41143219051,155154.0,87152.0,4106.0,5.420407146593789
63108.42152605856,155176.0,87178.0,4116.0,5.430501014649053
63108.431619926625,155187.0,87174.0,4125.0,5.4405948827115935
63108.44171379468,155168.0,87158.0,4110.0,5.450688750766858
63108.451807662736,155157.0,87153.0,4105.0,5.4607826188221225
63108.46190153079,155195.0,87184.0,4129.0,5.470876486877387
63108.47199539885,155189.0,87168.0,4154.0,5.480970354939927
63108.48208926691,155177.0,87155.0,4133.0,5.491064222995192
63108.492183134964,155216.0,87169.0,4147.0,5.501158091050456
63108.50227700302,155218.0,87163.0,4151.0,5.511251959105721
63108.51237087108,155209.0,87175.0,4129.0,5.521345827168261
63108.52246473914,155237.0,87175.0,4128.0,5.531439695223526
63108.53255860719,155219.0,87191.0,4141.0,5.54153356327879
63108.54265247525,155225.0,87149.0,4116.0,5.551627431334055
63108.5527463433,155229.0,87168.0,4124.0,5.561721299389319
63108.562840211365,155242.0,87190.0,4128.0,5.5718151674518595
63108.57293407942,155187.0,87181.0,4103.0,5.581909035507124
63108.583027947476,155251.0,87143.0,4118.0,5.592002903562388
63108.59312181553,155204.0,87168.0,4133.0,5.602096771617653
63108.60321568359,155237.0,87172.0,4129.0,5.612190639680193
63108.61330955165,155250.0,87182.0,4139.0,5.622284507735458
63108.623403419704,155260.0,87196.0,4153.0,5.632378375790722
63108.63349728776,155227.0,87143.0,4137.0,5.642472243845987
63108.64359115582,155247.0,87168.0,4124.0,5.652566111908527
63108.65368502388,155190.0,87127.0,4122.0,5.662659979963792
63108.66377889193,155191.0,87147.0,4139.0,5.672753848019056
63108.67387275999,155163.0,87152.0,4108.0,5.6828477160743205
63108.68396662805,155162.0,87152.0,4125.0,5.692941584136861
63108.694060496106,155145.0,87140.0,4111.0,5.703035452192125
63108.70415436416,155131.0,87142.0,4094.0,5.71312932024739
63108.714248232216,155125.0,87132.0,4127.0,5.723223188302654
63108.72434210027,155111.0,87145.0,4113.0,5.733317056357919
63108.734435968334,155142.0,87162.0,4077.0,5.743410924420459
63108.74452983639,155082.0,87134.0,4072.0,5.753504792475724
63108.754623704444,155121.0,87143.0,4085.0,5.763598660530988
63108.7647175725,155124.0,87136.0,4112.0,5.773692528586253
63108.77481144056,155147.0,87131.0,4110.0,5.783786396648793
63108.78490530862,155145.0,87131.0,4087.0,5.7938802647040575
63108.79499917667,155134.0,87141.0,4102.0,5.803974132759322
63108.80509304473,155135.0,87145.0,4105.0,5.814068000814586
63108.81518691279,155129.0,87135.0,4104.0,5.824161868877127
63108.825280780846,155116.0,87140.0,4077.0,5.834255736932391
63108.8353746489,155169.0,87126.0,4112.0,5.844349604987656
63108.845468516956,155142.0,87173.0,4102.0,5.85444347304292
63108.85556238501,155139.0,87172.0,4127.0,5.864537341098185
63108.865656253074,155116.0,87118.0,4088.0,5.874631209160725
63108.87575012113,155140.0,87176.0,4111.0,5.88472507721599
63108.885843989185,155167.0,87159.0,4102.0,5.894818945271254
63108.89593785724,155181.0,87157.0,4122.0,5.9049128133265185
63108.9060317253,155178.0,87175.0,4094.0,5.915006681389059
63108.91612559336,155165.0,87137.0,4110.0,5.925100549444323
63108.92621946141,155159.0,87160.0,4105.0,5.935194417499588
63108.93631332947,155128.0,87158.0,4116.0,5.945288285554852
63108.94640719753,155132.0,87156.0,4094.0,5.955382153617393
63108.956501065586,155125.0,87125.0,4080.0,5.965476021672657
63108.96659493364,155164.0,87158.0,4105.0,5.975569889727922
63108.9766888017,155167.0,87150.0,4117.0,5.985663757783186
63108.98678266976,155158.0,87158.0,4135.0,5.995757625845727
63108.996876537814,155154.0,87179.0,4115.0,6.005851493900991
63109.00697040587,155153.0,87153.0,4111.0,6.0159453619562555
63109.017064273925,155123.0,87142.0,4087.0,6.02603923001152
63109.02715814198,155164.0,87129.0,4094.0,6.036133098066784
63109.03725201004,155155.0,87141.0,4103.0,6.046226966129325
63109.0473458781,155163.0,87146.0,4137.0,6.056320834184589
63109.05743974615,155153.0,87166.0,4115.0,6.066414702239854
63109.06753361421,155166.0,87169.0,4107.0,6.076508570295118
63109.07762748227,155147.0,87170.0,4106.0,6.086602438357659
63109.087721350326,155165.0,87155.0,4118.0,6.096696306412923
63109.09781521838,155180.0,87178.0,4111.0,6.106790174468188
63109.10790908644,155181.0,87164.0,4096.0,6.116884042523452
63109.1180029545,155165.0,87138.0,4101.0,6.1269779105859925
63109.128096822555,155206.0,87153.0,4132.0,6.137071778641257
63109.13819069061,155192.0,87193.0,4115.0,6.147165646696521
63109.148284558665,155189.0,87184.0,4103.0,6.157259514751786
63109.15837842673,155200.0,87172.0,4110.0,6.167353382814326
63109.16847229478,155208.0,87165.0,4097.0,6.177447250869591
63109.17856616284,155218.0,87159.0,4116.0,6.187541118924855
63109.18866003089,155192.0,87161.0,4087.0,6.19763498698012
63109.19875389895,155197.0,87154.0,4123.0,6.207728855035384
63109.20884776701,155200.0,87136.0,4117.0,6.217822723097925
63109.21894163507,155242.0,87160.0,4113.0,6.227916591153189
63109.22903550312,155217.0,87182.0,4137.0,6.2380104592084535
63109.23912937118,155223.0,87155.0,4105.0,6.248104327263718
63109.24922323924,155186.0,87140.0,4078.0,6.258198195326258
63109.259317107295,155228.0,87174.0,4117.0,6.268292063381523
63109.26941097535,155235.0,87153.0,4113.0,6.278385931436787
63109.279504843405,155213.0,87197.0,4127.0,6.288479799492052
63109.28959871147,155267.0,87175.0,4128.0,6.298573667554592
63109.29969257952,155248.0,87178.0,4126.0,6.308667535609857
63109.30978644758,155220.0,87149.0,4100.0,6.318761403665121
63109.319880315634,155225.0,87183.0,4122.0,6.328855271720386
63109.329974183696,155273.0,87208.0,4129.0,6.338949139782926
63109.34006805175,155254.0,87176.0,4121.0,6.3490430078381905
63109.35016191981,155265.0,87176.0,4107.0,6.359136875893455
63109.36025578786,155232.0,87167.0,4091.0,6.3692307439487195
63109.37034965592,155266.0,87198.0,4096.0,6.379324612003984
63109.38044352398,155223.0,87171.0,4095.0,6.389418480066524
63109.390537392035,155248.0,87182.0,4123.0,6.399512348121789
63109.40063126009,155255.0,87186.0,4120.0,6.409606216177053
63109.410725128146,155264.0,87168.0,4105.0,6.419700084232318
63109.42081899621,155279.0,87180.0,4121.0,6.429793952294858
63109.43091286426,155267.0,87153.0,4169.0,6.439887820350123
63109.44100673232,155288.0,87199.0,4136.0,6.449981688405387
63109.451100600374,155267.0,87175.0,4111.0,6.460075556460652
63109.46119446844,155287.0,87183.0,4131.0,6.470169424523192
63109.47128833649,155269.0,87149.0,4115.0,6.4802632925784565
63109.48138220455,155282.0,87162.0,4103.0,6.490357160633721
63109.4914760726,155307.0,87166.0,4123.0,6.500451028688985
63109.501569940665,155305.0,87186.0,4133.0,6.510544896751526
63109.51166380872,155266.0,87173.0,4115.0,6.52063876480679
63109.521757676775,155289.0,87170.0,4130.0,6.530732632862055
63109.53185154483,155322.0,87178.0,4145.0,6.540826500917319
63109.541945412886,155298.0,87179.0,4122.0,6.550920368972584
63109.55203928095,155269.0,87164.0,4120.0,6.561014237035124
63109.562133149004,155303.0,87172.0,4124.0,6.571108105090389
63109.57222701706,155247.0,87162.0,4131.0,6.581201973145653
63109.582320885114,155254.0,87169.0,4104.0,6.5912958412009175
63109.59241475318,155192.0,87172.0,4109.0,6.601389709263458
63109.60250862123,155236.0,87167.0,4133.0,6.611483577318722
63109.61260248929,155233.0,87194.0,4136.0,6.621577445373987
63109.62269635734,155183.0,87162.0,4087.0,6.631671313429251
63109.632790225405,155165.0,87147.0,4115.0,6.641765181491792
63109.64288409346,155158.0,87155.0,4111.0,6.651859049547056
63109.652977961516,155149.0,87165.0,4123.0,6.661952917602321
63109.66307182957,155155.0,87140.0,4100.0,6.672046785657585
63109.673165697626,155153.0,87138.0,4105.0,6.68214065371285
63109.68325956569,155170.0,87157.0,4104.0,6.69223452177539
63109.693353433744,155209.0,87181.0,4126.0,6.7023283898306545
63109.7034473018,155152.0,87134.0,4083.0,6.712422257885919
63109.713541169855,155203.0,87142.0,4097.0,6.722516125941183
63109.72363503792,155222.0,87156.0,4112.0,6.732609994003724
63109.73372890597,155230.0,87176.0,4102.0,6.742703862058988
63109.74382277403,155209.0,87159.0,4081.0,6.752797730114253
63109.75391664208,155202.0,87156.0,4113.0,6.762891598169517
63109.764010510145,155195.0,87168.0,4130.0,6.772985466232058
63109.7741043782,155231.0,87174.0,4114.0,6.783079334287322
63109.784198246256,155219.0,87171.0,4113.0,6.793173202342587
63109.79429211431,155206.0,87150.0,4092.0,6.803267070397851
63109.804385982374,155192.0,87156.0,4077.0,6.8133609384603915
63109.81447985043,155187.0,87143.0,4108.0,6.823454806515656
63109.824573718484,155195.0,87146.0,4077.0,6.83354867457092
63109.83466758654,155208.0,87160.0,4108.0,6.843642542626185
63109.844761454595,155206.0,87142.0,4094.0,6.853736410681449
63109.85485532266,155228.0,87169.0,4108.0,6.86383027874399
63109.86494919071,155237.0,87161.0,4115.0,6.873924146799254
63109.87504305877,155218.0,87161.0,4104.0,6.884018014854519
63109.88513692682,155219.0,87173.0,4080.0,6.894111882909783
63109.895230794886,155196.0,87137.0,4082.0,6.904205750972324
63109.90532466294,155220.0,87171.0,4119.0,6.914299619027588
63109.915418530996,155200.0,87146.0,4083.0,6.9243934870828525
63109.92551239905,155204.0,87128.0,4115.0,6.934487355138117
63109.935606267114,155215.0,87167.0,4134.0,6.944581223200657
63109.94570013517,155231.0,87176.0,4114.0,6.954675091255922
63109.955794003225,155221.0,87163.0,4103.0,6.964768959311186
63109.96588787128,155212.0,87133.0,4102.0,6.974862827366451
63109.97598173934,155231.0,87179.0,4113.0,6.984956695428991
63109.9860756074,155206.0,87138.0,4096.0,6.995050563484256
63109.99616947545,155217.0,87166.0,4103.0,7.00514443153952
63110.00626334351,155222.0,87135.0,4107.0,7.015238299594785
63110.01635721156,155214.0,87139.0,4107.0,7.025332167650049
63110.026451079626,155202.0,87164.0,4079.0,7.0354260357125895
63110.03654494768,155241.0,87164.0,4094.0,7.045519903767854
63110.04663881574,155215.0,87124.0,4082.0,7.055613771823118
63110.05673268379,155235.0,87160.0,4098.0,7.065707639878383
63110.066826551854,155275.0,87183.0,4142.0,7.075801507940923
63110.07692041991,155256.0,87168.0,4106.0,7.085895375996188
63110.087014287965,155221.0,87159.0,4136.0,7.095989244051452
63110.09710815602,155233.0,87180.0,4103.0,7.106083112106717
63110.10720202408,155282.0,87154.0,4120.0,7.116176980169257
63110.11729589214,155268.0,87175.0,4117.0,7.126270848224522
63110.12738976019,155284.0,87171.0,4095.0,7.136364716279786
63110.13748362825,155284.0,87191.0,4130.0,7.1464585843350505
63110.14757749631,155235.0,87150.0,4101.0,7.156552452397591
63110.157671364366,155274.0,87187.0,4110.0,7.166646320452855
63110.16776523242,155267.0,87207.0,4116.0,7.17674018850812
63110.17785910048,155274.0,87163.0,4075.0,7.186834056563384
63110.18795296853,155281.0,87169.0,4089.0,7.196927924618649
63110.198046836595,155280.0,87168.0,4127.0,7.207021792681189
63110.20814070465,155264.0,87179.0,4110.0,7.217115660736454
63110.218234572705,155266.0,87153.0,4096.0,7.227209528791718
63110.22832844076,155309.0,87203.0,4135.0,7.237303396846983
63110.23842230882,155254.0,87182.0,4101.0,7.247397264909523
63110.24851617688,155308.0,87179.0,4119.0,7.2574911329647875
63110.25861004493,155309.0,87193.0,4083.0,7.267585001020052
63110.26870391299,155272.0,87190.0,4141.0,7.2776788690753165
63110.27879778105,155307.0,87184.0,4108.0,7.287772737137857
63110.28889164911,155306.0,87188.0,4111.0,7.297866605193121
63110.29898551716,155315.0,87172.0,4104.0,7.307960473248386
63110.30907938522,155275.0,87156.0,4096.0,7.31805434130365
63110.31917325328,155330.0,87182.0,4111.0,7.328148209366191
63110.329267121335,155309.0,87178.0,4118.0,7.338242077421455
63110.33936098939,155297.0,87168.0,4139.0,7.34833594547672
63110.349454857445,155323.0,87214.0,4109.0,7.358429813531984
63110.3595487255,155347.0,87178.0,4122.0,7.368523681587249
63110.36964259356,155339.0,87178.0,4127.0,7.378617549649789
63110.37973646162,155304.0,87173.0,4105.0,7.3887114177050535
63110.389830329674,155353.0,87214.0,4139.0,7.398805285760318
63110.39992419773,155345.0,87149.0,4117.0,7.408899153815582
63110.41001806579,155340.0,87195.0,4119.0,7.418993021878123
63110.42011193385,155340.0,87209.0,4115.0,7.429086889933387
63110.4302058019,155357.0,87166.0,4106.0,7.439180757988652
63110.44029966996,155339.0,87163.0,4133.0,7.449274626043916
63110.45039353802,155346.0,87189.0,4143.0,7.459368494106457
63110.460487406075,155318.0,87158.0,4124.0,7.469462362161721
63110.47058127413,155268.0,87151.0,4108.0,7.479556230216986
63110.480675142186,155266.0,87174.0,4104.0,7.48965009827225
63110.49076901024,155247.0,87169.0,4120.0,7.4997439663275145
63110.5008628783,155248.0,87169.0,4109.0,7.509837834390055
63110.51095674636,155184.0,87137.0,4064.0,7.519931702445319
63110.521050614414,155247.0,87168.0,4113.0,7.530025570500584
63110.53114448247,155212.0,87150.0,4102.0,7.540119438555848
63110.54123835053,155196.0,87126.0,4115.0,7.550213306618389
63110.55133221859,155210.0,87182.0,4103.0,7.560307174673653
63110.56142608664,155167.0,87142.0,4098.0,7.570401042728918
63110.5715199547,155203.0,87147.0,4102.0,7.580494910784182
63110.58161382276,155170.0,87140.0,4088.0,7.590588778846723
63110.591707690815,155211.0,87161.0,4116.0,7.600682646901987
63110.60180155887,155162.0,87158.0,4093.0,7.6107765149572515
63110.611895426926,155219.0,87150.0,4099.0,7.620870383012516
63110.62198929499,155240.0,87151.0,4112.0,7.630964251075056
63110.632083163044,155215.0,87149.0,4065.0,7.641058119130321
63110.6421770311,155248.0,87158.0,4108.0,7.651151987185585
63110.652270899154,155226.0,87151.0,4096.0,7.66124585524085
63110.66236476721,155192.0,87141.0,4073.0,7.671339723296114
63110.67245863527,155226.0,87179.0,4107.0,7.681433591358655
63110.68255250333,155207.0,87144.0,4086.0,7.691527459413919
63110.69264637138,155228.0,87157.0,4094.0,7.701621327469184
63110.70274023944,155223.0,87163.0,4075.0,7.711715195524448
63110.7128341075,155218.0,87140.0,4098.0,7.7218090635869885
63110.722927975556,155198.0,87132.0,4078.0,7.731902931642253
63110.73302184361,155217.0,87155.0,4093.0,7.741996799697517
63110.743115711666,155224.0,87165.0,4093.0,7.752090667752782
63110.75320957973,155202.0,87132.0,4065.0,7.762184535815322
63110.763303447784,155235.0,87170.0,4069.0,7.772278403870587
63110.77339731584,155219.0,87150.0,4077.0,7.782372271925851
63110.783491183895,155196.0,87135.0,4105.0,7.792466139981116
63110.79358505196,155214.0,87178.0,4101.0,7.802560008043656
63110.80367892001,155215.0,87166.0,4111.0,7.812653876098921
63110.81377278807,155178.0,87145.0,4075.0,7.822747744154185
63110.82386665612,155214.0,87130.0,4095.0,7.8328416122094495
63110.83396052418,155239.0,87168.0,4085.0,7.842935480264714
63110.84405439224,155216.0,87130.0,4066.0,7.853029348327254
63110.854148260296,155165.0,87129.0,4087.0,7.863123216382519
63110.86424212835,155218.0,87173.0,4088.0,7.873217084437783
63110.87433599641,155207.0,87138.0,4086.0,7.883310952493048
63110.88442986447,155231.0,87133.0,4082.0,7.893404820555588
63110.894523732524,155245.0,87166.0,4097.0,7.903498688610853
63110.90461760058,155243.0,87148.0,4091.0,7.913592556666117
63110.914711468635,155221.0,87141.0,4088.0,7.923686424721382
63110.9248053367,155265.0,87176.0,4096.0,7.933780292783922
63110.93489920475,155227.0,87135.0,4085.0,7.9438741608391865
63110.94499307281,155235.0,87157.0,4096.0,7.953968028894451
63110.95508694086,155245.0,87139.0,4092.0,7.9640618969497154
63110.965180808926,155227.0,87136.0,4110.0,7.974155765012256
63110.97527467698,155250.0,87146.0,4076.0,7.98424963306752
63110.985368545036,155250.0,87180.0,4086.0,7.994343501122785
63110.99546241309,155258.0,87158.0,4083.0,8.00443736917805
63111.00555628115,155222.0,87138.0,4111.0,8.014531237233314
63111.01565014921,155271.0,87137.0,4107.0,8.024625105295854
63111.025744017265,155269.0,87152.0,4091.0,8.034718973351119
63111.03583788532,155239.0,87153.0,4102.0,8.044812841406383
63111.045931753375,155240.0,87159.0,4116.0,8.054906709461648
63111.05602562144,155281.0,87159.0,4120.0,8.065000577524188
63111.06611948949,155280.0,87160.0,4095.0,8.075094445579452
63111.07621335755,155287.0,87150.0,4082.0,8.085188313634717
63111.0863072256,155300.0,87179.0,4112.0,8.095282181689981
63111.096401093666,155249.0,87138.0,4094.0,8.105376049752522
63111.10649496172,155295.0,87158.0,4099.0,8.115469917807786
63111.11658882978,155286.0,87182.0,4117.0,8.12556378586305
63111.12668269783,155286.0,87141.0,4123.0,8.135657653918315
63111.136776565894,155272.0,87155.0,4091.0,8.145751521980856
63111.14687043395,155282.0,87160.0,4104.0,8.15584539003612
63111.156964302005,155294.0,87189.0,4127.0,8.165939258091385
63111.16705817006,155274.0,87152.0,4090.0,8.176033126146649
63111.177152038115,155314.0,87182.0,4116.0,8.186126994201913
63111.18724590618,155300.0,87171.0,4097.0,8.196220862264454
63111.19733977423,155264.0,87152.0,4092.0,8.206314730319718
63111.20743364229,155297.0,87165.0,4076.0,8.216408598374983
63111.217527510344,155307.0,87171.0,4135.0,8.226502466430247
63111.227621378406,155293.0,87171.0,4098.0,8.236596334492788
63111.23771524646,155288.0,87150.0,4084.0,8.246690202548052
63111.24780911452,155324.0,87196.0,4120.0,8.256784070603317
63111.25790298257,155259.0,87147.0,4090.0,8.266877938658581
63111.267996850635,155265.0,87149.0,4103.0,8.276971806721122
63111.27809071869,155233.0,87158.0,4105.0,8.287065674776386
63111.288184586745,155231.0,87135.0,4077.0,8.29715954283165
63111.2982784548,155258.0,87156.0,4114.0,8.307253410886915
63111.30837232286,155193.0,87132.0,4091.0,8.317347278949455
63111.31846619092,155208.0,87123.0,4090.0,8.32744114700472
63111.32856005897,155181.0,87115.0,4066.0,8.337535015059984
63111.33865392703,155203.0,87150.0,4090.0,8.347628883115249
63111.348747795084,155188.0,87129.0,4069.0,8.357722751170513
63111.35884166315,155176.0,87142.0,4100.0,8.367816619233054
63111.3689355312,155184.0,87140.0,4095.0,8.377910487288318
63111.37902939926,155158.0,87106.0,4080.0,8.388004355343583
63111.38912326731,155157.0,87098.0,4080.0,8.398098223398847
63111.399217135375,155153.0,87146.0,4077.0,8.408192091461387
63111.40931100343,155184.0,87132.0,4091.0,8.418285959516652
63111.419404871485,155174.0,87120.0,4049.0,8.428379827571916
63111.42949873954,155197.0,87143.0,4106.0,8.43847369562718
63111.4395926076,155180.0,87154.0,4075.0,8.448567563689721
63111.44968647566,155179.0,87107.0,4080.0,8.458661431744986
63111.459780343714,155207.0,87119.0,4097.0,8.46875529980025
63111.46987421177,155165.0,87119.0,4082.0,8.478849167855515
63111.479968079824,155201.0,87137.0,4089.0,8.48894303591078
63111.49006194789,155147.0,87139.0,4081.0,8.49903690397332
63111.50015581594,155173.0,87129.0,4065.0,8.509130772028584
63111.510249684,155169.0,87118.0,4081.0,8.519224640083848
63111.52034355205,155191.0,87130.0,4069.0,8.529318508139113
63111.530437420115,155188.0,87160.0,4103.0,8.539412376201653
63111.54053128817,155162.0,87101.0,4055.0,8.549506244256918
63111.550625156226,155196.0,87162.0,4101.0,8.559600112312182
63111.56071902428,155190.0,87127.0,4079.0,8.569693980367447
63111.57081289234,155191.0,87123.0,4064.0,8.579787848429987
63111.5809067604,155197.0,87154.0,4072.0,8.589881716485252
63111.591000628454,155172.0,87116.0,4046.0,8.599975584540516
63111.60109449651,155180.0,87120.0,4082.0,8.61006945259578
63111.61118836457,155143.0,87115.0,4063.0,8.620163320658321
63111.62128223263,155144.0,87141.0,4069.0,8.630257188713585
63111.63137610068,155149.0,87122.0,4059.0,8.64035105676885
63111.64146996874,155189.0,87131.0,4086.0,8.650444924824114
63111.65156383679,155181.0,87150.0,4063.0,8.660538792879379
63111.661657704855,155170.0,87116.0,4095.0,8.67063266094192
63111.67175157291,155147.0,87103.0,4067.0,8.680726528997184
63111.681845440966,155194.0,87128.0,4072.0,8.690820397052448
63111.69193930902,155221.0,87138.0,4069.0,8.700914265107713
63111.702033177084,155224.0,87134.0,4087.0,8.711008133170253
63111.71212704514,155215.0,87136.0,4057.0,8.721102001225518
63111.722220913194,155204.0,87131.0,4076.0,8.731195869280782
63111.73231478125,155201.0,87120.0,4095.0,8.741289737336047
63111.74240864931,155195.0,87109.0,4059.0,8.751383605398587
63111.75250251737,155193.0,87112.0,4086.0,8.761477473453851
63111.76259638542,155219.0,87126.0,4086.0,8.771571341509116
63111.77269025348,155209.0,87103.0,4069.0,8.78166520956438
63111.78278412154,155209.0,87130.0,4110.0,8.79175907762692
63111.792877989596,155210.0,87102.0,4062.0,8.801852945682185
63111.80297185765,155220.0,87136.0,4093.0,8.81194681373745
63111.813065725706,155241.0,87119.0,4095.0,8.822040681792714
63111.82315959376,155248.0,87132.0,4113.0,8.832134549847979
63111.833253461824,155208.0,87117.0,4062.0,8.842228417910519
63111.84334732988,155233.0,87131.0,4085.0,8.852322285965784
63111.853441197934,155259.0,87168.0,4086.0,8.862416154021048
63111.86353506599,155211.0,87106.0,4074.0,8.872510022076312
63111.87362893405,155247.0,87146.0,4093.0,8.882603890138853
63111.88372280211,155237.0,87143.0,4091.0,8.892697758194117
63111.89381667016,155229.0,87137.0,4080.0,8.902791626249382
63111.90391053822,155250.0,87147.0,4113.0,8.912885494304646
63111.91400440628,155269.0,87162.0,4096.0,8.922979362367187
63111.924098274336,155230.0,87125.0,4076.0,8.933073230422451
63111.93419214239,155215.0,87120.0,4098.0,8.943167098477716
63111.94428601045,155241.0,87145.0,4111.0,8.95326096653298
63111.95437987851,155217.0,87113.0,4082.0,8.96335483459552
63111.964473746564,155232.0,87133.0,4095.0,8.973448702650785
63111.97456761462,155221.0,87141.0,4084.0,8.98354257070605
63111.984661482675,155174.0,87104.0,4062.0,8.993636438761314
63111.99475535073,155165.0,87120.0,4069.0,9.003730306816578
63112.00484921879,155178.0,87123.0,4073.0,9.013824174879119
63112.01494308685,155167.0,87128.0,4067.0,9.023918042934383
63112.0250369549,155119.0,87099.0,4073.0,9.034011910989648
63112.03513082296,155129.0,87090.0,4061.0,9.044105779044912
63112.04522469102,155114.0,87098.0,4059.0,9.054199647107453
63112.055318559076,155107.0,87097.0,4041.0,9.064293515162717
63112.06541242713,155090.0,87121.0,4068.0,9.074387383217982
63112.07550629519,155137.0,87115.0,4088.0,9.084481251273246
63112.08560016325,155134.0,87120.0,4079.0,9.094575119335786
63112.095694031304,155118.0,87104.0,4062.0,9.104668987391051
63112.10578789936,155117.0,87090.0,4086.0,9.114762855446315
63112.115881767415,155096.0,87066.0,4059.0,9.12485672350158
63112.12597563547,155099.0,87119.0,4073.0,9.134950591556844
63112.13606950353,155138.0,87097.0,4063.0,9.145044459619385
63112.14616337159,155154.0,87096.0,4079.0,9.15513832767465
63112.15625723964,155104.0,87082.0,4060.0,9.165232195729914
63112.1663511077,155149.0,87109.0,4081.0,9.175326063785178
63112.17644497576,155133.0,87105.0,4060.0,9.185419931847719
63112.18653884382,155133.0,87106.0,4079.0,9.195513799902983
63112.19663271187,155160.0,87124.0,4073.0,9.205607667958247
63112.20672657993,155111.0,87079.0,4053.0,9.215701536013512
63112.21682044799,155128.0,87100.0,4058.0,9.225795404076052
63112.226914316045,155098.0,87086.0,4064.0,9.235889272131317
63112.2370081841,155133.0,87093.0,4088.0,9.245983140186581
63112.247102052155,155134.0,87101.0,4061.0,9.256077008241846
63112.25719592022,155139.0,87098.0,4061.0,9.266170876304386
63112.26728978827,155113.0,87105.0,4079.0,9.27626474435965
63112.27738365633,155111.0,87097.0,4038.0,9.286358612414915
63112.28747752438,155150.0,87112.0,4087.0,9.29645248047018
63112.29757139244,155111.0,87103.0,4058.0,9.306546348525444
63112.3076652605,155120.0,87075.0,4072.0,9.316640216587984
63112.31775912856,155131.0,87101.0,4080.0,9.326734084643249
63112.32785299661,155128.0,87089.0,4068.0,9.336827952698513
63112.33794686467,155098.0,87094.0,4054.0,9.346921820753778
63112.34804073273,155115.0,87065.0,4063.0,9.357015688816318
63112.358134600785,155126.0,87109.0,4013.0,9.367109556871583
63112.36822846884,155121.0,87107.0,4080.0,9.377203424926847
63112.378322336896,155129.0,87100.0,4073.0,9.387297292982112
63112.38841620496,155109.0,87097.0,4036.0,9.397391161044652
63112.39851007301,155113.0,87091.0,4057.0,9.407485029099917
63112.40860394107,155143.0,87120.0,4076.0,9.417578897155181
63112.418697809124,155126.0,87104.0,4056.0,9.427672765210446
63112.42879167719,155152.0,87120.0,4034.0,9.437766633272986
63112.43888554524,155129.0,87090.0,4043.0,9.44786050132825
63112.4489794133,155166.0,87111.0,4085.0,9.457954369383515
63112.45907328135,155113.0,87090.0,4079.0,9.46804823743878
63112.46916714941,155112.0,87121.0,4062.0,9.478142105494044
63112.47926101747,155107.0,87103.0,4040.0,9.488235973556584
63112.489354885525,155160.0,87108.0,4046.0,9.498329841611849
63112.49944875358,155150.0,87109.0,4048.0,9.508423709667113
63112.509542621636,155132.0,87082.0,4092.0,9.518517577722378
63112.5196364897,155154.0,87122.0,4044.0,9.528611445784918
63112.52973035775,155143.0,87089.0,4052.0,9.538705313840182
63112.53982422581,155124.0,87113.0,4052.0,9.548799181895447
63112.549918093864,155159.0,87090.0,4064.0,9.558893049950711
63112.56001196193,155134.0,87104.0,4047.0,9.568986918013252
63112.57010582998,155173.0,87089.0,4073.0,9.579080786068516
63112.58019969804,155166.0,87101.0,4048.0,9.58917465412378
63112.59029356609,155156.0,87091.0,4072.0,9.599268522179045
63112.600387434155,155180.0,87128.0,4055.0,9.609362390241586
63112.61048130221,155155.0,87065.0,4063.0,9.61945625829685
63112.620575170266,155139.0,87075.0,4049.0,9.629550126352115
63112.63066903832,155166.0,87100.0,4067.0,9.639643994407379
63112.640762906376,155161.0,87135.0,4067.0,9.649737862462644
63112.65085677444,155156.0,87119.0,4071.0,9.659831730525184
63112.660950642494,155164.0,87059.0,4082.0,9.669925598580448
63112.67104451055,155141.0,87100.0,4056.0,9.680019466635713
63112.681138378604,155127.0,87095.0,4083.0,9.690113334690977
63112.69123224667,155111.0,87110.0,4079.0,9.700207202753518
63112.70132611472,155110.0,87098.0,4078.0,9.710301070808782
63112.71141998278,155072.0,87080.0,4045.0,9.720394938864047
63112.72151385083,155030.0,87046.0,4029.0,9.730488806919311
63112.731607718895,155025.0,87041.0,4051.0,9.740582674981852
63112.74170158695,155027.0,87057.0,4054.0,9.750676543037116
63112.751795455006,155029.0,87077.0,4033.0,9.76077041109238
63112.76188932306,155028.0,87071.0,4041.0,9.770864279147645
63112.77198319112,154986.0,87073.0,4011.0,9.780958147210185
63112.78207705918,155001.0,87053.0,4016.0,9.79105201526545
63112.792170927234,155036.0,87070.0,4044.0,9.801145883320714
63112.80226479529,155020.0,87053.0,4019.0,9.811239751375979
63112.812358663345,155056.0,87081.0,4044.0,9.821333619431243
63112.82245253141,155030.0,87083.0,4026.0,9.831427487493784
63112.83254639946,155038.0,87066.0,4041.0,9.841521355549048
63112.84264026752,154999.0,87085.0,4032.0,9.851615223604313
63112.85273413557,155069.0,87077.0,4023.0,9.861709091659577
63112.862828003636,154995.0,87066.0,4037.0,9.871802959722118
63112.87292187169,155031.0,87068.0,4024.0,9.881896827777382
63112.883015739746,155030.0,87095.0,4048.0,9.891990695832646
63112.8931096078,155037.0,87072.0,4023.0,9.902084563887911
63112.903203475864,155012.0,87047.0,4037.0,9.912178431950451
63112.91329734392,155036.0,87063.0,4036.0,9.922272300005716
63112.923391211974,155033.0,87080.0,4051.0,9.93236616806098
63112.93348508003,155066.0,87081.0,4009.0,9.942460036116245
63112.94357894809,155037.0,87083.0,4060.0,9.952553904178785
63112.95367281615,155018.0,87070.0,4027.0,9.96264777223405
63112.9637666842,155007.0,87067.0,4021.0,9.972741640289314
63112.97386055226,154995.0,87066.0,4044.0,9.982835508344579
63112.98395442031,155031.0,87068.0,4009.0,9.992929376399843
63112.994048288376,155025.0,87052.0,4026.0,10.003023244462383
63113.00414215643,154977.0,87063.0,4006.0,10.013117112517648
63113.014236024486,155031.0,87094.0,4027.0,10.023210980572912
63113.02432989254,155026.0,87085.0,4026.0,10.033304848628177
63113.034423760604,155007.0,87080.0,4023.0,10.043398716690717
63113.04451762866,155028.0,87038.0,4019.0,10.053492584745982
63113.054611496715,155014.0,87059.0,4003.0,10.063586452801246
63113.06470536477,155040.0,87071.0,4000.0,10.07368032085651
63113.07479923283,154991.0,87050.0,4004.0,10.083774188919051
63113.08489310089,155003.0,87045.0,4029.0,10.093868056974316
63113.09498696894,155022.0,87064.0,4022.0,10.10396192502958
63113.105080837,155035.0,87056.0,4000.0,10.114055793084844
63113.11517470505,155033.0,87061.0,4012.0,10.124149661140109
63113.125268573116,155000.0,87020.0,4016.0,10.13424352920265
63113.13536244117,155031.0,87081.0,4046.0,10.144337397257914
63113.14545630923,155029.0,87046.0,4016.0,10.154431265313178
63113.15555017728,155058.0,87061.0,4032.0,10.164525133368443
63113.165644045344,155049.0,87084.0,4030.0,10.174619001430983
63113.1757379134,155029.0,87031.0,4037.0,10.184712869486248
63113.185831781455,155064.0,87082.0,4053.0,10.194806737541512
63113.19592564951,155065.0,87045.0,4055.0,10.204900605596777
63113.20601951757,155048.0,87060.0,4033.0,10.214994473659317
63113.21611338563,155016.0,87058.0,4010.0,10.225088341714581
63113.22620725368,155049.0,87042.0,4029.0,10.235182209769846
63113.23630112174,155043.0,87052.0,4037.0,10.24527607782511
63113.2463949898,155054.0,87058.0,4040.0,10.25536994588765
63113.256488857856,155034.0,87075.0,4029.0,10.265463813942915
63113.26658272591,155024.0,87031.0,4041.0,10.27555768199818
63113.27667659397,155063.0,87077.0,4062.0,10.285651550053444
63113.28677046202,155053.0,87059.0,4033.0,10.295745418108709
63113.296864330085,155090.0,87060.0,4041.0,10.30583928617125
63113.30695819814,155063.0,87085.0,4048.0,10.315933154226514
63113.317052066195,155073.0,87073.0,4056.0,10.326027022281778
63113.32714593425,155041.0,87067.0,4031.0,10.336120890337043
63113.33723980231,155043.0,87040.0,4046.0,10.346214758399583
63113.34733367037,154984.0,87067.0,4032.0,10.356308626454847
63113.35742753842,155012.0,87045.0,4024.0,10.366402494510112
63113.36752140648,154987.0,87044.0,4021.0,10.376496362565376
63113.37761527454,154972.0,87028.0,3988.0,10.386590230627917
63113.3877091426,154966.0,87040.0,4018.0,10.396684098683181
63113.39780301065,154885.0,87010.0,3971.0,10.406777966738446
63113.40789687871,154927.0,87030.0,4006.0,10.41687183479371
63113.41799074677,154917.0,87048.0,4028.0,10.42696570285625
63113.428084614825,154930.0,87040.0,4001.0,10.437059570911515
63113.43817848288,154907.0,87032.0,3975.0,10.44715343896678
63113.448272350935,154921.0,87026.0,4000.0,10.457247307022044
63113.45836621899,154889.0,87030.0,4030.0,10.467341175077308
63113.46846008705,154891.0,87020.0,3982.0,10.477435043139849
63113.47855395511,154924.0,87046.0,4024.0,10.487528911195113
63113.488647823164,154893.0,87037.0,3998.0,10.497622779250378
63113.49874169122,154890.0,87009.0,3975.0,10.507716647305642
63113.50883555928,154932.0,87058.0,3985.0,10.517810515368183
63113.51892942734,154909.0,87034.0,3983.0,10.527904383423447
63113.52902329539,154883.0,87019.0,3989.0,10.537998251478712
63113.53911716345,154907.0,87010.0,4017.0,10.548092119533976
63113.54921103151,154909.0,87009.0,4018.0,10.558185987596516
63113.559304899565,154902.0,87012.0,3980.0,10.568279855651781
63113.56939876762,154894.0,87022.0,3991.0,10.578373723707045
63113.579492635676,154925.0,87040.0,3982.0,10.58846759176231
63113.58958650374,154873.0,87014.0,3973.0,10.59856145982485
63113.59968037179,154881.0,87043.0,3998.0,10.608655327880115
63113.60977423985,154896.0,87017.0,3984.0,10.61874919593538
63113.619868107904,154886.0,87002.0,3990.0,10.628843063990644
63113.62996197596,154876.0,87003.0,3981.0,10.638936932045908
63113.64005584402,154876.0,87024.0,3988.0,10.649030800108449
63113.65014971208,154868.0,87028.0,3961.0,10.659124668163713
63113.66024358013,154835.0,87014.0,3997.0,10.669218536218978
63113.67033744819,154885.0,87034.0,3985.0,10.679312404274242
63113.68043131625,154865.0,86986.0,3992.0,10.689406272336782
63113.690525184305,154867.0,87022.0,3974.0,10.699500140392047
63113.70061905236,154866.0,87013.0,3984.0,10.709594008447311
63113.710712920416,154882.0,87022.0,4001.0,10.719687876502576
63113.72080678848,154869.0,87018.0,3969.0,10.729781744565116
63113.730900656534,154845.0,87016.0,3968.0,10.73987561262038
63113.74099452459,154867.0,86996.0,3988.0,10.749969480675645
63113.751088392644,154861.0,86998.0,3971.0,10.76006334873091
63113.7611822607,154887.0,87021.0,3994.0,10.770157216786174
63113.77127612876,154870.0,87005.0,3992.0,10.780251084848715
63113.78136999682,154893.0,87012.0,3983.0,10.790344952903979
63113.79146386487,154879.0,87069.0,4004.0,10.800438820959243
63113.80155773293,154902.0,87029.0,4019.0,10.810532689014508
63113.81165160099,154870.0,87006.0,3969.0,10.820626557077048
63113.821745469046,154890.0,87015.0,3981.0,10.830720425132313
63113.8318393371,154893.0,87022.0,4005.0,10.840814293187577
63113.841933205156,154858.0,87011.0,3972.0,10.850908161242842
63113.85202707322,154875.0,87048.0,3985.0,10.861002029305382
63113.862120941274,154892.0,87012.0,3988.0,10.871095897360647
63113.87221480933,154910.0,87016.0,3999.0,10.881189765415911
63113.882308677385,154889.0,87016.0,3985.0,10.891283633471176
63113.89240254545,154903.0,87013.0,4029.0,10.901377501533716
63113.9024964135,154903.0,87022.0,3992.0,10.91147136958898
63113.91259028156,154870.0,86995.0,3989.0,10.921565237644245
63113.92268414961,154922.0,87041.0,4013.0,10.93165910569951
63113.93277801767,154937.0,87066.0,4023.0,10.941752973754774
63113.94287188573,154905.0,87016.0,3990.0,10.951846841817314
63113.952965753786,154894.0,87010.0,3965.0,10.961940709872579
63113.96305962184,154921.0,87036.0,4003.0,10.972034577927843
63113.9731534899,154908.0,87011.0,3996.0,10.982128445983108
63113.98324735796,154918.0,87015.0,4008.0,10.992222314045648
63113.993341226014,154926.0,86988.0,3997.0,11.002316182100913
63114.00343509407,154896.0,87012.0,3972.0,11.012410050156177
63114.013528962125,154917.0,87025.0,3971.0,11.022503918211441
63114.02362283019,154881.0,87021.0,3992.0,11.032597786273982
63114.03371669824,154853.0,87029.0,3958.0,11.042691654329246
63114.0438105663,154870.0,87000.0,3993.0,11.05278552238451
63114.05390443435,154857.0,87010.0,3993.0,11.062879390439775
63114.063998302416,154798.0,86990.0,3965.0,11.072973258502316
63114.07409217047,154768.0,86979.0,3947.0,11.08306712655758
63114.084186038526,154804.0,86992.0,3954.0,11.093160994612845
63114.09427990658,154762.0,86977.0,3980.0,11.10325486266811
63114.10437377464,154762.0,86982.0,3968.0,11.113348730723374
63114.1144676427,154743.0,86961.0,3955.0,11.123442598785914
63114.124561510755,154728.0,86967.0,3957.0,11.133536466841178
63114.13465537881,154748.0,86962.0,3948.0,11.143630334896443
63114.144749246865,154748.0,86981.0,3966.0,11.153724202951707
63114.15484311493,154740.0,86961.0,3971.0,11.163818071014248
63114.16493698298,154733.0,86968.0,3950.0,11.173911939069512
63114.17503085104,154750.0,87007.0,3964.0,11.184005807124777
63114.18512471909,154743.0,86988.0,3951.0,11.194099675180041
63114.195218587156,154709.0,86941.0,3927.0,11.204193543242582
63114.20531245521,154700.0,86951.0,3928.0,11.214287411297846
63114.21540632327,154762.0,86992.0,3958.0,11.22438127935311
63114.22550019132,154733.0,86974.0,3932.0,11.234475147408375
63114.235594059384,154700.0,86964.0,3960.0,11.244569015470915
63114.24568792744,154728.0,87001.0,3963.0,11.25466288352618
63114.255781795495,154705.0,86954.0,3960.0,11.264756751581444
63114.26587566355,154709.0,86968.0,3934.0,11.274850619636709
63114.275969531605,154701.0,86941.0,3955.0,11.284944487691973
63114.28606339967,154740.0,86985.0,3964.0,11.295038355754514
63114.29615726772,154682.0,86989.0,3929.0,11.305132223809778
63114.30625113578,154709.0,86980.0,3938.0,11.315226091865043
63114.316345003834,154714.0,87001.0,3943.0,11.325319959920307
63114.326438871896,154698.0,86947.0,3924.0,11.335413827982848
63114.33653273995,154731.0,86989.0,3963.0,11.345507696038112
63114.34662660801,154656.0,86941.0,3932.0,11.355601564093377
63114.35672047606,154700.0,86972.0,3942.0,11.365695432148641
63114.366814344125,154678.0,86968.0,3927.0,11.375789300211181
63114.37690821218,154725.0,86978.0,3961.0,11.385883168266446
63114.387002080235,154673.0,86952.0,3945.0,11.39597703632171
63114.39709594829,154705.0,86956.0,3930.0,11.406070904376975
63114.40718981635,154689.0,86992.0,3970.0,11.416164772439515
63114.41728368441,154689.0,86955.0,3923.0,11.42625864049478
63114.42737755246,154668.0,86993.0,3949.0,11.436352508550044
63114.43747142052,154724.0,86976.0,3940.0,11.446446376605309
63114.447565288574,154751.0,86952.0,3950.0,11.456540244660573
63114.45765915664,154735.0,86967.0,3934.0,11.466634112723114
63114.46775302469,154755.0,86983.0,3971.0,11.476727980778378
63114.47784689275,154712.0,86970.0,3942.0,11.486821848833642
63114.4879407608,154692.0,86991.0,3931.0,11.496915716888907
63114.498034628865,154701.0,86992.0,3942.0,11.507009584951447
63114.50812849692,154706.0,86978.0,3927.0,11.517103453006712
63114.518222364975,154729.0,86969.0,3943.0,11.527197321061976
63114.52831623303,154727.0,86971.0,3924.0,11.53729118911724
63114.53841010109,154723.0,86951.0,3928.0,11.547385057179781
63114.54850396915,154755.0,86985.0,3956.0,11.557478925235046
63114.558597837204,154736.0,86963.0,3941.0,11.56757279329031
63114.56869170526,154748.0,86999.0,3941.0,11.577666661345575
63114.57878557332,154706.0,86979.0,3923.0,11.587760529408115
63114.58887944138,154737.0,86990.0,3929.0,11.59785439746338
63114.59897330943,154712.0,86961.0,3955.0,11.607948265518644
63114.60906717749,154708.0,86959.0,3978.0,11.618042133573908
63114.61916104554,154721.0,86956.0,3932.0,11.628136001629173
63114.629254913605,154751.0,86948.0,3959.0,11.638229869691713
63114.63934878166,154737.0,86977.0,3951.0,11.648323737746978
63114.649442649716,154706.0,86954.0,3949.0,11.658417605802242
63114.65953651777,154726.0,86983.0,3958.0,11.668511473857507
63114.66963038583,154756.0,86951.0,3935.0,11.678605341920047
63114.67972425389,154761.0,86988.0,3952.0,11.688699209975312
63114.689818121944,154744.0,86965.0,3940.0,11.698793078030576
63114.69991199,154790.0,86996.0,3984.0,11.70888694608584
63114.71000585806,154718.0,86973.0,3924.0,11.71898081414838
63114.72009972612,154756.0,86979.0,3954.0,11.729074682203645
63114.73019359417,154739.0,86996.0,3955.0,11.73916855025891
63114.74028746223,154727.0,86973.0,3927.0,11.749262418314174
63114.75038133028,154769.0,86997.0,3954.0,11.759356286369439
63114.760475198345,154740.0,86967.0,3955.0,11.76945015443198
63114.7705690664,154717.0,86948.0,3945.0,11.779544022487244
63114.780662934456,154680.0,86941.0,3934.0,11.789637890542508
63114.79075680251,154709.0,86983.0,3964.0,11.799731758597773
63114.800850670574,154658.0,86965.0,3917.0,11.809825626660313
63114.81094453863,154614.0,86947.0,3953.0,11.819919494715577
63114.821038406684,154619.0,86956.0,3938.0,11.830013362770842
63114.83113227474,154582.0,86932.0,3907.0,11.840107230826106
63114.8412261428,154604.0,86949.0,3931.0,11.850201098888647
63114.85132001086,154604.0,86948.0,3925.0,11.860294966943911
63114.86141387891,154538.0,86917.0,3908.0,11.870388834999176
63114.87150774697,154537.0,86926.0,3905.0,11.88048270305444
63114.88160161503,154584.0,86948.0,3938.0,11.89057657111698
63114.891695483086,154594.0,86967.0,3912.0,11.900670439172245
63114.90178935114,154570.0,86914.0,3905.0,11.91076430722751
63114.911883219196,154594.0,86922.0,3906.0,11.920858175282774
63114.92197708725,154557.0,86950.0,3906.0,11.930952043338038
63114.932070955314,154568.0,86949.0,3907.0,11.941045911400579
63114.94216482337,154575.0,86945.0,3901.0,11.951139779455843
63114.952258691425,154566.0,86949.0,3922.0,11.961233647511108
63114.96235255948,154548.0,86940.0,3874.0,11.971327515566372
63114.97244642754,154541.0,86933.0,3902.0,11.981421383628913
63114.9825402956,154518.0,86932.0,3920.0,11.991515251684177
63114.99263416365,154507.0,86905.0,3889.0,12.001609119739442
63115.00272803171,154499.0,86940.0,3905.0,12.011702987794706
63115.01282189977,154539.0,86933.0,3897.0,12.021796855857247
63115.022915767826,154550.0,86919.0,3904.0,12.031890723912511
63115.03300963588,154543.0,86923.0,3870.0,12.041984591967775
63115.04310350394,154536.0,86910.0,3912.0,12.05207846002304
63115.053197372,154531.0,86924.0,3894.0,12.06217232808558
63115.063291240054,154526.0,86918.0,3910.0,12.072266196140845
63115.07338510811,154545.0,86932.0,3902.0,12.08236006419611
63115.083478976165,154558.0,86911.0,3906.0,12.092453932251374
63115.09357284422,154511.0,86926.0,3888.0,12.102547800306638
63115.10366671228,154523.0,86922.0,3876.0,12.112641668369179
63115.11376058034,154519.0,86931.0,3915.0,12.122735536424443
63115.12385444839,154502.0,86910.0,3874.0,12.132829404479708
63115.13394831645,154537.0,86942.0,3896.0,12.142923272534972
63115.14404218451,154526.0,86907.0,3880.0,12.153017140597512
63115.154136052566,154494.0,86910.0,3870.0,12.163111008652777
63115.16422992062,154542.0,86929.0,3891.0,12.173204876708041
63115.17432378868,154526.0,86930.0,3887.0,12.183298744763306
63115.18441765674,154523.0,86929.0,3897.0,12.193392612825846
63115.194511524795,154525.0,86931.0,3883.0,12.20348648088111
63115.20460539285,154560.0,86944.0,3910.0,12.213580348936375
63115.214699260905,154528.0,86932.0,3887.0,12.22367421699164
63115.22479312897,154546.0,86927.0,3866.0,12.23376808505418
63115.23488699702,154571.0,86950.0,3867.0,12.243861953109445
63115.24498086508,154541.0,86923.0,3864.0,12.253955821164709
63115.25507473313,154550.0,86939.0,3893.0,12.264049689219974
63115.26516860119,154563.0,86945.0,3942.0,12.274143557275238
63115.27526246925,154553.0,86914.0,3911.0,12.284237425337778
63115.28535633731,154513.0,86905.0,3866.0,12.294331293393043
63115.29545020536,154550.0,86931.0,3901.0,12.304425161448307
63115.30554407342,154579.0,86954.0,3902.0,12.314519029503572
63115.31563794148,154537.0,86931.0,3866.0,12.324612897566112
63115.325731809535,154556.0,86949.0,3888.0,12.334706765621377
63115.33582567759,154550.0,86948.0,3902.0,12.344800633676641
63115.345919545645,154574.0,86966.0,3901.0,12.354894501731906
63115.35601341371,154587.0,86949.0,3910.0,12.364988369794446
63115.36610728176,154535.0,86927.0,3878.0,12.37508223784971
63115.37620114982,154571.0,86945.0,3887.0,12.385176105904975
63115.38629501787,154566.0,86946.0,3898.0,12.39526997396024
63115.396388885936,154574.0,86948.0,3932.0,12.40536384202278
63115.40648275399,154569.0,86933.0,3891.0,12.415457710078044
63115.41657662205,154558.0,86935.0,3895.0,12.425551578133309
63115.4266704901,154568.0,86918.0,3899.0,12.435645446188573
63115.43676435816,154596.0,86962.0,3890.0,12.445739314243838
63115.44685822622,154558.0,86972.0,3903.0,12.455833182306378
63115.456952094275,154598.0,86947.0,3894.0,12.465927050361643
63115.46704596233,154590.0,86956.0,3905.0,12.476020918416907
63115.477139830386,154590.0,86947.0,3889.0,12.486114786472172
63115.48723369845,154570.0,86950.0,3902.0,12.496208654534712
63115.4973275665,154623.0,86974.0,3884.0,12.506302522589976
63115.50742143456,154611.0,86953.0,3907.0,12.516396390645241
63115.517515302614,154622.0,86937.0,3908.0,12.526490258700505
63115.52760917068,154615.0,86948.0,3901.0,12.536584126763046
63115.53770303873,154570.0,86897.0,3939.0,12.54667799481831
63115.54779690679,154606.0,86943.0,3902.0,12.556771862873575
63115.55789077484,154602.0,86961.0,3930.0,12.56686573092884
63115.5679846429,154617.0,86936.0,3909.0,12.576959598984104
63115.57807851096,154622.0,86938.0,3912.0,12.587053467046644
63115.588172379015,154620.0,86956.0,3917.0,12.597147335101909
63115.59826624707,154629.0,86941.0,3915.0,12.607241203157173
63115.608360115126,154635.0,86960.0,3932.0,12.617335071212437
63115.61845398319,154624.0,86935.0,3915.0,12.627428939274978
63115.628547851244,154613.0,86952.0,3913.0,12.637522807330242
63115.6386417193,154608.0,86971.0,3909.0,12.647616675385507
63115.648735587354,154561.0,86923.0,3897.0,12.657710543440771
63115.65882945542,154565.0,86964.0,3927.0,12.667804411503312
63115.66892332347,154521.0,86944.0,3913.0,12.677898279558576
63115.67901719153,154508.0,86910.0,3906.0,12.68799214761384
63115.68911105958,154472.0,86902.0,3908.0,12.698086015669105
63115.699204927645,154479.0,86935.0,3883.0,12.708179883731646
63115.7092987957,154462.0,86926.0,3884.0,12.71827375178691
63115.719392663756,154464.0,86910.0,3872.0,12.728367619842174
63115.72948653181,154421.0,86896.0,3859.0,12.738461487897439
63115.739580399866,154448.0,86918.0,3860.0,12.748555355952703
63115.74967426793,154438.0,86930.0,3873.0,12.758649224015244
63115.759768135984,154439.0,86931.0,3889.0,12.768743092070508
63115.76986200404,154418.0,86907.0,3880.0,12.778836960125773
63115.779955872094,154420.0,86933.0,3876.0,12.788930828181037
63115.79004974016,154423.0,86913.0,3869.0,12.799024696243578
63115.80014360821,154394.0,86928.0,3881.0,12.809118564298842
63115.81023747627,154395.0,86910.0,3838.0,12.819212432354107
63115.82033134432,154365.0,86904.0,3835.0,12.829306300409371
63115.830425212385,154379.0,86903.0,3858.0,12.839400168471911
63115.84051908044,154345.0,86893.0,3849.0,12.849494036527176
63115.850612948496,154371.0,86898.0,3848.0,12.85958790458244
63115.86070681655,154367.0,86915.0,3860.0,12.869681772637705
63115.870800684614,154369.0,86911.0,3851.0,12.879775640700245
63115.88089455267,154351.0,86899.0,3834.0,12.88986950875551
63115.890988420724,154341.0,86906.0,3832.0,12.899963376810774
63115.90108228878,154406.0,86907.0,3877.0,12.910057244866039
63115.911176156835,154386.0,86902.0,3846.0,12.920151112921303
63115.9212700249,154379.0,86891.0,3831.0,12.930244980983844
63115.93136389295,154370.0,86937.0,3845.0,12.940338849039108
63115.94145776101,154376.0,86917.0,3844.0,12.950432717094372
63115.95155162906,154378.0,86901.0,3868.0,12.960526585149637
63115.961645497126,154351.0,86913.0,3845.0,12.970620453212177
63115.97173936518,154342.0,86888.0,3865.0,12.980714321267442
63115.981833233236,154340.0,86876.0,3861.0,12.990808189322706
63115.99192710129,154372.0,86907.0,3868.0,13.00090205737797
63116.002020969354,154382.0,86923.0,3848.0,13.010995925440511
63116.01211483741,154386.0,86935.0,3842.0,13.021089793495776
63116.022208705464,154351.0,86933.0,3860.0,13.03118366155104
63116.03230257352,154367.0,86896.0,3832.0,13.041277529606305
63116.04239644158,154374.0,86907.0,3848.0,13.051371397668845
63116.05249030964,154374.0,86933.0,3841.0,13.06146526572411
63116.06258417769,154355.0,86899.0,3821.0,13.071559133779374
63116.07267804575,154400.0,86963.0,3849.0,13.081653001834638
63116.0827719138,154384.0,86911.0,3846.0,13.091746869889903
63116.092865781866,154371.0,86913.0,3842.0,13.101840737952443
63116.10295964992,154363.0,86915.0,3836.0,13.111934606007708
63116.11305351798,154398.0,86918.0,3820.0,13.122028474062972
63116.12314738603,154383.0,86919.0,3846.0,13.132122342118237
63116.133241254094,154393.0,86913.0,3840.0,13.142216210180777
63116.14333512215,154434.0,86924.0,3858.0,13.152310078236042
63116.153428990205,154381.0,86889.0,3853.0,13.162403946291306
63116.16352285826,154394.0,86918.0,3841.0,13.17249781434657
63116.17361672632,154386.0,86907.0,3838.0,13.182591682409111
63116.18371059438,154403.0,86900.0,3870.0,13.192685550464375
63116.19380446243,154376.0,86886.0,3846.0,13.20277941851964
63116.20389833049,154385.0,86890.0,3841.0,13.212873286574904
63116.21399219855,154393.0,86902.0,3862.0,13.222967154637445
63116.224086066606,154385.0,86900.0,3857.0,13.23306102269271
63116.23417993466,154401.0,86944.0,3883.0,13.243154890747974
63116.24427380272,154418.0,86916.0,3862.0,13.253248758803238
63116.25436767077,154416.0,86896.0,3843.0,13.263342626858503
63116.264461538834,154434.0,86895.0,3862.0,13.273436494921043
63116.27455540689,154429.0,86941.0,3875.0,13.283530362976308
63116.284649274945,154429.0,86927.0,3866.0,13.293624231031572
63116.294743143,154404.0,86923.0,3835.0,13.303718099086836
63116.30483701106,154395.0,86896.0,3828.0,13.313811967149377
63116.31493087912,154425.0,86919.0,3835.0,13.323905835204641
63116.32502474717,154445.0,86918.0,3865.0,13.333999703259906
63116.33511861523,154429.0,86928.0,3866.0,13.34409357131517
63116.34521248329,154409.0,86900.0,3858.0,13.35418743937771
63116.35530635135,154405.0,86915.0,3853.0,13.364281307432975
63116.3654002194,154454.0,86921.0,3869.0,13.37437517548824
63116.37549408746,154483.0,86915.0,3903.0,13.384469043543504
63116.38558795552,154471.0,86923.0,3839.0,13.394562911606045
63116.395681823575,154484.0,86932.0,3888.0,13.404656779661309
63116.40577569163,154465.0,86924.0,3868.0,13.414750647716573
63116.415869559685,154510.0,86921.0,3861.0,13.424844515771838
63116.42596342774,154472.0,86925.0,3830.0,13.434938383827102
63116.4360572958,154469.0,86934.0,3858.0,13.445032251889643
63116.44615116386,154472.0,86926.0,3866.0,13.455126119944907
63116.45624503191,154473.0,86944.0,3871.0,13.465219988000172
63116.46633889997,154479.0,86946.0,3901.0,13.475313856055436
63116.47643276803,154459.0,86895.0,3850.0,13.485407724117977
63116.48652663609,154486.0,86940.0,3878.0,13.495501592173241
63116.49662050414,154466.0,86948.0,3877.0,13.505595460228506
63116.5067143722,154529.0,86952.0,3892.0,13.51568932828377
63116.51680824026,154503.0,86940.0,3858.0,13.52578319634631
63116.526902108315,154493.0,86944.0,3896.0,13.535877064401575
63116.53699597637,154504.0,86951.0,3885.0,13.54597093245684
63116.547089844425,154512.0,86953.0,3885.0,13.556064800512104
63116.55718371248,154516.0,86946.0,3896.0,13.566158668567368
63116.56727758054,154476.0,86943.0,3862.0,13.576252536629909
63116.5773714486,154511.0,86942.0,3881.0,13.586346404685173
63116.587465316654,154497.0,86958.0,3868.0,13.596440272740438
63116.59755918471,154452.0,86912.0,3870.0,13.606534140795702
63116.60765305277,154440.0,86924.0,3876.0,13.616628008858243
63116.61774692083,154411.0,86911.0,3872.0,13.626721876913507
63116.62784078888,154376.0,86899.0,3853.0,13.636815744968771
63116.63793465694,154350.0,86896.0,3845.0,13.646909613024036
63116.648028525,154376.0,86935.0,3835.0,13.657003481086576
63116.658122393055,154344.0,86917.0,3854.0,13.66709734914184
63116.66821626111,154323.0,86883.0,3844.0,13.677191217197105
63116.678310129166,154366.0,86922.0,3860.0,13.68728508525237
63116.68840399723,154335.0,86873.0,3850.0,13.69737895331491
63116.69849786528,154334.0,86902.0,3852.0,13.707472821370175
63116.70859173334,154307.0,86861.0,3833.0,13.717566689425439
63116.718685601394,154330.0,86923.0,3833.0,13.727660557480704
63116.72877946945,154291.0,86907.0,3833.0,13.737754425535968
63116.73887333751,154322.0,86909.0,3863.0,13.747848293598508
63116.74896720557,154321.0,86887.0,3862.0,13.757942161653773
63116.75906107362,154254.0,86873.0,3838.0,13.768036029709037
63116.76915494168,154278.0,86895.0,3827.0,13.778129897764302
63116.77924880974,154266.0,86885.0,3819.0,13.788223765826842
63116.789342677796,154281.0,86875.0,3843.0,13.798317633882107
63116.79943654585,154221.0,86882.0,3808.0,13.808411501937371
63116.809530413906,154255.0,86890.0,3835.0,13.818505369992636
63116.81962428197,154248.0,86889.0,3822.0,13.828599238055176
63116.829718150024,154245.0,86871.0,3800.0,13.83869310611044
63116.83981201808,154272.0,86898.0,3844.0,13.848786974165705
63116.849905886134,154232.0,86878.0,3809.0,13.85888084222097
63116.8599997542,154254.0,86893.0,3809.0,13.86897471028351
63116.87009362225,154245.0,86914.0,3815.0,13.879068578338774
63116.88018749031,154266.0,86886.0,3810.0,13.889162446394039
63116.89028135836,154240.0,86875.0,3818.0,13.899256314449303
63116.90037522642,154247.0,86875.0,3816.0,13.909350182504568
63116.91046909448,154260.0,86906.0,3843.0,13.919444050567108
63116.920562962536,154230.0,86876.0,3788.0,13.929537918622373
63116.93065683059,154253.0,86914.0,3825.0,13.939631786677637
63116.940750698646,154242.0,86901.0,3813.0,13.949725654732902
63116.95084456671,154237.0,86886.0,3841.0,13.959819522795442
63116.960938434764,154240.0,86898.0,3786.0,13.969913390850706
63116.97103230282,154265.0,86900.0,3838.0,13.980007258905971
63116.981126170875,154257.0,86897.0,3807.0,13.990101126961235
63116.99122003894,154246.0,86876.0,3815.0,14.000194995023776
63117.00131390699,154274.0,86931.0,3838.0,14.01028886307904
63117.01140777505,154218.0,86863.0,3778.0,14.020382731134305
63117.0215016431,154254.0,86902.0,3810.0,14.03047659918957
63117.031595511166,154238.0,86888.0,3781.0,14.04057046725211
63117.04168937922,154248.0,86893.0,3824.0,14.050664335307374
63117.051783247276,154256.0,86893.0,3803.0,14.060758203362639
63117.06187711533,154279.0,86904.0,3810.0,14.070852071417903
63117.07197098339,154269.0,86901.0,3825.0,14.080945939473168
63117.08206485145,154251.0,86877.0,3800.0,14.091039807535708
63117.092158719504,154278.0,86891.0,3782.0,14.101133675590972
63117.10225258756,154278.0,86902.0,3811.0,14.111227543646237
63117.112346455615,154253.0,86878.0,3825.0,14.121321411701501
63117.12244032368,154272.0,86933.0,3811.0,14.131415279764042
63117.13253419173,154297.0,86888.0,3830.0,14.141509147819306
63117.14262805979,154251.0,86881.0,3773.0,14.15160301587457
63117.15272192784,154292.0,86873.0,3824.0,14.161696883929835
63117.162815795906,154313.0,86905.0,3825.0,14.171790751992376
63117.17290966396,154295.0,86897.0,3808.0,14.18188462004764
63117.183003532016,154295.0,86899.0,3822.0,14.191978488102905
63117.19309740007,154304.0,86906.0,3825.0,14.202072356158169
63117.20319126813,154310.0,86893.0,3811.0,14.212166224213433
63117.21328513619,154284.0,86880.0,3805.0,14.222260092275974
63117.223379004245,154333.0,86914.0,3819.0,14.232353960331238
63117.2334728723,154313.0,86914.0,3822.0,14.242447828386503
63117.243566740355,154300.0,86926.0,3808.0,14.252541696441767
63117.25366060842,154345.0,86939.0,3845.0,14.262635564504308
63117.26375447647,154310.0,86877.0,3829.0,14.272729432559572
63117.27384834453,154305.0,86897.0,3801.0,14.282823300614837
63117.28394221258,154310.0,86899.0,3825.0,14.292917168670101
63117.294036080646,154312.0,86909.0,3853.0,14.303011036732642
63117.3041299487,154304.0,86906.0,3812.0,14.313104904787906
63117.31422381676,154340.0,86923.0,3823.0,14.32319877284317
63117.32431768481,154369.0,86914.0,3849.0,14.333292640898435
63117.334411552874,154359.0,86907.0,3856.0,14.343386508960975
63117.34450542093,154385.0,86932.0,3854.0,14.35348037701624
63117.354599288985,154357.0,86935.0,3833.0,14.363574245071504
63117.36469315704,154337.0,86948.0,3839.0,14.373668113126769
63117.374787025095,154344.0,86929.0,3820.0,14.383761981182033
63117.38488089316,154395.0,86934.0,3863.0,14.393855849244574
63117.39497476121,154370.0,86927.0,3840.0,14.403949717299838
63117.40506862927,154345.0,86902.0,3822.0,14.414043585355103
63117.415162497324,154394.0,86927.0,3868.0,14.424137453410367
63117.425256365386,154353.0,86912.0,3828.0,14.434231321472907
63117.43535023344,154377.0,86933.0,3845.0,14.444325189528172
63117.4454441015,154400.0,86948.0,3850.0,14.454419057583436
63117.45553796955,154398.0,86944.0,3863.0,14.4645129256387
63117.465631837615,154398.0,86928.0,3825.0,14.474606793701241
63117.47572570567,154398.0,86942.0,3849.0,14.484700661756506
63117.485819573725,154411.0,86953.0,3880.0,14.49479452981177
63117.49591344178,154384.0,86920.0,3861.0,14.504888397867035
63117.50600730984,154401.0,86960.0,3863.0,14.514982265929575
63117.5161011779,154409.0,86950.0,3851.0,14.52507613398484
63117.52619504595,154401.0,86919.0,3844.0,14.535170002040104
63117.53628891401,154433.0,86925.0,3874.0,14.545263870095368
63117.546382782064,154436.0,86946.0,3873.0,14.555357738150633
63117.55647665013,154428.0,86946.0,3861.0,14.565451606213173
63117.56657051818,154401.0,86944.0,3849.0,14.575545474268438
63117.57666438624,154411.0,86948.0,3872.0,14.585639342323702
63117.58675825429,154432.0,86939.0,3854.0,14.595733210378967
63117.596852122355,154444.0,86955.0,3861.0,14.605827078441507
63117.60694599041,154439.0,86949.0,3847.0,14.615920946496772
63117.617039858465,154459.0,86967.0,3877.0,14.626014814552036
63117.62713372652,154432.0,86960.0,3868.0,14.6361086826073
63117.63722759458,154406.0,86949.0,3856.0,14.646202550669841
63117.64732146264,154375.0,86914.0,3854.0,14.656296418725105
63117.657415330694,154346.0,86929.0,3839.0,14.66639028678037
63117.66750919875,154340.0,86928.0,3835.0,14.676484154835634
63117.67760306681,154335.0,86937.0,3890.0,14.686578022898175
63117.68769693487,154293.0,86900.0,3866.0,14.69667189095344
63117.69779080292,154281.0,86901.0,3829.0,14.706765759008704
63117.70788467098,154298.0,86900.0,3842.0,14.716859627063968
63117.71797853903,154249.0,86922.0,3796.0,14.726953495119233
63117.728072407095,154271.0,86908.0,3822.0,14.737047363181773
63117.73816627515,154305.0,86949.0,3812.0,14.747141231237038
63117.748260143206,154246.0,86938.0,3828.0,14.757235099292302
63117.75835401126,154273.0,86921.0,3830.0,14.767328967347567
63117.76844787932,154270.0,86938.0,3828.0,14.777422835410107
63117.77854174738,154280.0,86922.0,3812.0,14.787516703465371
63117.788635615434,154236.0,86887.0,3797.0,14.797610571520636
63117.79872948349,154257.0,86932.0,3824.0,14.8077044395759
63117.80882335155,154263.0,86889.0,3839.0,14.81779830763844
63117.81891721961,154214.0,86884.0,3816.0,14.827892175693705
63117.82901108766,154236.0,86915.0,3838.0,14.83798604374897
63117.83910495572,154199.0,86875.0,3793.0,14.848079911804234
63117.84919882378,154214.0,86895.0,3806.0,14.858173779866775
63117.859292691835,154211.0,86906.0,3802.0,14.868267647922039
63117.86938655989,154223.0,86921.0,3795.0,14.878361515977303
63117.879480427946,154193.0,86893.0,3773.0,14.888455384032568
63117.889574296,154216.0,86911.0,3803.0,14.898549252087832
63117.899668164064,154244.0,86917.0,3813.0,14.908643120150373
63117.90976203212,154184.0,86881.0,3785.0,14.918736988205637
63117.919855900174,154210.0,86869.0,3798.0,14.928830856260902
63117.92994976823,154190.0,86899.0,3807.0,14.938924724316166
63117.94004363629,154167.0,86891.0,3781.0,14.949018592378707
63117.95013750435,154178.0,86924.0,3818.0,14.959112460433971
63117.9602313724,154209.0,86924.0,3828.0,14.969206328489236
63117.97032524046,154208.0,86904.0,3803.0,14.9793001965445
63117.98041910852,154183.0,86881.0,3814.0,14.98939406460704
63117.990512976576,154232.0,86929.0,3799.0,14.999487932662305
63118.00060684463,154178.0,86895.0,3812.0,15.00958180071757
63118.010700712686,154207.0,86904.0,3784.0,15.019675668772834
63118.02079458075,154174.0,86912.0,3782.0,15.029769536835374
63118.030888448804,154211.0,86911.0,3816.0,15.039863404890639
63118.04098231686,154210.0,86904.0,3773.0,15.049957272945903
63118.051076184915,154205.0,86893.0,3786.0,15.060051141001168
63118.06117005297,154202.0,86926.0,3821.0,15.070145009056432
63118.07126392103,154140.0,86890.0,3768.0,15.080238877118973
63118.08135778909,154188.0,86924.0,3795.0,15.090332745174237
63118.09145165714,154216.0,86909.0,3794.0,15.100426613229502
63118.1015455252,154247.0,86906.0,3820.0,15.110520481284766
63118.11163939326,154222.0,86913.0,3784.0,15.120614349347306
63118.121733261316,154246.0,86922.0,3818.0,15.13070821740257
63118.13182712937,154228.0,86909.0,3796.0,15.140802085457835
63118.14192099743,154239.0,86900.0,3805.0,15.1508959535131
63118.15201486549,154251.0,86937.0,3819.0,15.16098982157564
63118.162108733544,154220.0,86921.0,3780.0,15.171083689630905
63118.1722026016,154241.0,86915.0,3798.0,15.18117755768617
63118.182296469655,154253.0,86907.0,3785.0,15.191271425741434
63118.19239033771,154270.0,86933.0,3830.0,15.201365293796698
63118.20248420577,154228.0,86897.0,3788.0,15.211459161859239
63118.21257807383,154247.0,86927.0,3801.0,15.221553029914503
63118.22267194188,154276.0,86941.0,3803.0,15.231646897969767
63118.23276580994,154233.0,86915.0,3799.0,15.241740766025032
63118.242859678,154281.0,86949.0,3824.0,15.251834634087572
63118.252953546056,154267.0,86929.0,3789.0,15.261928502142837
63118.26304741411,154254.0,86908.0,3817.0,15.272022370198101
63118.27314128217,154257.0,86902.0,3807.0,15.282116238253366
63118.28323515023,154298.0,86932.0,3844.0,15.292210106315906
63118.293329018285,154239.0,86934.0,3799.0,15.30230397437117
63118.30342288634,154295.0,86906.0,3812.0,15.312397842426435
63118.313516754395,154268.0,86969.0,3820.0,15.3224917104817
63118.32361062246,154255.0,86923.0,3798.0,15.33258557854424
63118.33370449051,154311.0,86930.0,3830.0,15.342679446599504
63118.34379835857,154301.0,86978.0,3810.0,15.352773314654769
63118.35389222662,154305.0,86915.0,3835.0,15.362867182710033
63118.36398609468,154314.0,86941.0,3825.0,15.372961050765298
63118.37407996274,154334.0,86977.0,3830.0,15.383054918827838
63118.3841738308,154317.0,86934.0,3822.0,15.393148786883103
63118.39426769885,154296.0,86931.0,3854.0,15.403242654938367
63118.40436156691,154325.0,86943.0,3809.0,15.413336522993632
63118.41445543497,154340.0,86933.0,3831.0,15.423430391056172
63118.424549303025,154326.0,86948.0,3818.0,15.433524259111437
63118.43464317108,154315.0,86933.0,3799.0,15.443618127166701
63118.444737039135,154298.0,86942.0,3822.0,15.453711995221965
63118.4548309072,154347.0,86964.0,3847.0,15.463805863284506
63118.46492477525,154347.0,86953.0,3842.0,15.47389973133977
63118.47501864331,154344.0,86936.0,3871.0,15.483993599395035
63118.485112511364,154318.0,86926.0,3834.0,15.4940874674503
63118.495206379426,154346.0,86921.0,3817.0,15.50418133551284
63118.50530024748,154350.0,86949.0,3834.0,15.514275203568104
63118.51539411554,154376.0,86975.0,3855.0,15.524369071623369
63118.52548798359,154345.0,86945.0,3816.0,15.534462939678633
63118.53558185165,154385.0,86967.0,3840.0,15.544556807733898
63118.54567571971,154370.0,86959.0,3837.0,15.554650675796438
63118.555769587765,154369.0,86959.0,3833.0,15.564744543851702
63118.56586345582,154374.0,86965.0,3860.0,15.574838411906967
63118.575957323876,154361.0,86945.0,3849.0,15.584932279962231
63118.58605119194,154384.0,86963.0,3847.0,15.595026148024772
63118.59614505999,154362.0,86961.0,3832.0,15.605120016080036
63118.60623892805,154398.0,86959.0,3859.0,15.6152138841353
63118.616332796104,154384.0,86921.0,3844.0,15.625307752190565
63118.62642666417,154392.0,86967.0,3852.0,15.635401620253106
63118.63652053222,154409.0,86970.0,3850.0,15.64549548830837
63118.64661440028,154411.0,86968.0,3842.0,15.655589356363635
63118.65670826833,154419.0,86995.0,3883.0,15.665683224418899
63118.666802136395,154424.0,86968.0,3849.0,15.67577709248144
63118.67689600445,154378.0,86942.0,3852.0,15.685870960536704
63118.686989872505,154403.0,86964.0,3845.0,15.695964828591968
63118.69708374056,154407.0,86971.0,3873.0,15.706058696647233
63118.707177608616,154383.0,86980.0,3848.0,15.716152564702497
63118.71727147668,154372.0,86964.0,3833.0,15.726246432765038
63118.727365344734,154320.0,86975.0,3851.0,15.736340300820302
63118.73745921279,154299.0,86949.0,3835.0,15.746434168875567
63118.747553080844,154323.0,86930.0,3842.0,15.756528036930831
63118.75764694891,154283.0,86929.0,3802.0,15.766621904993372
63118.76774081696,154225.0,86935.0,3814.0,15.776715773048636
63118.77783468502,154245.0,86923.0,3815.0,15.7868096411039
63118.78792855307,154264.0,86932.0,3815.0,15.796903509159165
63118.798022421135,154241.0,86916.0,3836.0,15.806997377221705
63118.80811628919,154221.0,86917.0,3802.0,15.81709124527697
63118.818210157246,154262.0,86946.0,3802.0,15.827185113332234
63118.8283040253,154241.0,86938.0,3842.0,15.837278981387499
63118.838397893356,154226.0,86914.0,3813.0,15.847372849442763
63118.84849176142,154242.0,86937.0,3813.0,15.857466717505304
63118.858585629474,154241.0,86932.0,3833.0,15.867560585560568
63118.86867949753,154207.0,86934.0,3797.0,15.877654453615833
63118.878773365584,154211.0,86899.0,3816.0,15.887748321671097
63118.88886723365,154233.0,86942.0,3821.0,15.897842189733637
63118.8989611017,154212.0,86943.0,3826.0,15.907936057788902
63118.90905496976,154173.0,86897.0,3804.0,15.918029925844166
63118.91914883781,154198.0,86929.0,3795.0,15.928123793899431
63118.929242705875,154204.0,86898.0,3800.0,15.938217661961971
63118.93933657393,154171.0,86926.0,3773.0,15.948311530017236
63118.949430441986,154171.0,86895.0,3779.0,15.9584053980725
63118.95952431004,154220.0,86923.0,3799.0,15.968499266127765
63118.969618178104,154182.0,86965.0,3782.0,15.978593134190305
63118.97971204616,154206.0,86927.0,3808.0,15.98868700224557
63118.989805914214,154193.0,86926.0,3801.0,15.998780870300834
63118.99989978227,154226.0,86920.0,3793.0,16.0088747383561
63119.009993650325,154213.0,86930.0,3788.0,16.018968606411363
63119.02008751839,154193.0,86922.0,3806.0,16.029062474473903
63119.03018138644,154187.0,86909.0,3776.0,16.039156342529168
63119.0402752545,154203.0,86924.0,3803.0,16.049250210584432
63119.05036912255,154220.0,86929.0,3813.0,16.059344078639697
63119.060462990616,154196.0,86927.0,3774.0,16.069437946702237
63119.07055685867,154188.0,86908.0,3778.0,16.0795318147575
63119.080650726726,154205.0,86926.0,3792.0,16.089625682812766
63119.09074459478,154182.0,86922.0,3809.0,16.09971955086803
63119.100838462844,154206.0,86909.0,3782.0,16.10981341893057
63119.1109323309,154209.0,86924.0,3776.0,16.119907286985836
63119.121026198954,154221.0,86928.0,3789.0,16.1300011550411
63119.13112006701,154213.0,86926.0,3778.0,16.140095023096364
63119.14121393507,154240.0,86933.0,3796.0,16.150188891158905
63119.15130780313,154199.0,86940.0,3800.0,16.16028275921417
63119.16140167118,154214.0,86924.0,3802.0,16.170376627269434
63119.17149553924,154192.0,86941.0,3781.0,16.1804704953247
63119.18158940729,154204.0,86923.0,3774.0,16.190564363379963
63119.191683275356,154241.0,86910.0,3801.0,16.200658231442503
63119.20177714341,154248.0,86941.0,3796.0,16.210752099497768
63119.21187101147,154249.0,86952.0,3813.0,16.220845967553032
63119.22196487952,154266.0,86959.0,3828.0,16.230939835608297
63119.232058747584,154245.0,86914.0,3788.0,16.241033703670837
63119.24215261564,154252.0,86936.0,3812.0,16.2511275717261
63119.252246483695,154263.0,86929.0,3835.0,16.261221439781366
63119.26234035175,154264.0,86964.0,3832.0,16.27131530783663
63119.27243421981,154231.0,86946.0,3789.0,16.28140917589917
63119.28252808787,154254.0,86928.0,3807.0,16.291503043954435
63119.29262195592,154251.0,86935.0,3793.0,16.3015969120097
63119.30271582398,154231.0,86941.0,3797.0,16.311690780064964
63119.31280969204,154252.0,86960.0,3811.0,16.321784648127505
63119.322903560096,154262.0,86949.0,3812.0,16.33187851618277
63119.33299742815,154302.0,86986.0,3828.0,16.341972384238034
63119.34309129621,154305.0,86954.0,3840.0,16.352066252293298
63119.35318516426,154249.0,86927.0,3826.0,16.362160120348562
63119.363279032324,154278.0,86961.0,3816.0,16.372253988411103
63119.37337290038,154282.0,86930.0,3806.0,16.382347856466367
63119.383466768435,154324.0,86950.0,3834.0,16.392441724521632
63119.39356063649,154267.0,86964.0,3818.0,16.402535592576896
63119.40365450455,154286.0,86952.0,3827.0,16.412629460639437
63119.41374837261,154275.0,86964.0,3815.0,16.4227233286947
63119.42384224066,154279.0,86934.0,3806.0,16.432817196749966
63119.43393610872,154278.0,86977.0,3824.0,16.44291106480523
63119.44402997678,154278.0,86961.0,3816.0,16.45300493286777
63119.45412384484,154323.0,86960.0,3814.0,16.463098800923035
63119.46421771289,154293.0,86956.0,3801.0,16.4731926689783
63119.47431158095,154322.0,86986.0,3842.0,16.483286537033564
63119.48440544901,154299.0,86958.0,3797.0,16.493380405096104
63119.494499317065,154326.0,86939.0,3827.0,16.50347427315137
63119.50459318512,154357.0,86972.0,3846.0,16.513568141206633
63119.514687053175,154309.0,86957.0,3827.0,16.523662009261898
63119.52478092123,154315.0,86957.0,3841.0,16.533755877317162
63119.53487478929,154352.0,86964.0,3826.0,16.543849745379703
63119.54496865735,154345.0,86955.0,3906.0,16.553943613434967
63119.5550625254,154340.0,86963.0,3830.0,16.56403748149023
63119.56515639346,154340.0,86979.0,3821.0,16.574131349545496
63119.57525026152,154356.0,86968.0,3833.0,16.584225217608036
63119.58534412958,154346.0,86941.0,3837.0,16.5943190856633
63119.59543799763,154382.0,86990.0,3823.0,16.604412953718565
63119.60553186569,154334.0,86986.0,3832.0,16.61450682177383
63119.61562573375,154382.0,86968.0,3842.0,16.62460068983637
63119.625719601805,154385.0,86975.0,3856.0,16.634694557891635
63119.63581346986,154395.0,86967.0,3846.0,16.6447884259469
63119.645907337916,154409.0,86955.0,3855.0,16.654882294002164
63119.65600120598,154395.0,86981.0,3838.0,16.664976162064704
63119.66609507403,154389.0,86996.0,3851.0,16.67507003011997
63119.67618894209,154385.0,86981.0,3830.0,16.685163898175233
63119.686282810144,154405.0,86974.0,3860.0,16.695257766230498
63119.6963766782,154409.0,86983.0,3851.0,16.705351634285762
63119.70647054626,154389.0,86952.0,3857.0,16.715445502348302
63119.71656441432,154431.0,86972.0,3891.0,16.725539370403567
63119.72665828237,154403.0,86968.0,3865.0,16.73563323845883
63119.73675215043,154416.0,86990.0,3849.0,16.745727106514096
63119.74684601849,154376.0,86990.0,3841.0,16.755820974576636
63119.756939886545,154430.0,87003.0,3879.0,16.7659148426319
63119.7670337546,154434.0,87017.0,3871.0,16.776008710687165
63119.777127622656,154380.0,86987.0,3851.0,16.78610257874243
63119.78722149072,154316.0,86978.0,3828.0,16.79619644680497
63119.79731535877,154317.0,86962.0,3835.0,16.806290314860235
63119.80740922683,154281.0,86972.0,3845.0,16.8163841829155
63119.817503094884,154270.0,86941.0,3814.0,16.826478050970763
63119.82759696294,154291.0,86955.0,3814.0,16.836571919026028
63119.837690831,154263.0,86949.0,3827.0,16.84666578708857
63119.84778469906,154296.0,86980.0,3857.0,16.856759655143833
63119.85787856711,154260.0,86958.0,3827.0,16.866853523199097
63119.86797243517,154267.0,86937.0,3808.0,16.87694739125436
63119.87806630323,154235.0,86982.0,3828.0,16.887041259316902
63119.888160171286,154276.0,86976.0,3844.0,16.897135127372167
63119.89825403934,154271.0,86972.0,3818.0,16.90722899542743
63119.908347907396,154303.0,86983.0,3807.0,16.917322863482696
63119.91844177546,154273.0,86978.0,3816.0,16.927416731545236
63119.928535643514,154276.0,86969.0,3820.0,16.9375105996005
63119.93862951157,154265.0,86958.0,3824.0,16.947604467655765
63119.948723379624,154238.0,86924.0,3808.0,16.95769833571103
63119.95881724769,154229.0,86962.0,3798.0,16.96779220377357
63119.96891111574,154183.0,86931.0,3793.0,16.977886071828834
63119.9790049838,154227.0,86955.0,3799.0,16.9879799398841
63119.98909885185,154209.0,86933.0,3826.0,16.998073807939363
63119.99919271991,154257.0,86968.0,3823.0,17.008167675994628
63120.00928658797,154251.0,86961.0,3832.0,17.018261544057168
63120.019380456026,154236.0,86956.0,3821.0,17.028355412112433
63120.02947432408,154224.0,86937.0,3810.0,17.038449280167697
63120.039568192136,154256.0,86980.0,3825.0,17.04854314822296
63120.0496620602,154229.0,86941.0,3797.0,17.058637016285502
63120.059755928254,154255.0,86966.0,3840.0,17.068730884340766
63120.06984979631,154236.0,86980.0,3814.0,17.07882475239603
63120.079943664365,154246.0,86941.0,3812.0,17.088918620451295
63120.09003753243,154247.0,86984.0,3828.0,17.099012488513836
63120.10013140048,154203.0,86951.0,3820.0,17.1091063565691
63120.11022526854,154231.0,86968.0,3804.0,17.119200224624365
63120.12031913659,154211.0,86939.0,3812.0,17.12929409267963
63120.130413004656,154262.0,86964.0,3815.0,17.13938796074217
63120.14050687271,154214.0,86955.0,3789.0,17.149481828797434
63120.150600740766,154239.0,86957.0,3805.0,17.1595756968527
63120.16069460882,154246.0,86960.0,3821.0,17.169669564907963
63120.17078847688,154249.0,86933.0,3825.0,17.179763432963227
63120.18088234494,154223.0,86969.0,3811.0,17.189857301025768
63120.190976212994,154254.0,86957.0,3818.0,17.199951169081032
63120.20107008105,154259.0,86955.0,3803.0,17.210045037136297
63120.211163949105,154246.0,86957.0,3812.0,17.22013890519156
63120.22125781717,154263.0,86976.0,3825.0,17.2302327732541
63120.23135168522,154255.0,86964.0,3815.0,17.240326641309366
63120.24144555328,154250.0,86956.0,3814.0,17.25042050936463
63120.25153942133,154240.0,87000.0,3823.0,17.260514377419895
63120.261633289396,154282.0,86955.0,3821.0,17.270608245482435
63120.27172715745,154286.0,86968.0,3813.0,17.2807021135377
63120.281821025506,154289.0,86966.0,3815.0,17.290795981592964
63120.29191489356,154275.0,86941.0,3806.0,17.30088984964823
63120.302008761624,154271.0,86946.0,3806.0,17.31098371771077
63120.31210262968,154288.0,86963.0,3828.0,17.321077585766034
63120.322196497735,154282.0,86987.0,3807.0,17.331171453821298
63120.33229036579,154332.0,86975.0,3843.0,17.341265321876563
63120.342384233845,154326.0,86974.0,3814.0,17.351359189931827
63120.35247810191,154307.0,86989.0,3858.0,17.361453057994368
63120.36257196996,154279.0,86987.0,3834.0,17.371546926049632
63120.37266583802,154297.0,86951.0,3820.0,17.381640794104896
63120.38275970607,154314.0,86953.0,3836.0,17.39173466216016
63120.392853574136,154322.0,86972.0,3828.0,17.4018285302227
63120.40294744219,154300.0,86965.0,3863.0,17.411922398277966
63120.41304131025,154356.0,87001.0,3827.0,17.42201626633323
63120.4231351783,154322.0,86964.0,3827.0,17.432110134388495
63120.433229046364,154332.0,86972.0,3839.0,17.442204002451035
63120.44332291442,154328.0,86963.0,3843.0,17.4522978705063
63120.453416782475,154357.0,86998.0,3856.0,17.462391738561564
63120.46351065053,154323.0,86967.0,3829.0,17.47248560661683
63120.47360451859,154335.0,86984.0,3844.0,17.48257947467937
63120.48369838665,154398.0,86988.0,3853.0,17.492673342734633
63120.4937922547,154346.0,86963.0,3835.0,17.502767210789898
63120.50388612276,154377.0,86975.0,3868.0,17.512861078845162
63120.513979990814,154360.0,86984.0,3847.0,17.522954946900427
63120.52407385888,154358.0,86968.0,3843.0,17.533048814962967
63120.53416772693,154376.0,86997.0,3867.0,17.54314268301823
63120.54426159499,154405.0,87008.0,3869.0,17.553236551073496
63120.55435546304,154385.0,86994.0,3824.0,17.56333041912876
63120.564449331105,154362.0,86989.0,3873.0,17.5734242871913
63120.57454319916,154387.0,87017.0,3874.0,17.583518155246566
63120.584637067215,154397.0,86992.0,3846.0,17.59361202330183
63120.59473093527,154406.0,87000.0,3871.0,17.603705891357095
63120.60482480333,154383.0,86993.0,3863.0,17.613799759419635
63120.61491867139,154366.0,86994.0,3852.0,17.6238936274749
63120.62501253944,154361.0,86998.0,3841.0,17.633987495530164
63120.6351064075,154411.0,86991.0,3871.0,17.64408136358543
63120.645200275554,154410.0,87016.0,3850.0,17.654175231640693
63120.65529414362,154381.0,86969.0,3865.0,17.664269099703233
63120.66538801167,154437.0,87034.0,3879.0,17.674362967758498
63120.67548187973,154428.0,87001.0,3877.0,17.684456835813762
63120.68557574778,154427.0,87012.0,3860.0,17.694550703869027
63120.695669615845,154418.0,87022.0,3859.0,17.704644571931567
63120.7057634839,154432.0,87010.0,3856.0,17.71473843998683
63120.715857351955,154426.0,86987.0,3846.0,17.724832308042096
63120.72595122001,154448.0,87013.0,3864.0,17.73492617609736
63120.73604508807,154442.0,86994.0,3868.0,17.7450200441599
63120.74613895613,154455.0,87036.0,3890.0,17.755113912215165
63120.756232824184,154400.0,87015.0,3827.0,17.76520778027043
63120.76632669224,154447.0,87018.0,3874.0,17.775301648325694
63120.7764205603,154465.0,87009.0,3889.0,17.785395516388235
63120.78651442836,154415.0,86995.0,3870.0,17.7954893844435
63120.79660829641,154438.0,86996.0,3873.0,17.805583252498764
63120.80670216447,154402.0,87006.0,3857.0,17.815677120554028
63120.81679603252,154354.0,86982.0,3851.0,17.825770988609293
63120.826889900585,154372.0,86967.0,3869.0,17.835864856671833
63120.83698376864,154318.0,86989.0,3843.0,17.845958724727097
63120.847077636696,154321.0,86998.0,3853.0,17.856052592782362
63120.85717150475,154330.0,87009.0,3843.0,17.866146460837626
63120.86726537281,154307.0,87001.0,3883.0,17.876240328900167
63120.87735924087,154269.0,86943.0,3825.0,17.88633419695543
63120.887453108924,154297.0,86998.0,3846.0,17.896428065010696
63120.89754697698,154284.0,86984.0,3840.0,17.90652193306596
63120.90764084504,154256.0,86952.0,3820.0,17.9166158011285
63120.9177347131,154306.0,86976.0,3817.0,17.926709669183765
63120.92782858115,154305.0,86977.0,3844.0,17.93680353723903
63120.93792244921,154304.0,86955.0,3868.0,17.946897405294294
63120.94801631727,154316.0,86989.0,3846.0,17.956991273356834
63120.958110185325,154324.0,87001.0,3860.0,17.9670851414121
63120.96820405338,154306.0,86981.0,3838.0,17.977179009467363
63120.978297921436,154288.0,86969.0,3826.0,17.987272877522628
63120.98839178949,154315.0,87002.0,3825.0,17.997366745577892
63120.998485657554,154274.0,86960.0,3815.0,18.007460613640433
63121.00857952561,154282.0,86987.0,3841.0,18.017554481695697
63121.018673393664,154258.0,86930.0,3853.0,18.02764834975096
63121.02876726172,154263.0,86965.0,3838.0,18.037742217806226
63121.03886112978,154277.0,86939.0,3825.0,18.047836085868767
63121.04895499784,154290.0,86979.0,3841.0,18.05792995392403
63121.05904886589,154315.0,87007.0,3857.0,18.068023821979295
63121.06914273395,154281.0,86974.0,3833.0,18.07811769003456
63121.07923660201,154273.0,86991.0,3839.0,18.0882115580971
63121.089330470066,154292.0,86987.0,3842.0,18.098305426152365
63121.09942433812,154292.0,86959.0,3837.0,18.10839929420763
63121.109518206176,154302.0,86979.0,3844.0,18.118493162262894
63121.11961207424,154311.0,86997.0,3862.0,18.128587030325434
63121.129705942294,154286.0,86979.0,3836.0,18.1386808983807
63121.13979981035,154263.0,86982.0,3823.0,18.148774766435963
63121.149893678405,154265.0,86960.0,3844.0,18.158868634491228
63121.15998754646,154273.0,86967.0,3840.0,18.168962502546492
63121.17008141452,154280.0,86973.0,3834.0,18.179056370609032
63121.18017528258,154284.0,86969.0,3843.0,18.189150238664297
63121.19026915063,154290.0,87026.0,3852.0,18.19924410671956
63121.20036301869,154278.0,86994.0,3822.0,18.209337974774826
63121.21045688675,154333.0,86990.0,3855.0,18.219431842837366
63121.220550754806,154309.0,87004.0,3845.0,18.22952571089263
63121.23064462286,154338.0,87004.0,3834.0,18.239619578947895
63121.24073849092,154343.0,87014.0,3857.0,18.24971344700316
63121.25083235898,154286.0,86973.0,3828.0,18.2598073150657
63121.260926227034,154330.0,86995.0,3850.0,18.269901183120965
63121.27102009509,154308.0,86986.0,3844.0,18.27999505117623
63121.281113963145,154358.0,86985.0,3868.0,18.290088919231493
63121.29120783121,154307.0,86963.0,3840.0,18.300182787294034
63121.30130169926,154336.0,86994.0,3851.0,18.3102766553493
63121.31139556732,154304.0,87005.0,3880.0,18.320370523404563
63121.32148943537,154306.0,86980.0,3831.0,18.330464391459827
63121.33158330343,154354.0,87009.0,3881.0,18.340558259515092
63121.34167717149,154352.0,86994.0,3857.0,18.350652127577632
63121.351771039546,154367.0,86994.0,3828.0,18.360745995632897
63121.3618649076,154376.0,87028.0,3831.0,18.37083986368816
63121.37195877566,154374.0,87021.0,3871.0,18.380933731743426
63121.38205264372,154357.0,86998.0,3851.0,18.391027599805966
63121.392146511775,154349.0,86984.0,3847.0,18.40112146786123
63121.40224037983,154359.0,87021.0,3866.0,18.411215335916495
63121.412334247885,154362.0,87010.0,3840.0,18.42130920397176
63121.42242811595,154365.0,87008.0,3831.0,18.4314030720343
63121.432521984,154396.0,87019.0,3846.0,18.441496940089564
63121.44261585206,154372.0,86981.0,3856.0,18.45159080814483
63121.45270972011,154366.0,87014.0,3859.0,18.461684676200093
63121.46280358817,154382.0,87007.0,3864.0,18.471778544255358
63121.47289745623,154390.0,87027.0,3869.0,18.481872412317898
63121.48299132429,154343.0,86988.0,3841.0,18.491966280373163
63121.49308519234,154403.0,87041.0,3864.0,18.502060148428427
63121.5031790604,154399.0,87017.0,3865.0,18.51215401648369
63121.51327292846,154389.0,86988.0,3918.0,18.522247884546232
63121.523366796515,154382.0,87010.0,3862.0,18.532341752601496
63121.53346066457,154394.0,86985.0,3874.0,18.54243562065676
63121.543554532625,154405.0,87014.0,3867.0,18.552529488712025
63121.55364840069,154419.0,87015.0,3883.0,18.562623356774566
63121.56374226874,154449.0,87038.0,3879.0,18.57271722482983
63121.5738361368,154429.0,86985.0,3878.0,18.582811092885095
63121.583930004854,154411.0,87013.0,3881.0,18.59290496094036
63121.594023872916,154428.0,87026.0,3869.0,18.6029988290029
63121.60411774097,154444.0,86998.0,3893.0,18.613092697058164
63121.61421160903,154429.0,87011.0,3878.0,18.62318656511343
63121.62430547708,154443.0,87027.0,3880.0,18.633280433168693
63121.63439934514,154450.0,87055.0,3909.0,18.643374301223957
63121.6444932132,154437.0,87047.0,3880.0,18.653468169286498
63121.654587081255,154482.0,87044.0,3911.0,18.663562037341762
63121.66468094931,154463.0,87027.0,3890.0,18.673655905397027
63121.674774817366,154455.0,87026.0,3869.0,18.68374977345229
63121.68486868543,154488.0,87038.0,3891.0,18.69384364151483
63121.69496255348,154477.0,87059.0,3896.0,18.703937509570096
63121.70505642154,154472.0,87042.0,3858.0,18.71403137762536
63121.715150289594,154446.0,87029.0,3900.0,18.724125245680625
63121.72524415766,154500.0,87059.0,3898.0,18.734219113743166
63121.73533802571,154477.0,87037.0,3867.0,18.74431298179843
63121.74543189377,154453.0,87035.0,3898.0,18.754406849853694
63121.75552576182,154413.0,87028.0,3894.0,18.76450071790896
63121.765619629885,154371.0,86995.0,3871.0,18.7745945859715
63121.77571349794,154372.0,87005.0,3858.0,18.784688454026764
63121.785807365995,154378.0,87009.0,3886.0,18.79478232208203
63121.79590123405,154358.0,87033.0,3876.0,18.804876190137293
63121.805995102106,154325.0,86990.0,3869.0,18.814970058192557
63121.81608897017,154361.0,87028.0,3869.0,18.825063926255098
63121.826182838224,154270.0,86994.0,3828.0,18.835157794310362
63121.83627670628,154323.0,86998.0,3861.0,18.845251662365627
63121.846370574334,154336.0,87022.0,3862.0,18.85534553042089
63121.8564644424,154320.0,86983.0,3853.0,18.86543939848343
63121.86655831045,154316.0,86991.0,3847.0,18.875533266538696
63121.87665217851,154326.0,87008.0,3865.0,18.88562713459396
63121.88674604656,154328.0,87020.0,3887.0,18.895721002649225
63121.896839914625,154307.0,86990.0,3856.0,18.905814870711765
63121.90693378268,154343.0,87021.0,3895.0,18.91590873876703
63121.917027650736,154333.0,87013.0,3868.0,18.926002606822294
63121.92712151879,154340.0,86985.0,3869.0,18.93609647487756
63121.93721538685,154321.0,86999.0,3848.0,18.9461903429401
63121.94730925491,154321.0,87009.0,3869.0,18.956284210995364
63121.957403122964,154316.0,86987.0,3831.0,18.966378079050628
63121.96749699102,154347.0,86982.0,3884.0,18.976471947105892
63121.977590859075,154343.0,87004.0,3882.0,18.986565815161157
63121.98768472714,154315.0,86995.0,3846.0,18.996659683223697
63121.99777859519,154349.0,87020.0,3864.0,19.006753551278962
63122.00787246325,154359.0,87025.0,3852.0,19.016847419334226
63122.0179663313,154358.0,87016.0,3874.0,19.02694128738949
63122.028060199365,154326.0,87007.0,3846.0,19.03703515545203
63122.03815406742,154331.0,87011.0,3866.0,19.047129023507296
63122.048247935476,154331.0,86981.0,3859.0,19.05722289156256
63122.05834180353,154306.0,86997.0,3833.0,19.067316759617825
63122.068435671594,154347.0,87039.0,3874.0,19.077410627680365
63122.07852953965,154338.0,87005.0,3854.0,19.08750449573563
63122.088623407704,154291.0,86984.0,3889.0,19.097598363790894
63122.09871727576,154328.0,86990.0,3851.0,19.10769223184616
63122.10881114382,154311.0,87038.0,3880.0,19.1177860999087
63122.11890501188,154335.0,87007.0,3862.0,19.127879967963963
63122.12899887993,154331.0,87008.0,3828.0,19.137973836019228
63122.13909274799,154328.0,86999.0,3869.0,19.148067704074492
63122.14918661604,154341.0,86996.0,3848.0,19.158161572129757
63122.159280484106,154353.0,87016.0,3861.0,19.168255440192297
63122.16937435216,154366.0,87019.0,3882.0,19.17834930824756
63122.179468220216,154378.0,87019.0,3867.0,19.188443176302826
63122.18956208827,154332.0,87013.0,3857.0,19.19853704435809
63122.199655956334,154377.0,87011.0,3870.0,19.20863091242063
63122.20974982439,154372.0,87039.0,3853.0,19.218724780475895
63122.219843692445,154372.0,87010.0,3880.0,19.22881864853116
63122.2299375605,154383.0,86998.0,3866.0,19.238912516586424
63122.24003142856,154362.0,87015.0,3862.0,19.249006384648965
63122.25012529662,154373.0,87051.0,3893.0,19.25910025270423
63122.26021916467,154391.0,87003.0,3866.0,19.269194120759494
63122.27031303273,154381.0,87016.0,3870.0,19.279287988814758
63122.28040690078,154403.0,87021.0,3858.0,19.289381856870023
63122.290500768846,154387.0,87012.0,3895.0,19.299475724932563
63122.3005946369,154372.0,87016.0,3861.0,19.309569592987827
63122.31068850496,154415.0,87018.0,3893.0,19.319663461043092
63122.32078237301,154393.0,87020.0,3870.0,19.329757329098356
63122.330876241074,154394.0,87032.0,3871.0,19.339851197160897
63122.34097010913,154380.0,87020.0,3867.0,19.34994506521616
63122.351063977185,154395.0,87035.0,3882.0,19.360038933271426
63122.36115784524,154425.0,87032.0,3890.0,19.37013280132669
63122.3712517133,154397.0,87008.0,3885.0,19.38022666938923
63122.38134558136,154412.0,87018.0,3867.0,19.390320537444495
63122.39143944941,154426.0,87011.0,3875.0,19.40041440549976
63122.40153331747,154444.0,87067.0,3911.0,19.410508273555024
63122.41162718553,154429.0,87035.0,3886.0,19.420602141617564
63122.421721053586,154418.0,87036.0,3877.0,19.43069600967283
63122.43181492164,154397.0,87030.0,3860.0,19.440789877728093
63122.4419087897,154448.0,87017.0,3890.0,19.450883745783358
63122.45200265775,154432.0,87029.0,3893.0,19.460977613838622
63122.462096525815,154442.0,87056.0,3897.0,19.471071481901163
63122.47219039387,154454.0,87051.0,3896.0,19.481165349956427
63122.482284261925,154432.0,87050.0,3900.0,19.49125921801169
63122.49237812998,154454.0,87062.0,3920.0,19.501353086066956
63122.50247199804,154470.0,87041.0,3903.0,19.511446954129497
63122.5125658661,154421.0,87007.0,3906.0,19.52154082218476
63122.52265973415,154436.0,87032.0,3908.0,19.531634690240026
63122.53275360221,154479.0,87044.0,3890.0,19.54172855829529
63122.54284747027,154495.0,87066.0,3872.0,19.55182242635783
63122.55294133833,154449.0,87050.0,3889.0,19.561916294413095
63122.56303520638,154448.0,87026.0,3871.0,19.57201016246836
63122.57312907444,154495.0,87051.0,3894.0,19.582104030523624
63122.5832229425,154525.0,87064.0,3923.0,19.592197898586164
63122.593316810555,154503.0,87044.0,3929.0,19.60229176664143
63122.60341067861,154517.0,87071.0,3913.0,19.612385634696693
63122.613504546665,154490.0,87050.0,3901.0,19.622479502751958
63122.62359841472,154460.0,86998.0,3875.0,19.632573370807222
63122.63369228278,154489.0,87051.0,3923.0,19.642667238869763
63122.64378615084,154438.0,87017.0,3904.0,19.652761106925027
63122.653880018894,154426.0,87045.0,3892.0,19.66285497498029
63122.66397388695,154396.0,87034.0,3891.0,19.672948843035556
63122.67406775501,154413.0,87007.0,3912.0,19.683042711098096
63122.68416162307,154351.0,87021.0,3871.0,19.69313657915336
63122.69425549112,154360.0,87023.0,3875.0,19.703230447208625
63122.70434935918,154387.0,87028.0,3902.0,19.71332431526389
63122.71444322724,154345.0,87001.0,3881.0,19.72341818332643
63122.724537095295,154367.0,87021.0,3881.0,19.733512051381695
63122.73463096335,154363.0,87017.0,3872.0,19.74360591943696
63122.744724831406,154339.0,87021.0,3889.0,19.753699787492224
63122.75481869947,154284.0,87000.0,3860.0,19.763793655554764
63122.76491256752,154328.0,87010.0,3852.0,19.77388752361003
63122.77500643558,154353.0,87023.0,3866.0,19.783981391665293
63122.785100303634,154330.0,86988.0,3865.0,19.794075259720557
63122.79519417169,154385.0,87043.0,3899.0,19.804169127775822
63122.80528803975,154334.0,86991.0,3861.0,19.814262995838362
63122.81538190781,154371.0,87015.0,3862.0,19.824356863893627
63122.82547577586,154346.0,87029.0,3869.0,19.83445073194889
63122.83556964392,154335.0,86984.0,3859.0,19.844544600004156
63122.84566351198,154353.0,87022.0,3848.0,19.854638468066696
63122.855757380035,154368.0,87027.0,3858.0,19.86473233612196
63122.86585124809,154340.0,87021.0,3879.0,19.874826204177225
63122.875945116146,154347.0,87025.0,3865.0,19.88492007223249
63122.88603898421,154379.0,87015.0,3885.0,19.89501394029503
63122.896132852264,154314.0,86998.0,3831.0,19.905107808350294
63122.90622672032,154361.0,87000.0,3870.0,19.91520167640556
63122.916320588374,154352.0,87014.0,3847.0,19.925295544460823
63122.92641445644,154358.0,87027.0,3892.0,19.935389412523364
