timestamp,PPG_1,PPG_2,PPG_3,time_from_segment_start_sec
63856.46484006703,167155.0,141151.0,13408.0,0.0
63856.47494923113,167150.0,141191.0,13407.0,0.010109164104505908
63856.485058395236,167174.0,141228.0,13426.0,0.020218328209011815
63856.49516755934,167138.0,141187.0,13423.0,0.030327492313517723
63856.50527672345,167167.0,141209.0,13418.0,0.04043665642529959
63856.51538588756,167153.0,141190.0,13415.0,0.050545820529805496
63856.52549505166,167144.0,141197.0,13410.0,0.060654984634311404
63856.53560421577,167161.0,141153.0,13407.0,0.07076414874609327
63856.54571337988,167130.0,141171.0,13397.0,0.08087331285059918
63856.55582254398,167154.0,141189.0,13432.0,0.09098247695510508
63856.56593170809,167135.0,141195.0,13417.0,0.10109164106688695
63856.5760408722,167135.0,141184.0,13397.0,0.11120080517139286
63856.5861500363,167153.0,141165.0,13409.0,0.12130996927589877
63856.596259200414,167148.0,141183.0,13415.0,0.13141913338768063
63856.60636836452,167166.0,141203.0,13415.0,0.14152829749218654
63856.61647752862,167164.0,141218.0,13438.0,0.15163746159669245
63856.626586692735,167119.0,141177.0,13402.0,0.1617466257084743
63856.63669585684,167157.0,141187.0,13405.0,0.17185578981298022
63856.646805020944,167154.0,141201.0,13415.0,0.18196495391748613
63856.656914185056,167146.0,141205.0,13428.0,0.192074118029268
63856.66702334916,167180.0,141199.0,13442.0,0.2021832821337739
63856.677132513265,167109.0,141194.0,13371.0,0.2122924462382798
63856.68724167738,167154.0,141194.0,13413.0,0.22240161035006167
63856.69735084148,167147.0,141191.0,13404.0,0.23251077445456758
63856.707460005586,167188.0,141216.0,13435.0,0.2426199385590735
63856.7175691697,167143.0,141181.0,13421.0,0.25272910267085535
63856.7276783338,167172.0,141200.0,13417.0,0.26283826677536126
63856.73778749791,167177.0,141200.0,13404.0,0.27294743087986717
63856.74789666202,167201.0,141210.0,13444.0,0.28305659499164904
63856.75800582612,167141.0,141182.0,13404.0,0.29316575909615494
63856.76811499023,167168.0,141197.0,13418.0,0.30327492320066085
63856.77822415433,167147.0,141227.0,13415.0,0.31338408730516676
63856.78833331844,167201.0,141174.0,13444.0,0.3234932514169486
63856.79844248255,167194.0,141207.0,13435.0,0.33360241552145453
63856.80855164665,167152.0,141200.0,13407.0,0.34371157962596044
63856.818660810764,167170.0,141192.0,13405.0,0.3538207437377423
63856.82876997487,167206.0,141210.0,13383.0,0.3639299078422482
63856.83887913897,167182.0,141218.0,13457.0,0.3740390719467541
63856.848988303085,167193.0,141218.0,13430.0,0.384148236058536
63856.85909746719,167160.0,141209.0,13406.0,0.3942574001630419
63856.869206631294,167172.0,141209.0,13416.0,0.4043665642675478
63856.879315795406,167171.0,141204.0,13421.0,0.41447572837932967
63856.88942495951,167191.0,141208.0,13426.0,0.4245848924838356
63856.899534123615,167217.0,141193.0,13435.0,0.4346940565883415
63856.90964328773,167166.0,141199.0,13421.0,0.44480322070012335
63856.91975245183,167191.0,141215.0,13398.0,0.45491238480462926
63856.929861615936,167203.0,141221.0,13451.0,0.46502154890913516
63856.93997078005,167167.0,141211.0,13422.0,0.47513071302091703
63856.95007994415,167172.0,141179.0,13420.0,0.48523987712542294
63856.96018910826,167213.0,141242.0,13466.0,0.49534904122992884
63856.97029827237,167229.0,141221.0,13438.0,0.5054582053417107
63856.98040743647,167203.0,141208.0,13430.0,0.5155673694462166
63856.99051660058,167219.0,141209.0,13435.0,0.5256765335507225
63857.00062576469,167178.0,141197.0,13407.0,0.5357856976625044
63857.010734928794,167215.0,141232.0,13417.0,0.5458948617670103
63857.0208440929,167203.0,141218.0,13436.0,0.5560040258715162
63857.03095325701,167203.0,141223.0,13449.0,0.5661131899832981
63857.041062421114,167186.0,141192.0,13417.0,0.576222354087804
63857.05117158522,167193.0,141238.0,13441.0,0.5863315181923099
63857.06128074933,167217.0,141217.0,13429.0,0.5964406823040918
63857.071389913435,167205.0,141162.0,13455.0,0.6065498464085977
63857.08149907754,167235.0,141235.0,13418.0,0.6166590105131036
63857.09160824165,167213.0,141183.0,13430.0,0.6267681746248854
63857.101717405756,167216.0,141221.0,13435.0,0.6368773387293913
63857.11182656986,167221.0,141230.0,13432.0,0.6469865028338972
63857.121935733965,167202.0,141204.0,13428.0,0.6570956669384032
63857.13204489808,167204.0,141197.0,13439.0,0.667204831050185
63857.14215406218,167219.0,141231.0,13445.0,0.6773139951546909
63857.152263226286,167209.0,141250.0,13439.0,0.6874231592591968
63857.1623723904,167203.0,141208.0,13423.0,0.6975323233709787
63857.1724815545,167183.0,141209.0,13435.0,0.7076414874754846
63857.18259071861,167228.0,141221.0,13445.0,0.7177506515799905
63857.19269988272,167229.0,141237.0,13464.0,0.7278598156917724
63857.20280904682,167275.0,141251.0,13493.0,0.7379689797962783
63857.21291821093,167217.0,141180.0,13433.0,0.7480781439007842
63857.22302737504,167221.0,141214.0,13442.0,0.7581873080125661
63857.233136539144,167218.0,141226.0,13445.0,0.768296472117072
63857.24324570325,167235.0,141232.0,13471.0,0.7784056362215779
63857.25335486736,167191.0,141228.0,13432.0,0.7885148003333597
63857.263464031465,167212.0,141191.0,13441.0,0.7986239644378657
63857.27357319557,167182.0,141214.0,13416.0,0.8087331285423716
63857.28368235968,167177.0,141197.0,13431.0,0.8188422926541534
63857.293791523785,167150.0,141201.0,13425.0,0.8289514567586593
63857.30390068789,167152.0,141174.0,13402.0,0.8390606208631652
63857.314009852,167132.0,141167.0,13407.0,0.8491697849749471
63857.324119016106,167117.0,141144.0,13399.0,0.859278949079453
63857.33422818021,167107.0,141162.0,13402.0,0.8693881131839589
63857.34433734432,167095.0,141154.0,13361.0,0.8794972772957408
63857.35444650843,167111.0,141166.0,13411.0,0.8896064414002467
63857.36455567253,167109.0,141142.0,13396.0,0.8997156055047526
63857.37466483664,167150.0,141190.0,13426.0,0.9098247696165345
63857.38477400075,167114.0,141146.0,13388.0,0.9199339337210404
63857.39488316485,167142.0,141161.0,13407.0,0.9300430978255463
63857.40499232896,167113.0,141157.0,13406.0,0.9401522619300522
63857.41510149307,167125.0,141157.0,13390.0,0.9502614260418341
63857.42521065717,167162.0,141208.0,13426.0,0.96037059014634
63857.43531982128,167143.0,141180.0,13409.0,0.9704797542508459
63857.44542898539,167174.0,141179.0,13437.0,0.9805889183626277
63857.455538149494,167175.0,141196.0,13408.0,0.9906980824671336
63857.4656473136,167119.0,141155.0,13425.0,1.0008072465716396
63857.47575647771,167136.0,141206.0,13406.0,1.0109164106834214
63857.485865641815,167103.0,141181.0,13421.0,1.0210255747879273
63857.49597480592,167121.0,141199.0,13414.0,1.0311347388924332
63857.50608397003,167175.0,141202.0,13435.0,1.041243903004215
63857.516193134135,167142.0,141190.0,13410.0,1.051353067108721
63857.52630229824,167157.0,141213.0,13414.0,1.061462231213227
63857.53641146235,167190.0,141206.0,13440.0,1.0715713953250088
63857.546520626456,167158.0,141200.0,13401.0,1.0816805594295147
63857.55662979056,167159.0,141183.0,13418.0,1.0917897235340206
63857.56673895467,167143.0,141175.0,13399.0,1.1018988876458025
63857.57684811878,167140.0,141160.0,13397.0,1.1120080517503084
63857.58695728288,167183.0,141184.0,13424.0,1.1221172158548143
63857.59706644699,167147.0,141184.0,13408.0,1.1322263799665961
63857.6071756111,167156.0,141178.0,13440.0,1.142335544071102
63857.6172847752,167150.0,141211.0,13428.0,1.152444708175608
63857.627393939314,167125.0,141181.0,13430.0,1.1625538722873898
63857.63750310342,167160.0,141193.0,13414.0,1.1726630363918957
63857.64761226752,167148.0,141166.0,13407.0,1.1827722004964016
63857.657721431635,167182.0,141188.0,13432.0,1.1928813646081835
63857.66783059574,167138.0,141172.0,13405.0,1.2029905287126894
63857.677939759844,167158.0,141190.0,13424.0,1.2130996928171953
63857.688048923956,167169.0,141207.0,13416.0,1.2232088569289772
63857.69815808806,167184.0,141183.0,13429.0,1.233318021033483
63857.708267252165,167178.0,141222.0,13444.0,1.243427185137989
63857.71837641628,167161.0,141194.0,13409.0,1.2535363492497709
63857.72848558038,167176.0,141204.0,13426.0,1.2636455133542768
63857.738594744485,167181.0,141180.0,13428.0,1.2737546774587827
63857.74870390859,167193.0,141207.0,13444.0,1.2838638415632886
63857.7588130727,167161.0,141215.0,13446.0,1.2939730056750705
63857.768922236806,167191.0,141205.0,13423.0,1.3040821697795764
63857.77903140091,167208.0,141235.0,13424.0,1.3141913338840823
63857.78914056502,167157.0,141178.0,13403.0,1.3243004979958641
63857.79924972913,167211.0,141211.0,13441.0,1.33440966210037
63857.80935889323,167193.0,141217.0,13424.0,1.344518826204876
63857.81946805734,167206.0,141216.0,13426.0,1.3546279903166578
63857.82957722145,167201.0,141218.0,13439.0,1.3647371544211637
63857.83968638555,167237.0,141226.0,13454.0,1.3748463185256696
63857.849795549664,167217.0,141214.0,13418.0,1.3849554826374515
63857.85990471377,167198.0,141206.0,13413.0,1.3950646467419574
63857.87001387787,167189.0,141201.0,13424.0,1.4051738108464633
63857.880123041985,167213.0,141225.0,13444.0,1.4152829749582452
63857.89023220609,167208.0,141202.0,13430.0,1.425392139062751
63857.900341370194,167204.0,141200.0,13420.0,1.435501303167257
63857.910450534306,167203.0,141187.0,13418.0,1.4456104672790389
63857.92055969841,167203.0,141206.0,13410.0,1.4557196313835448
63857.930668862515,167215.0,141217.0,13428.0,1.4658287954880507
63857.94077802663,167211.0,141246.0,13457.0,1.4759379595998325
63857.95088719073,167220.0,141216.0,13423.0,1.4860471237043384
63857.960996354836,167193.0,141205.0,13419.0,1.4961562878088444
63857.97110551895,167226.0,141211.0,13442.0,1.5062654519206262
63857.98121468305,167197.0,141209.0,13424.0,1.5163746160251321
63857.991323847156,167229.0,141205.0,13453.0,1.526483780129638
63858.00143301127,167241.0,141223.0,13454.0,1.53659294424142
63858.01154217537,167252.0,141227.0,13449.0,1.5467021083459258
63858.02165133948,167229.0,141219.0,13419.0,1.5568112724504317
63858.03176050358,167243.0,141229.0,13434.0,1.5669204365549376
63858.04186966769,167203.0,141190.0,13443.0,1.5770296006667195
63858.0519788318,167235.0,141222.0,13441.0,1.5871387647712254
63858.0620879959,167213.0,141186.0,13430.0,1.5972479288757313
63858.072197160014,167240.0,141228.0,13463.0,1.6073570929875132
63858.08230632412,167228.0,141227.0,13429.0,1.617466257092019
63858.09241548822,167201.0,141197.0,13438.0,1.627575421196525
63858.102524652335,167176.0,141177.0,13441.0,1.6376845853083069
63858.11263381644,167208.0,141211.0,13414.0,1.6477937494128128
63858.122742980544,167181.0,141202.0,13433.0,1.6579029135173187
63858.132852144656,167146.0,141173.0,13405.0,1.6680120776291005
63858.14296130876,167144.0,141177.0,13411.0,1.6781212417336064
63858.153070472865,167140.0,141185.0,13396.0,1.6882304058381123
63858.16317963698,167162.0,141169.0,13422.0,1.6983395699498942
63858.17328880108,167132.0,141158.0,13395.0,1.7084487340544001
63858.183397965186,167147.0,141170.0,13406.0,1.718557898158906
63858.1935071293,167135.0,141157.0,13418.0,1.728667062270688
63858.2036162934,167132.0,141145.0,13415.0,1.7387762263751938
63858.21372545751,167149.0,141162.0,13382.0,1.7488853904796997
63858.22383462162,167152.0,141181.0,13413.0,1.7589945545914816
63858.23394378572,167139.0,141181.0,13403.0,1.7691037186959875
63858.24405294983,167178.0,141214.0,13434.0,1.7792128828004934
63858.25416211394,167162.0,141148.0,13395.0,1.7893220469122753
63858.26427127804,167157.0,141183.0,13417.0,1.7994312110167812
63858.27438044215,167165.0,141164.0,13408.0,1.809540375121287
63858.28448960626,167146.0,141177.0,13400.0,1.819649539233069
63858.294598770364,167156.0,141174.0,13417.0,1.8297587033375748
63858.30470793447,167171.0,141184.0,13407.0,1.8398678674420808
63858.31481709858,167160.0,141200.0,13450.0,1.8499770315538626
63858.324926262685,167183.0,141219.0,13423.0,1.8600861956583685
63858.33503542679,167178.0,141205.0,13438.0,1.8701953597628744
63858.345144590894,167184.0,141200.0,13422.0,1.8803045238673803
63858.355253755006,167202.0,141184.0,13403.0,1.8904136879791622
63858.36536291911,167187.0,141196.0,13375.0,1.9005228520836681
63858.375472083215,167202.0,141179.0,13426.0,1.910632016188174
63858.38558124733,167174.0,141185.0,13415.0,1.9207411802999559
63858.39569041143,167157.0,141204.0,13415.0,1.9308503444044618
63858.405799575536,167224.0,141217.0,13438.0,1.9409595085089677
63858.41590873965,167201.0,141218.0,13425.0,1.9510686726207496
63858.42601790375,167161.0,141185.0,13413.0,1.9611778367252555
63858.43612706786,167198.0,141180.0,13427.0,1.9712870008297614
63858.44623623197,167142.0,141168.0,13404.0,1.9813961649415432
63858.45634539607,167150.0,141175.0,13389.0,1.9915053290460492
63858.46645456018,167185.0,141195.0,13446.0,2.001614493150555
63858.47656372429,167188.0,141218.0,13420.0,2.011723657262337
63858.48667288839,167160.0,141184.0,13423.0,2.021832821366843
63858.4967820525,167171.0,141215.0,13415.0,2.0319419854713487
63858.50689121661,167159.0,141207.0,13396.0,2.0420511495831306
63858.517000380714,167212.0,141191.0,13427.0,2.0521603136876365
63858.52710954482,167188.0,141186.0,13425.0,2.0622694777921424
63858.53721870893,167180.0,141178.0,13409.0,2.0723786419039243
63858.547327873035,167196.0,141205.0,13402.0,2.08248780600843
63858.55743703714,167203.0,141205.0,13436.0,2.092596970112936
63858.56754620125,167166.0,141203.0,13467.0,2.102706134224718
63858.577655365356,167166.0,141178.0,13419.0,2.112815298329224
63858.58776452946,167230.0,141212.0,13444.0,2.12292446243373
63858.59787369357,167199.0,141208.0,13429.0,2.1330336265455117
63858.60798285768,167266.0,141211.0,13432.0,2.1431427906500176
63858.61809202178,167230.0,141184.0,13448.0,2.1532519547545235
63858.62820118589,167191.0,141179.0,13415.0,2.1633611188663053
63858.63831035,167223.0,141201.0,13432.0,2.1734702829708112
63858.6484195141,167229.0,141227.0,13423.0,2.183579447075317
63858.65852867821,167185.0,141210.0,13446.0,2.193688611179823
63858.66863784232,167209.0,141193.0,13421.0,2.203797775291605
63858.67874700642,167213.0,141210.0,13428.0,2.213906939396111
63858.68885617053,167232.0,141236.0,13440.0,2.2240161035006167
63858.69896533464,167195.0,141210.0,13418.0,2.2341252676123986
63858.70907449874,167214.0,141198.0,13428.0,2.2442344317169045
63858.71918366285,167224.0,141206.0,13438.0,2.2543435958214104
63858.72929282696,167207.0,141205.0,13432.0,2.2644527599331923
63858.739401991064,167218.0,141240.0,13431.0,2.274561924037698
63858.74951115517,167231.0,141202.0,13418.0,2.284671088142204
63858.75962031928,167227.0,141215.0,13442.0,2.294780252253986
63858.769729483385,167228.0,141191.0,13427.0,2.304889416358492
63858.77983864749,167228.0,141254.0,13459.0,2.314998580462998
63858.7899478116,167206.0,141219.0,13425.0,2.3251077445747796
63858.800056975706,167234.0,141226.0,13436.0,2.3352169086792856
63858.81016613981,167249.0,141235.0,13429.0,2.3453260727837915
63858.82027530392,167249.0,141205.0,13446.0,2.3554352368955733
63858.83038446803,167228.0,141233.0,13440.0,2.3655444010000792
63858.84049363213,167241.0,141212.0,13433.0,2.375653565104585
63858.85060279624,167222.0,141211.0,13463.0,2.385762729216367
63858.86071196035,167242.0,141229.0,13439.0,2.395871893320873
63858.87082112445,167268.0,141252.0,13470.0,2.405981057425379
63858.880930288564,167233.0,141215.0,13430.0,2.4160902215371607
63858.89103945267,167238.0,141212.0,13436.0,2.4261993856416666
63858.90114861677,167209.0,141227.0,13428.0,2.4363085497461725
63858.911257780885,167229.0,141220.0,13462.0,2.4464177138579544
63858.92136694499,167196.0,141216.0,13445.0,2.4565268779624603
63858.93147610909,167199.0,141202.0,13414.0,2.466636042066966
63858.941585273205,167158.0,141163.0,13413.0,2.476745206178748
63858.95169443731,167173.0,141195.0,13415.0,2.486854370283254
63858.961803601414,167184.0,141188.0,13424.0,2.49696353438776
63858.97191276552,167155.0,141174.0,13415.0,2.5070726984922658
63858.98202192963,167136.0,141165.0,13395.0,2.5171818626040476
63858.992131093735,167156.0,141179.0,13380.0,2.5272910267085535
63859.00224025784,167174.0,141193.0,13432.0,2.5374001908130595
63859.01234942195,167171.0,141179.0,13406.0,2.5475093549248413
63859.022458586056,167137.0,141180.0,13413.0,2.5576185190293472
63859.03256775016,167159.0,141187.0,13385.0,2.567727683133853
63859.04267691427,167183.0,141195.0,13396.0,2.577836847245635
63859.05278607838,167179.0,141176.0,13406.0,2.587946011350141
63859.06289524248,167196.0,141195.0,13416.0,2.598055175454647
63859.07300440659,167148.0,141176.0,13367.0,2.6081643395664287
63859.0831135707,167195.0,141182.0,13395.0,2.6182735036709346
63859.0932227348,167177.0,141186.0,13425.0,2.6283826677754405
63859.103331898914,167163.0,141209.0,13430.0,2.6384918318872224
63859.11344106302,167158.0,141199.0,13401.0,2.6486009959917283
63859.12355022712,167190.0,141224.0,13434.0,2.658710160096234
63859.133659391235,167190.0,141188.0,13416.0,2.668819324208016
63859.14376855534,167212.0,141199.0,13445.0,2.678928488312522
63859.153877719444,167190.0,141178.0,13431.0,2.689037652417028
63859.163986883555,167156.0,141191.0,13407.0,2.6991468165288097
63859.17409604766,167181.0,141207.0,13420.0,2.7092559806333156
63859.184205211764,167210.0,141229.0,13405.0,2.7193651447378215
63859.194314375876,167186.0,141199.0,13446.0,2.7294743088496034
63859.20442353998,167183.0,141169.0,13407.0,2.7395834729541093
63859.214532704085,167182.0,141189.0,13414.0,2.749692637058615
63859.2246418682,167152.0,141230.0,13405.0,2.759801801170397
63859.2347510323,167212.0,141196.0,13445.0,2.769910965274903
63859.244860196406,167165.0,141162.0,13422.0,2.780020129379409
63859.25496936052,167177.0,141212.0,13398.0,2.7901292934911908
63859.26507852462,167184.0,141176.0,13427.0,2.8002384575956967
63859.27518768873,167213.0,141212.0,13447.0,2.8103476217002026
63859.28529685283,167182.0,141195.0,13440.0,2.8204567858047085
63859.29540601694,167213.0,141203.0,13420.0,2.8305659499164904
63859.30551518105,167198.0,141209.0,13419.0,2.8406751140209963
63859.31562434515,167180.0,141218.0,13427.0,2.850784278125502
63859.325733509264,167172.0,141179.0,13412.0,2.860893442237284
63859.33584267337,167181.0,141185.0,13408.0,2.87100260634179
63859.34595183747,167166.0,141191.0,13392.0,2.881111770446296
63859.356061001585,167175.0,141177.0,13428.0,2.8912209345580777
63859.36617016569,167223.0,141223.0,13439.0,2.9013300986625836
63859.376279329794,167210.0,141189.0,13448.0,2.9114392627670895
63859.386388493906,167195.0,141207.0,13428.0,2.9215484268788714
63859.39649765801,167194.0,141172.0,13417.0,2.9316575909833773
63859.406606822115,167234.0,141210.0,13459.0,2.941766755087883
63859.416715986226,167242.0,141232.0,13430.0,2.951875919199665
63859.42682515033,167216.0,141217.0,13423.0,2.961985083304171
63859.436934314435,167210.0,141196.0,13424.0,2.972094247408677
63859.44704347855,167242.0,141209.0,13435.0,2.9822034115204588
63859.45715264265,167197.0,141183.0,13439.0,2.9923125756249647
63859.467261806756,167219.0,141195.0,13440.0,3.0024217397294706
63859.47737097087,167195.0,141190.0,13453.0,3.0125309038412524
63859.48748013497,167213.0,141214.0,13418.0,3.0226400679457583
63859.49758929908,167221.0,141225.0,13453.0,3.0327492320502643
63859.50769846319,167221.0,141212.0,13447.0,3.042858396162046
63859.51780762729,167226.0,141208.0,13409.0,3.052967560266552
63859.5279167914,167238.0,141227.0,13439.0,3.063076724371058
63859.53802595551,167254.0,141219.0,13442.0,3.07318588848284
63859.548135119614,167228.0,141221.0,13432.0,3.0832950525873457
63859.55824428372,167202.0,141263.0,13434.0,3.0934042166918516
63859.56835344783,167233.0,141199.0,13439.0,3.1035133808036335
63859.578462611935,167222.0,141205.0,13436.0,3.1136225449081394
63859.58857177604,167237.0,141219.0,13442.0,3.1237317090126453
63859.598680940144,167261.0,141226.0,13442.0,3.133840873117151
63859.608790104256,167224.0,141181.0,13404.0,3.143950037228933
63859.61889926836,167252.0,141250.0,13415.0,3.154059201333439
63859.629008432465,167239.0,141212.0,13467.0,3.164168365437945
63859.63911759658,167236.0,141228.0,13430.0,3.1742775295497268
63859.64922676068,167220.0,141223.0,13453.0,3.1843866936542327
63859.659335924785,167219.0,141213.0,13418.0,3.1944958577587386
63859.6694450889,167246.0,141220.0,13468.0,3.2046050218705204
63859.679554253,167238.0,141246.0,13438.0,3.2147141859750263
63859.689663417106,167249.0,141194.0,13443.0,3.2248233500795322
63859.69977258122,167182.0,141196.0,13413.0,3.234932514191314
63859.70988174532,167240.0,141224.0,13424.0,3.24504167829582
63859.71999090943,167184.0,141191.0,13420.0,3.255150842400326
63859.73010007354,167154.0,141193.0,13454.0,3.265260006512108
63859.74020923764,167122.0,141149.0,13397.0,3.2753691706166137
63859.75031840175,167092.0,141159.0,13375.0,3.2854783347211196
63859.76042756586,167141.0,141153.0,13394.0,3.2955874988329015
63859.770536729964,167141.0,141156.0,13414.0,3.3056966629374074
63859.78064589407,167149.0,141160.0,13404.0,3.3158058270419133
63859.79075505818,167119.0,141129.0,13370.0,3.325914991153695
63859.800864222285,167152.0,141150.0,13389.0,3.336024155258201
63859.81097338639,167135.0,141167.0,13373.0,3.346133319362707
63859.8210825505,167117.0,141153.0,13417.0,3.356242483474489
63859.831191714606,167140.0,141160.0,13386.0,3.3663516475789947
63859.84130087871,167136.0,141161.0,13399.0,3.3764608116835007
63859.85141004282,167143.0,141187.0,13409.0,3.3865699757952825
63859.86151920693,167172.0,141188.0,13422.0,3.3966791398997884
63859.87162837103,167130.0,141142.0,13410.0,3.4067883040042943
63859.88173753514,167145.0,141163.0,13398.0,3.416897468116076
63859.89184669925,167119.0,141149.0,13396.0,3.427006632220582
63859.90195586335,167163.0,141185.0,13387.0,3.437115796325088
63859.912065027456,167147.0,141165.0,13394.0,3.447224960429594
63859.92217419157,167154.0,141182.0,13407.0,3.457334124541376
63859.93228335567,167112.0,141179.0,13381.0,3.4674432886458817
63859.94239251978,167152.0,141184.0,13419.0,3.4775524527503876
63859.95250168389,167172.0,141202.0,13425.0,3.4876616168621695
63859.96261084799,167159.0,141184.0,13408.0,3.4977707809666754
63859.9727200121,167157.0,141161.0,13419.0,3.5078799450711813
63859.98282917621,167137.0,141148.0,13393.0,3.517989109182963
63859.992938340314,167185.0,141175.0,13387.0,3.528098273287469
63860.00304750442,167163.0,141176.0,13436.0,3.538207437391975
63860.01315666853,167116.0,141175.0,13408.0,3.548316601503757
63860.023265832635,167143.0,141179.0,13403.0,3.5584257656082627
63860.03337499674,167176.0,141186.0,13431.0,3.5685349297127686
63860.04348416085,167183.0,141170.0,13437.0,3.5786440938245505
63860.053593324956,167162.0,141202.0,13410.0,3.5887532579290564
63860.06370248906,167137.0,141141.0,13410.0,3.5988624220335623
63860.07381165317,167187.0,141187.0,13415.0,3.608971586145344
63860.08392081728,167194.0,141199.0,13437.0,3.61908075024985
63860.09402998138,167158.0,141192.0,13408.0,3.629189914354356
63860.10413914549,167141.0,141169.0,13451.0,3.639299078466138
63860.1142483096,167160.0,141214.0,13439.0,3.649408242570644
63860.1243574737,167197.0,141196.0,13432.0,3.6595174066751497
63860.13446663781,167159.0,141191.0,13421.0,3.6696265707869316
63860.14457580192,167157.0,141162.0,13384.0,3.6797357348914375
63860.15468496602,167162.0,141169.0,13402.0,3.6898448989959434
63860.164794130134,167162.0,141151.0,13415.0,3.6999540631077252
63860.17490329424,167176.0,141186.0,13414.0,3.710063227212231
63860.18501245834,167192.0,141216.0,13444.0,3.720172391316737
63860.195121622455,167162.0,141155.0,13444.0,3.730281555428519
63860.20523078656,167174.0,141188.0,13413.0,3.740390719533025
63860.215339950664,167182.0,141190.0,13420.0,3.7504998836375307
63860.22544911477,167167.0,141157.0,13416.0,3.7606090477420366
63860.23555827888,167170.0,141178.0,13414.0,3.7707182118538185
63860.245667442985,167193.0,141195.0,13417.0,3.7808273759583244
63860.25577660709,167194.0,141187.0,13428.0,3.7909365400628303
63860.2658857712,167188.0,141202.0,13416.0,3.801045704174612
63860.275994935306,167118.0,141175.0,13400.0,3.811154868279118
63860.28610409941,167180.0,141167.0,13401.0,3.821264032383624
63860.29621326352,167185.0,141198.0,13426.0,3.831373196495406
63860.30632242763,167196.0,141169.0,13434.0,3.8414823605999118
63860.31643159173,167214.0,141238.0,13443.0,3.8515915247044177
63860.32654075584,167163.0,141190.0,13414.0,3.8617006888161995
63860.33664991995,167201.0,141190.0,13421.0,3.8718098529207055
63860.34675908405,167199.0,141216.0,13440.0,3.8819190170252114
63860.356868248164,167203.0,141212.0,13449.0,3.8920281811369932
63860.36697741227,167197.0,141192.0,13445.0,3.902137345241499
63860.37708657637,167194.0,141192.0,13423.0,3.912246509346005
63860.387195740484,167165.0,141212.0,13423.0,3.922355673457787
63860.39730490459,167201.0,141231.0,13438.0,3.932464837562293
63860.40741406869,167212.0,141205.0,13448.0,3.9425740016667987
63860.417523232805,167180.0,141184.0,13427.0,3.9526831657785806
63860.42763239691,167190.0,141177.0,13446.0,3.9627923298830865
63860.437741561014,167231.0,141196.0,13411.0,3.9729014939875924
63860.447850725126,167194.0,141188.0,13464.0,3.9830106580993743
63860.45795988923,167185.0,141186.0,13416.0,3.99311982220388
63860.468069053335,167218.0,141204.0,13435.0,4.003228986308386
63860.47817821745,167195.0,141204.0,13416.0,4.013338150420168
63860.48828738155,167239.0,141220.0,13450.0,4.023447314524674
63860.498396545656,167246.0,141208.0,13459.0,4.03355647862918
63860.50850570977,167229.0,141205.0,13432.0,4.043665642740962
63860.51861487387,167195.0,141186.0,13420.0,4.0537748068454675
63860.52872403798,167236.0,141238.0,13458.0,4.0638839709499734
63860.53883320208,167205.0,141177.0,13430.0,4.073993135054479
63860.54894236619,167163.0,141169.0,13420.0,4.084102299166261
63860.5590515303,167169.0,141167.0,13396.0,4.094211463270767
63860.5691606944,167134.0,141156.0,13389.0,4.104320627375273
63860.579269858514,167164.0,141180.0,13409.0,4.114429791487055
63860.58937902262,167145.0,141156.0,13401.0,4.124538955591561
63860.59948818672,167102.0,141170.0,13404.0,4.134648119696067
63860.609597350835,167083.0,141144.0,13359.0,4.144757283807849
63860.61970651494,167119.0,141149.0,13377.0,4.1548664479123545
63860.62981567904,167118.0,141150.0,13384.0,4.16497561201686
63860.639924843155,167089.0,141138.0,13404.0,4.175084776128642
63860.65003400726,167126.0,141159.0,13386.0,4.185193940233148
63860.660143171364,167097.0,141182.0,13389.0,4.195303104337654
63860.670252335476,167106.0,141148.0,13391.0,4.205412268449436
63860.68036149958,167122.0,141107.0,13367.0,4.215521432553942
63860.690470663685,167111.0,141136.0,13356.0,4.225630596658448
63860.7005798278,167083.0,141131.0,13363.0,4.23573976077023
63860.7106889919,167114.0,141147.0,13387.0,4.2458489248747355
63860.720798156006,167090.0,141135.0,13369.0,4.255958088979241
63860.73090732012,167087.0,141147.0,13352.0,4.266067253091023
63860.74101648422,167116.0,141160.0,13378.0,4.276176417195529
63860.75112564833,167116.0,141150.0,13385.0,4.286285581300035
63860.76123481244,167097.0,141137.0,13386.0,4.296394745411817
63860.77134397654,167150.0,141165.0,13419.0,4.306503909516323
63860.78145314065,167129.0,141130.0,13396.0,4.316613073620829
63860.79156230476,167123.0,141155.0,13398.0,4.326722237732611
63860.801671468864,167122.0,141159.0,13387.0,4.336831401837117
63860.81178063297,167163.0,141149.0,13414.0,4.3469405659416225
63860.82188979708,167133.0,141172.0,13414.0,4.357049730053404
63860.831998961185,167142.0,141164.0,13413.0,4.36715889415791
63860.84210812529,167135.0,141176.0,13400.0,4.377268058262416
63860.85221728939,167142.0,141147.0,13396.0,4.387377222366922
63860.862326453505,167140.0,141154.0,13391.0,4.397486386478704
63860.87243561761,167150.0,141185.0,13415.0,4.40759555058321
63860.882544781714,167139.0,141167.0,13405.0,4.417704714687716
63860.892653945826,167143.0,141152.0,13375.0,4.427813878799498
63860.90276310993,167119.0,141164.0,13377.0,4.4379230429040035
63860.912872274035,167164.0,141157.0,13430.0,4.448032207008509
63860.92298143815,167125.0,141164.0,13395.0,4.458141371120291
63860.93309060225,167127.0,141135.0,13411.0,4.468250535224797
63860.943199766356,167102.0,141161.0,13379.0,4.478359699329303
63860.95330893047,167174.0,141204.0,13425.0,4.488468863441085
63860.96341809457,167133.0,141165.0,13402.0,4.498578027545591
63860.97352725868,167160.0,141188.0,13410.0,4.508687191650097
63860.98363642279,167159.0,141143.0,13404.0,4.518796355761879
63860.99374558689,167119.0,141152.0,13401.0,4.528905519866385
63861.003854751,167135.0,141178.0,13410.0,4.5390146839708905
63861.01396391511,167157.0,141187.0,13406.0,4.549123848082672
63861.024073079214,167119.0,141144.0,13400.0,4.559233012187178
63861.03418224332,167133.0,141200.0,13409.0,4.569342176291684
63861.04429140743,167164.0,141180.0,13400.0,4.579451340403466
63861.054400571535,167174.0,141175.0,13436.0,4.589560504507972
63861.06450973564,167150.0,141148.0,13415.0,4.599669668612478
63861.07461889975,167163.0,141153.0,13415.0,4.60977883272426
63861.084728063855,167114.0,141148.0,13410.0,4.619887996828766
63861.09483722796,167149.0,141184.0,13427.0,4.6299971609332715
63861.10494639207,167149.0,141172.0,13447.0,4.640106325045053
63861.115055556176,167138.0,141147.0,13397.0,4.650215489149559
63861.12516472028,167171.0,141194.0,13413.0,4.660324653254065
63861.13527388439,167157.0,141149.0,13407.0,4.670433817365847
63861.1453830485,167136.0,141168.0,13393.0,4.680542981470353
63861.1554922126,167159.0,141145.0,13416.0,4.690652145574859
63861.165601376706,167163.0,141195.0,13392.0,4.700761309679365
63861.17571054082,167162.0,141172.0,13425.0,4.710870473791147
63861.18581970492,167198.0,141196.0,13428.0,4.720979637895653
63861.19592886903,167195.0,141213.0,13433.0,4.7310888020001585
63861.20603803314,167160.0,141180.0,13410.0,4.74119796611194
63861.21614719724,167169.0,141162.0,13453.0,4.751307130216446
63861.22625636135,167180.0,141199.0,13428.0,4.761416294320952
63861.23636552546,167180.0,141180.0,13429.0,4.771525458432734
63861.246474689564,167173.0,141182.0,13415.0,4.78163462253724
63861.25658385367,167179.0,141201.0,13427.0,4.791743786641746
63861.26669301778,167186.0,141176.0,13427.0,4.801852950753528
63861.276802181885,167182.0,141178.0,13450.0,4.811962114858034
63861.28691134599,167201.0,141173.0,13434.0,4.8220712789625395
63861.2970205101,167199.0,141195.0,13424.0,4.832180443074321
63861.307129674205,167204.0,141194.0,13424.0,4.842289607178827
63861.31723883831,167213.0,141211.0,13452.0,4.852398771283333
63861.32734800242,167182.0,141195.0,13417.0,4.862507935395115
63861.337457166526,167199.0,141199.0,13427.0,4.872617099499621
63861.34756633063,167194.0,141209.0,13442.0,4.882726263604127
63861.35767549474,167212.0,141170.0,13453.0,4.892835427715909
63861.36778465885,167177.0,141175.0,13445.0,4.902944591820415
63861.37789382295,167203.0,141193.0,13432.0,4.9130537559249206
63861.38800298706,167194.0,141193.0,13441.0,4.923162920036702
63861.39811215117,167198.0,141183.0,13422.0,4.933272084141208
63861.40822131527,167229.0,141223.0,13455.0,4.943381248245714
63861.418330479384,167221.0,141212.0,13437.0,4.953490412357496
63861.42843964349,167218.0,141193.0,13406.0,4.963599576462002
63861.43854880759,167208.0,141202.0,13416.0,4.973708740566508
63861.448657971705,167248.0,141210.0,13464.0,4.98381790467829
63861.45876713581,167213.0,141205.0,13442.0,4.993927068782796
63861.468876299914,167189.0,141167.0,13408.0,5.004036232887302
63861.47898546402,167176.0,141202.0,13422.0,5.0141453969918075
63861.48909462813,167193.0,141196.0,13435.0,5.024254561103589
63861.499203792235,167148.0,141159.0,13408.0,5.034363725208095
63861.50931295634,167155.0,141134.0,13419.0,5.044472889312601
63861.51942212045,167101.0,141163.0,13373.0,5.054582053424383
63861.529531284556,167112.0,141162.0,13386.0,5.064691217528889
63861.53964044866,167111.0,141141.0,13399.0,5.074800381633395
63861.54974961277,167111.0,141146.0,13380.0,5.084909545745177
63861.559858776876,167082.0,141126.0,13390.0,5.095018709849683
63861.56996794098,167077.0,141125.0,13377.0,5.1051278739541885
63861.58007710509,167063.0,141151.0,13361.0,5.11523703806597
63861.5901862692,167100.0,141143.0,13383.0,5.125346202170476
63861.6002954333,167102.0,141146.0,13363.0,5.135455366274982
63861.61040459741,167101.0,141119.0,13387.0,5.145564530386764
63861.62051376152,167129.0,141177.0,13377.0,5.15567369449127
63861.63062292562,167107.0,141141.0,13382.0,5.165782858595776
63861.640732089734,167102.0,141157.0,13405.0,5.175892022707558
63861.65084125384,167070.0,141120.0,13368.0,5.186001186812064
63861.66095041794,167093.0,141167.0,13393.0,5.19611035091657
63861.671059582055,167107.0,141147.0,13380.0,5.2062195150283515
63861.68116874616,167079.0,141147.0,13386.0,5.216328679132857
63861.691277910264,167086.0,141131.0,13390.0,5.226437843237363
63861.701387074376,167089.0,141111.0,13372.0,5.236547007349145
63861.71149623848,167126.0,141151.0,13382.0,5.246656171453651
63861.721605402585,167129.0,141165.0,13356.0,5.256765335558157
63861.7317145667,167132.0,141166.0,13375.0,5.266874499669939
63861.7418237308,167104.0,141145.0,13379.0,5.276983663774445
63861.751932894906,167126.0,141183.0,13385.0,5.287092827878951
63861.76204205902,167079.0,141173.0,13383.0,5.2972019919907325
63861.77215122312,167087.0,141154.0,13415.0,5.307311156095238
63861.78226038723,167093.0,141145.0,13384.0,5.317420320199744
63861.79236955133,167125.0,141147.0,13395.0,5.32752948430425
63861.80247871544,167101.0,141155.0,13419.0,5.337638648416032
63861.81258787955,167115.0,141151.0,13397.0,5.347747812520538
63861.82269704365,167123.0,141123.0,13378.0,5.357856976625044
63861.83280620776,167129.0,141162.0,13389.0,5.367966140736826
63861.84291537187,167117.0,141161.0,13378.0,5.378075304841332
63861.85302453597,167104.0,141145.0,13410.0,5.388184468945838
63861.863133700084,167126.0,141183.0,13394.0,5.3982936330576194
63861.87324286419,167128.0,141187.0,13397.0,5.408402797162125
63861.88335202829,167114.0,141164.0,13423.0,5.418511961266631
63861.893461192405,167125.0,141151.0,13423.0,5.428621125378413
63861.90357035651,167106.0,141135.0,13402.0,5.438730289482919
63861.913679520614,167122.0,141134.0,13397.0,5.448839453587425
63861.923788684726,167106.0,141135.0,13421.0,5.458948617699207
63861.93389784883,167117.0,141166.0,13398.0,5.469057781803713
63861.944007012935,167140.0,141140.0,13430.0,5.479166945908219
63861.95411617705,167137.0,141166.0,13381.0,5.4892761100200005
63861.96422534115,167155.0,141169.0,13403.0,5.499385274124506
63861.974334505256,167134.0,141149.0,13399.0,5.509494438229012
63861.98444366937,167179.0,141180.0,13427.0,5.519603602340794
63861.99455283347,167139.0,141175.0,13423.0,5.5297127664453
63862.00466199758,167165.0,141180.0,13404.0,5.539821930549806
63862.01477116169,167149.0,141165.0,13397.0,5.549931094661588
63862.02488032579,167148.0,141207.0,13408.0,5.560040258766094
63862.0349894899,167161.0,141200.0,13436.0,5.5701494228706
63862.04509865401,167165.0,141171.0,13416.0,5.5802585869823815
63862.05520781811,167160.0,141177.0,13398.0,5.590367751086887
63862.06531698222,167163.0,141179.0,13390.0,5.600476915191393
63862.07542614633,167195.0,141184.0,13420.0,5.610586079303175
63862.085535310434,167160.0,141186.0,13413.0,5.620695243407681
63862.09564447454,167138.0,141164.0,13400.0,5.630804407512187
63862.10575363864,167142.0,141174.0,13391.0,5.640913571616693
63862.115862802755,167178.0,141196.0,13421.0,5.651022735728475
63862.12597196686,167178.0,141190.0,13415.0,5.661131899832981
63862.136081130964,167165.0,141156.0,13426.0,5.671241063937487
63862.146190295076,167146.0,141159.0,13371.0,5.6813502280492685
63862.15629945918,167170.0,141141.0,13402.0,5.691459392153774
63862.166408623285,167172.0,141184.0,13424.0,5.70156855625828
63862.1765177874,167161.0,141170.0,13427.0,5.711677720370062
63862.1866269515,167159.0,141160.0,13402.0,5.721786884474568
63862.196736115606,167160.0,141185.0,13396.0,5.731896048579074
63862.20684527972,167187.0,141192.0,13416.0,5.742005212690856
63862.21695444382,167223.0,141180.0,13427.0,5.752114376795362
63862.22706360793,167189.0,141179.0,13422.0,5.762223540899868
63862.23717277204,167166.0,141181.0,13399.0,5.7723327050116495
63862.24728193614,167186.0,141188.0,13421.0,5.782441869116155
63862.25739110025,167188.0,141188.0,13411.0,5.792551033220661
63862.26750026436,167207.0,141211.0,13437.0,5.802660197332443
63862.27760942846,167160.0,141178.0,13436.0,5.812769361436949
63862.28771859257,167180.0,141195.0,13406.0,5.822878525541455
63862.29782775668,167154.0,141203.0,13428.0,5.832987689653237
63862.307936920784,167210.0,141174.0,13420.0,5.843096853757743
63862.31804608489,167209.0,141176.0,13425.0,5.853206017862249
63862.328155249,167190.0,141206.0,13410.0,5.863315181974031
63862.338264413105,167211.0,141169.0,13430.0,5.8734243460785365
63862.34837357721,167230.0,141225.0,13409.0,5.883533510183042
63862.35848274132,167221.0,141209.0,13453.0,5.893642674294824
63862.368591905426,167165.0,141187.0,13398.0,5.90375183839933
63862.37870106953,167183.0,141177.0,13417.0,5.913861002503836
63862.38881023364,167154.0,141187.0,13406.0,5.923970166615618
63862.39891939775,167169.0,141190.0,13426.0,5.934079330720124
63862.40902856185,167125.0,141133.0,13392.0,5.94418849482463
63862.419137725956,167112.0,141106.0,13366.0,5.954297658929136
63862.42924689007,167094.0,141109.0,13390.0,5.9644068230409175
63862.43935605417,167105.0,141127.0,13358.0,5.974515987145423
63862.44946521828,167114.0,141127.0,13399.0,5.984625151249929
63862.45957438239,167097.0,141140.0,13382.0,5.994734315361711
63862.46968354649,167105.0,141128.0,13374.0,6.004843479466217
63862.4797927106,167067.0,141138.0,13386.0,6.014952643570723
63862.48990187471,167072.0,141119.0,13360.0,6.025061807682505
63862.500011038814,167107.0,141133.0,13387.0,6.035170971787011
63862.51012020292,167074.0,141127.0,13351.0,6.045280135891517
63862.52022936703,167131.0,141117.0,13407.0,6.055389300003299
63862.530338531134,167127.0,141159.0,13384.0,6.0654984641078045
63862.54044769524,167117.0,141150.0,13374.0,6.07560762821231
63862.55055685935,167068.0,141120.0,13400.0,6.085716792324092
63862.560666023455,167091.0,141135.0,13369.0,6.095825956428598
63862.57077518756,167092.0,141168.0,13405.0,6.105935120533104
63862.58088435167,167114.0,141152.0,13380.0,6.116044284644886
63862.590993515776,167149.0,141129.0,13406.0,6.126153448749392
63862.60110267988,167095.0,141154.0,13407.0,6.136262612853898
63862.61121184399,167142.0,141167.0,13399.0,6.14637177696568
63862.6213210081,167122.0,141148.0,13399.0,6.1564809410701855
63862.6314301722,167140.0,141183.0,13415.0,6.166590105174691
63862.64153933631,167107.0,141137.0,13388.0,6.176699269286473
63862.65164850042,167098.0,141142.0,13372.0,6.186808433390979
63862.66175766452,167122.0,141158.0,13386.0,6.196917597495485
63862.671866828634,167113.0,141177.0,13394.0,6.207026761607267
63862.68197599274,167147.0,141138.0,13391.0,6.217135925711773
63862.69208515684,167107.0,141160.0,13370.0,6.227245089816279
63862.702194320955,167107.0,141149.0,13399.0,6.237354253928061
63862.71230348506,167112.0,141149.0,13392.0,6.2474634180325666
63862.722412649164,167101.0,141133.0,13415.0,6.2575725821370725
63862.73252181327,167125.0,141132.0,13396.0,6.267681746241578
63862.74263097738,167128.0,141161.0,13389.0,6.27779091035336
63862.752740141485,167126.0,141177.0,13394.0,6.287900074457866
63862.76284930559,167133.0,141194.0,13411.0,6.298009238562372
63862.7729584697,167098.0,141151.0,13371.0,6.308118402674154
63862.783067633805,167137.0,141167.0,13387.0,6.31822756677866
63862.79317679791,167145.0,141173.0,13400.0,6.328336730883166
63862.80328596202,167155.0,141175.0,13412.0,6.338445894994948
63862.813395126126,167130.0,141138.0,13407.0,6.3485550590994535
63862.82350429023,167103.0,141159.0,13368.0,6.358664223203959
63862.83361345434,167132.0,141158.0,13403.0,6.368773387315741
63862.84372261845,167139.0,141167.0,13393.0,6.378882551420247
63862.85383178255,167130.0,141138.0,13413.0,6.388991715524753
63862.86394094666,167133.0,141166.0,13381.0,6.399100879636535
63862.87405011077,167161.0,141178.0,13396.0,6.409210043741041
63862.88415927487,167157.0,141174.0,13395.0,6.419319207845547
63862.894268438984,167197.0,141208.0,13396.0,6.429428371957329
63862.90437760309,167129.0,141147.0,13410.0,6.4395375360618345
63862.91448676719,167165.0,141181.0,13420.0,6.4496467001663405
63862.924595931305,167145.0,141197.0,13411.0,6.459755864278122
63862.93470509541,167171.0,141224.0,13424.0,6.469865028382628
63862.944814259514,167181.0,141161.0,13418.0,6.479974192487134
63862.954923423626,167157.0,141171.0,13395.0,6.490083356598916
63862.96503258773,167146.0,141167.0,13389.0,6.500192520703422
63862.975141751835,167166.0,141177.0,13403.0,6.510301684807928
63862.98525091595,167194.0,141198.0,13442.0,6.52041084891971
63862.99536008005,167189.0,141181.0,13419.0,6.530520013024216
63863.005469244155,167181.0,141197.0,13407.0,6.5406291771287215
63863.01557840827,167153.0,141192.0,13412.0,6.550738341240503
63863.02568757237,167226.0,141157.0,13425.0,6.560847505345009
63863.035796736476,167192.0,141187.0,13420.0,6.570956669449515
63863.04590590058,167198.0,141169.0,13419.0,6.581065833554021
63863.05601506469,167178.0,141183.0,13404.0,6.591174997665803
63863.0661242288,167204.0,141190.0,13409.0,6.601284161770309
63863.0762333929,167193.0,141196.0,13446.0,6.611393325874815
63863.08634255701,167180.0,141191.0,13418.0,6.621502489986597
63863.09645172112,167163.0,141158.0,13406.0,6.6316116540911025
63863.10656088522,167189.0,141218.0,13444.0,6.6417208181956084
63863.116670049334,167188.0,141189.0,13426.0,6.65182998230739
63863.12677921344,167195.0,141219.0,13417.0,6.661939146411896
63863.13688837754,167186.0,141169.0,13424.0,6.672048310516402
63863.146997541655,167190.0,141163.0,13412.0,6.682157474628184
63863.15710670576,167219.0,141209.0,13415.0,6.69226663873269
63863.167215869864,167213.0,141201.0,13437.0,6.702375802837196
63863.177325033976,167212.0,141208.0,13429.0,6.712484966948978
63863.18743419808,167199.0,141175.0,13407.0,6.722594131053484
63863.197543362185,167246.0,141208.0,13445.0,6.7327032951579895
63863.2076525263,167221.0,141197.0,13428.0,6.742812459269771
63863.2177616904,167240.0,141195.0,13471.0,6.752921623374277
63863.227870854505,167220.0,141198.0,13416.0,6.763030787478783
63863.23798001862,167198.0,141187.0,13397.0,6.773139951590565
63863.24808918272,167234.0,141199.0,13429.0,6.783249115695071
63863.258198346826,167236.0,141218.0,13405.0,6.793358279799577
63863.26830751094,167244.0,141218.0,13461.0,6.803467443911359
63863.27841667504,167200.0,141189.0,13425.0,6.813576608015865
63863.28852583915,167219.0,141192.0,13423.0,6.8236857721203705
63863.29863500326,167170.0,141189.0,13418.0,6.833794936232152
63863.30874416736,167174.0,141157.0,13381.0,6.843904100336658
63863.31885333147,167168.0,141140.0,13399.0,6.854013264441164
63863.32896249558,167176.0,141162.0,13410.0,6.864122428552946
63863.339071659684,167134.0,141127.0,13376.0,6.874231592657452
63863.34918082379,167186.0,141182.0,13402.0,6.884340756761958
63863.35928998789,167118.0,141120.0,13377.0,6.894449920866464
63863.369399152005,167128.0,141145.0,13385.0,6.904559084978246
63863.37950831611,167110.0,141129.0,13390.0,6.914668249082752
63863.389617480214,167131.0,141168.0,13398.0,6.9247774131872575
63863.399726644326,167179.0,141163.0,13413.0,6.934886577299039
63863.40983580843,167141.0,141168.0,13394.0,6.944995741403545
63863.419944972535,167141.0,141144.0,13377.0,6.955104905508051
63863.43005413665,167161.0,141173.0,13419.0,6.965214069619833
63863.44016330075,167177.0,141181.0,13395.0,6.975323233724339
63863.450272464856,167159.0,141148.0,13394.0,6.985432397828845
63863.46038162897,167151.0,141138.0,13420.0,6.995541561940627
63863.47049079307,167167.0,141179.0,13391.0,7.005650726045133
63863.480599957176,167193.0,141175.0,13414.0,7.0157598901496385
63863.49070912129,167185.0,141174.0,13455.0,7.02586905426142
63863.50081828539,167138.0,141169.0,13388.0,7.035978218365926
63863.5109274495,167180.0,141181.0,13391.0,7.046087382470432
63863.52103661361,167199.0,141182.0,13401.0,7.056196546582214
63863.53114577771,167142.0,141143.0,13413.0,7.06630571068672
63863.54125494182,167179.0,141167.0,13399.0,7.076414874791226
63863.55136410593,167149.0,141167.0,13410.0,7.086524038903008
63863.561473270034,167182.0,141204.0,13393.0,7.096633203007514
63863.57158243414,167162.0,141192.0,13410.0,7.10674236711202
63863.58169159825,167173.0,141168.0,13404.0,7.116851531223801
63863.591800762355,167191.0,141166.0,13382.0,7.126960695328307
63863.60190992646,167166.0,141154.0,13383.0,7.137069859432813
63863.61201909057,167190.0,141203.0,13406.0,7.147179023544595
63863.622128254676,167199.0,141181.0,13396.0,7.157288187649101
63863.63223741878,167136.0,141144.0,13387.0,7.167397351753607
63863.64234658289,167130.0,141162.0,13381.0,7.177506515865389
63863.652455747,167177.0,141177.0,13389.0,7.187615679969895
63863.6625649111,167163.0,141176.0,13403.0,7.197724844074401
63863.672674075206,167180.0,141198.0,13426.0,7.2078340081789065
63863.68278323932,167160.0,141168.0,13387.0,7.217943172290688
63863.69289240342,167165.0,141168.0,13400.0,7.228052336395194
63863.70300156753,167180.0,141181.0,13402.0,7.2381615004997
63863.71311073164,167179.0,141200.0,13443.0,7.248270664611482
63863.72321989574,167158.0,141149.0,13405.0,7.258379828715988
63863.73332905985,167172.0,141198.0,13417.0,7.268488992820494
63863.74343822396,167187.0,141184.0,13422.0,7.278598156932276
63863.75354738806,167179.0,141182.0,13429.0,7.288707321036782
63863.76365655217,167212.0,141184.0,13440.0,7.298816485141288
63863.77376571628,167180.0,141165.0,13405.0,7.308925649253069
63863.783874880384,167203.0,141179.0,13409.0,7.319034813357575
63863.79398404449,167227.0,141199.0,13387.0,7.329143977462081
63863.8040932086,167197.0,141197.0,13436.0,7.339253141573863
63863.814202372705,167182.0,141172.0,13404.0,7.349362305678369
63863.82431153681,167214.0,141195.0,13421.0,7.359471469782875
63863.83442070092,167242.0,141215.0,13423.0,7.369580633894657
63863.844529865026,167234.0,141211.0,13419.0,7.379689797999163
63863.85463902913,167207.0,141175.0,13397.0,7.389798962103669
63863.86474819324,167226.0,141192.0,13425.0,7.3999081262154505
63863.87485735735,167219.0,141190.0,13411.0,7.410017290319956
63863.88496652145,167207.0,141197.0,13433.0,7.420126454424462
63863.89507568556,167227.0,141215.0,13433.0,7.430235618536244
63863.90518484967,167214.0,141181.0,13414.0,7.44034478264075
63863.91529401377,167226.0,141193.0,13414.0,7.450453946745256
63863.925403177884,167194.0,141214.0,13418.0,7.460563110857038
63863.93551234199,167257.0,141178.0,13432.0,7.470672274961544
63863.94562150609,167233.0,141175.0,13439.0,7.48078143906605
63863.955730670205,167230.0,141195.0,13425.0,7.4908906031778315
63863.96583983431,167198.0,141167.0,13398.0,7.500999767282337
63863.97594899841,167234.0,141177.0,13427.0,7.511108931386843
63863.98605816252,167252.0,141211.0,13439.0,7.521218095491349
63863.99616732663,167252.0,141192.0,13429.0,7.531327259603131
63864.006276490734,167272.0,141181.0,13446.0,7.541436423707637
63864.01638565484,167255.0,141231.0,13460.0,7.551545587812143
63864.02649481895,167280.0,141227.0,13470.0,7.561654751923925
63864.036603983055,167244.0,141199.0,13435.0,7.571763916028431
63864.04671314716,167209.0,141185.0,13428.0,7.581873080132937
63864.05682231127,167227.0,141226.0,13419.0,7.5919822442447185
63864.066931475376,167228.0,141180.0,13438.0,7.602091408349224
63864.07704063948,167237.0,141196.0,13418.0,7.61220057245373
63864.08714980359,167249.0,141202.0,13436.0,7.622309736565512
63864.0972589677,167225.0,141188.0,13428.0,7.632418900670018
63864.1073681318,167194.0,141190.0,13397.0,7.642528064774524
63864.11747729591,167202.0,141168.0,13407.0,7.652637228886306
63864.12758646002,167185.0,141160.0,13395.0,7.662746392990812
63864.13769562412,167191.0,141170.0,13373.0,7.672855557095318
63864.147804788234,167169.0,141132.0,13393.0,7.6829647212070995
63864.15791395234,167184.0,141169.0,13400.0,7.693073885311605
63864.16802311644,167188.0,141183.0,13415.0,7.703183049416111
63864.178132280555,167173.0,141151.0,13421.0,7.713292213527893
63864.18824144466,167147.0,141140.0,13388.0,7.723401377632399
63864.19835060876,167176.0,141149.0,13374.0,7.733510541736905
63864.208459772875,167144.0,141166.0,13414.0,7.743619705848687
63864.21856893698,167153.0,141156.0,13379.0,7.753728869953193
63864.228678101084,167156.0,141138.0,13405.0,7.763838034057699
63864.238787265196,167180.0,141172.0,13422.0,7.7739471981694805
63864.2488964293,167182.0,141205.0,13400.0,7.7840563622739865
63864.259005593405,167157.0,141170.0,13407.0,7.794165526378492
63864.26911475752,167203.0,141180.0,13437.0,7.804274690490274
63864.27922392162,167173.0,141156.0,13410.0,7.81438385459478
63864.289333085726,167200.0,141197.0,13398.0,7.824493018699286
63864.29944224983,167211.0,141150.0,13404.0,7.834602182803792
63864.30955141394,167220.0,141203.0,13404.0,7.844711346915574
63864.31966057805,167219.0,141204.0,13398.0,7.85482051102008
63864.32976974215,167214.0,141182.0,13400.0,7.864929675124586
63864.33987890626,167200.0,141201.0,13422.0,7.8750388392363675
63864.34998807037,167206.0,141183.0,13396.0,7.885148003340873
63864.36009723447,167207.0,141198.0,13411.0,7.895257167445379
63864.370206398584,167197.0,141177.0,13412.0,7.905366331557161
63864.38031556269,167182.0,141169.0,13432.0,7.915475495661667
63864.39042472679,167167.0,141202.0,13415.0,7.925584659766173
63864.400533890905,167216.0,141185.0,13437.0,7.935693823877955
63864.41064305501,167196.0,141177.0,13410.0,7.945802987982461
63864.42075221911,167214.0,141176.0,13440.0,7.955912152086967
63864.430861383225,167201.0,141150.0,13404.0,7.9660213161987485
63864.44097054733,167197.0,141175.0,13411.0,7.9761304803032544
63864.451079711434,167204.0,141182.0,13411.0,7.98623964440776
63864.461188875546,167223.0,141193.0,13412.0,7.996348808519542
63864.47129803965,167228.0,141215.0,13429.0,8.006457972624048
63864.481407203755,167191.0,141172.0,13399.0,8.016567136728554
63864.49151636787,167219.0,141183.0,13399.0,8.026676300840336
63864.50162553197,167245.0,141192.0,13440.0,8.036785464944842
63864.511734696076,167232.0,141185.0,13425.0,8.046894629049348
63864.52184386019,167202.0,141169.0,13398.0,8.05700379316113
63864.53195302429,167220.0,141200.0,13402.0,8.067112957265635
63864.5420621884,167241.0,141201.0,13402.0,8.077222121370141
63864.55217135251,167201.0,141169.0,13414.0,8.087331285481923
63864.56228051661,167189.0,141155.0,13402.0,8.09744044958643
63864.57238968072,167233.0,141187.0,13417.0,8.107549613690935
63864.58249884483,167175.0,141203.0,13428.0,8.117658777802717
63864.592608008934,167209.0,141164.0,13416.0,8.127767941907223
63864.60271717304,167209.0,141165.0,13418.0,8.137877106011729
63864.61282633714,167227.0,141189.0,13428.0,8.147986270116235
63864.622935501255,167243.0,141160.0,13425.0,8.158095434228017
63864.63304466536,167231.0,141153.0,13416.0,8.168204598332522
63864.643153829464,167243.0,141173.0,13413.0,8.178313762437028
63864.653262993575,167234.0,141192.0,13426.0,8.18842292654881
63864.66337215768,167249.0,141209.0,13447.0,8.198532090653316
63864.673481321784,167263.0,141223.0,13461.0,8.208641254757822
63864.683590485896,167243.0,141207.0,13438.0,8.218750418869604
63864.69369965,167250.0,141205.0,13429.0,8.22885958297411
63864.703808814105,167255.0,141228.0,13448.0,8.238968747078616
63864.71391797822,167266.0,141227.0,13454.0,8.249077911190398
63864.72402714232,167251.0,141201.0,13433.0,8.259187075294903
63864.734136306426,167233.0,141189.0,13411.0,8.26929623939941
63864.74424547054,167285.0,141215.0,13438.0,8.279405403511191
63864.75435463464,167225.0,141199.0,13415.0,8.289514567615697
63864.76446379875,167257.0,141218.0,13453.0,8.299623731720203
63864.77457296286,167269.0,141212.0,13431.0,8.309732895831985
63864.78468212696,167265.0,141181.0,13422.0,8.31984205993649
63864.79479129107,167245.0,141200.0,13412.0,8.329951224040997
63864.80490045518,167271.0,141171.0,13458.0,8.340060388152779
63864.815009619284,167230.0,141205.0,13434.0,8.350169552257285
63864.82511878339,167245.0,141173.0,13446.0,8.36027871636179
63864.8352279475,167193.0,141177.0,13391.0,8.370387880473572
63864.845337111605,167220.0,141189.0,13430.0,8.380497044578078
63864.85544627571,167183.0,141166.0,13410.0,8.390606208682584
63864.86555543982,167182.0,141146.0,13378.0,8.400715372794366
63864.875664603926,167128.0,141132.0,13374.0,8.410824536898872
63864.88577376803,167149.0,141148.0,13381.0,8.420933701003378
63864.89588293214,167183.0,141153.0,13419.0,8.43104286511516
63864.905992096246,167177.0,141156.0,13388.0,8.441152029219666
63864.91610126035,167163.0,141145.0,13390.0,8.451261193324171
63864.926210424455,167163.0,141127.0,13391.0,8.461370357428677
63864.93631958857,167157.0,141154.0,13376.0,8.47147952154046
63864.94642875267,167186.0,141146.0,13390.0,8.481588685644965
63864.956537916776,167196.0,141133.0,13379.0,8.491697849749471
63864.96664708089,167154.0,141151.0,13380.0,8.501807013861253
63864.97675624499,167187.0,141177.0,13376.0,8.511916177965759
63864.9868654091,167176.0,141156.0,13391.0,8.522025342070265
63864.99697457321,167121.0,141137.0,13405.0,8.532134506182047
63865.00708373731,167140.0,141127.0,13402.0,8.542243670286553
63865.01719290142,167136.0,141160.0,13385.0,8.552352834391058
63865.02730206553,167186.0,141161.0,13401.0,8.56246199850284
63865.037411229634,167209.0,141180.0,13417.0,8.572571162607346
63865.04752039374,167183.0,141160.0,13383.0,8.582680326711852
63865.05762955785,167187.0,141151.0,13380.0,8.592789490823634
63865.067738721955,167184.0,141159.0,13403.0,8.60289865492814
63865.07784788606,167211.0,141176.0,13397.0,8.613007819032646
63865.08795705017,167201.0,141174.0,13423.0,8.623116983144428
63865.098066214276,167153.0,141139.0,13384.0,8.633226147248934
63865.10817537838,167191.0,141171.0,13402.0,8.64333531135344
63865.11828454249,167185.0,141193.0,13414.0,8.653444475465221
63865.1283937066,167210.0,141171.0,13437.0,8.663553639569727
63865.1385028707,167156.0,141112.0,13416.0,8.673662803674233
63865.14861203481,167182.0,141165.0,13409.0,8.683771967786015
63865.15872119892,167161.0,141147.0,13397.0,8.693881131890521
63865.16883036302,167187.0,141171.0,13397.0,8.703990295995027
63865.17893952713,167188.0,141163.0,13426.0,8.714099460106809
63865.18904869124,167201.0,141165.0,13401.0,8.724208624211315
63865.19915785534,167187.0,141148.0,13397.0,8.73431778831582
63865.209267019454,167202.0,141189.0,13407.0,8.744426952427602
63865.21937618356,167211.0,141196.0,13435.0,8.754536116532108
63865.22948534766,167196.0,141172.0,13409.0,8.764645280636614
63865.23959451177,167178.0,141151.0,13412.0,8.77475444474112
63865.24970367588,167216.0,141159.0,13411.0,8.784863608852902
63865.259812839984,167232.0,141186.0,13411.0,8.794972772957408
63865.26992200409,167189.0,141196.0,13364.0,8.805081937061914
63865.2800311682,167184.0,141160.0,13433.0,8.815191101173696
63865.290140332305,167209.0,141172.0,13407.0,8.825300265278202
63865.30024949641,167222.0,141200.0,13420.0,8.835409429382707
63865.31035866052,167191.0,141182.0,13408.0,8.84551859349449
63865.320467824626,167218.0,141170.0,13410.0,8.855627757598995
63865.33057698873,167196.0,141181.0,13403.0,8.865736921703501
63865.34068615284,167234.0,141171.0,13420.0,8.875846085815283
63865.35079531695,167199.0,141173.0,13425.0,8.885955249919789
63865.36090448105,167224.0,141195.0,13422.0,8.896064414024295
63865.37101364516,167224.0,141174.0,13422.0,8.906173578136077
63865.38112280927,167267.0,141224.0,13436.0,8.916282742240583
63865.39123197337,167254.0,141223.0,13445.0,8.926391906345089
63865.40134113748,167224.0,141179.0,13435.0,8.93650107045687
63865.41145030159,167196.0,141161.0,13401.0,8.946610234561376
63865.42155946569,167220.0,141178.0,13408.0,8.956719398665882
63865.431668629804,167246.0,141205.0,13451.0,8.966828562777664
63865.44177779391,167233.0,141189.0,13415.0,8.97693772688217
63865.45188695801,167220.0,141188.0,13454.0,8.987046890986676
63865.461996122125,167210.0,141190.0,13407.0,8.997156055098458
63865.47210528623,167266.0,141222.0,13433.0,9.007265219202964
63865.482214450334,167247.0,141200.0,13432.0,9.01737438330747
63865.492323614446,167271.0,141212.0,13429.0,9.027483547419251
63865.50243277855,167230.0,141195.0,13411.0,9.037592711523757
63865.512541942655,167254.0,141203.0,13406.0,9.047701875628263
63865.52265110677,167250.0,141203.0,13427.0,9.057811039740045
63865.53276027087,167277.0,141221.0,13453.0,9.067920203844551
63865.542869434976,167219.0,141188.0,13423.0,9.078029367949057
63865.55297859908,167213.0,141197.0,13432.0,9.088138532053563
63865.56308776319,167257.0,141196.0,13429.0,9.098247696165345
63865.5731969273,167285.0,141189.0,13455.0,9.10835686026985
63865.5833060914,167269.0,141187.0,13449.0,9.118466024374356
63865.59341525551,167228.0,141188.0,13406.0,9.128575188486138
63865.60352441962,167258.0,141209.0,13430.0,9.138684352590644
63865.61363358372,167268.0,141192.0,13415.0,9.14879351669515
63865.62374274783,167295.0,141225.0,13452.0,9.158902680806932
63865.63385191194,167240.0,141187.0,13439.0,9.169011844911438
63865.64396107604,167275.0,141203.0,13413.0,9.179121009015944
63865.654070240154,167228.0,141194.0,13434.0,9.189230173127726
63865.66417940426,167282.0,141195.0,13471.0,9.199339337232232
63865.67428856836,167250.0,141157.0,13433.0,9.209448501336738
63865.684397732475,167183.0,141170.0,13394.0,9.21955766544852
63865.69450689658,167216.0,141166.0,13421.0,9.229666829553025
63865.704616060684,167224.0,141149.0,13391.0,9.239775993657531
63865.714725224796,167189.0,141132.0,13393.0,9.249885157769313
63865.7248343889,167142.0,141116.0,13374.0,9.259994321873819
63865.734943553005,167168.0,141148.0,13392.0,9.270103485978325
63865.74505271712,167136.0,141140.0,13357.0,9.280212650090107
63865.75516188122,167188.0,141155.0,13409.0,9.290321814194613
63865.765271045326,167162.0,141136.0,13382.0,9.300430978299119
63865.77538020944,167160.0,141135.0,13383.0,9.3105401424109
63865.78548937354,167158.0,141130.0,13373.0,9.320649306515406
63865.79559853765,167176.0,141180.0,13407.0,9.330758470619912
63865.80570770176,167191.0,141163.0,13434.0,9.340867634731694
63865.81581686586,167161.0,141145.0,13391.0,9.3509767988362
63865.82592602997,167132.0,141149.0,13368.0,9.361085962940706
63865.83603519408,167150.0,141169.0,13391.0,9.371195127052488
63865.846144358184,167174.0,141173.0,13392.0,9.381304291156994
63865.85625352229,167162.0,141147.0,13377.0,9.3914134552615
63865.86636268639,167143.0,141131.0,13373.0,9.401522619366006
63865.876471850504,167174.0,141128.0,13426.0,9.411631783477787
63865.88658101461,167202.0,141169.0,13393.0,9.421740947582293
63865.89669017871,167173.0,141144.0,13394.0,9.4318501116868
63865.906799342825,167172.0,141155.0,13405.0,9.441959275798581
63865.91690850693,167151.0,141132.0,13393.0,9.452068439903087
63865.927017671034,167146.0,141169.0,13378.0,9.462177604007593
63865.937126835146,167179.0,141162.0,13412.0,9.472286768119375
63865.94723599925,167203.0,141155.0,13397.0,9.48239593222388
63865.957345163355,167173.0,141145.0,13406.0,9.492505096328387
63865.96745432747,167144.0,141140.0,13382.0,9.502614260440168
63865.97756349157,167182.0,141152.0,13390.0,9.512723424544674
63865.987672655676,167181.0,141153.0,13382.0,9.52283258864918
63865.99778181979,167163.0,141151.0,13368.0,9.532941752760962
63866.00789098389,167177.0,141169.0,13390.0,9.543050916865468
63866.018000148,167191.0,141177.0,13394.0,9.553160080969974
63866.02810931211,167190.0,141191.0,13404.0,9.563269245081756
63866.03821847621,167207.0,141151.0,13424.0,9.573378409186262
63866.04832764032,167179.0,141166.0,13376.0,9.583487573290768
63866.05843680443,167182.0,141169.0,13391.0,9.59359673740255
63866.068545968534,167196.0,141171.0,13405.0,9.603705901507055
63866.07865513264,167174.0,141132.0,13400.0,9.613815065611561
63866.08876429675,167174.0,141140.0,13390.0,9.623924229723343
63866.098873460855,167188.0,141168.0,13407.0,9.634033393827849
63866.10898262496,167192.0,141204.0,13406.0,9.644142557932355
63866.11909178907,167204.0,141148.0,13406.0,9.654251722044137
63866.129200953175,167214.0,141162.0,13432.0,9.664360886148643
63866.13931011728,167200.0,141164.0,13400.0,9.674470050253149
63866.149419281384,167198.0,141174.0,13416.0,9.684579214357655
63866.159528445496,167194.0,141143.0,13403.0,9.694688378469436
63866.1696376096,167193.0,141166.0,13415.0,9.704797542573942
63866.179746773705,167191.0,141159.0,13400.0,9.714906706678448
63866.18985593782,167207.0,141187.0,13413.0,9.72501587079023
63866.19996510192,167255.0,141189.0,13431.0,9.735125034894736
63866.210074266026,167205.0,141159.0,13435.0,9.745234198999242
63866.22018343014,167171.0,141159.0,13403.0,9.755343363111024
63866.23029259424,167205.0,141182.0,13414.0,9.76545252721553
63866.24040175835,167206.0,141178.0,13405.0,9.775561691320036
63866.25051092246,167244.0,141188.0,13419.0,9.785670855431817
63866.26062008656,167225.0,141206.0,13434.0,9.795780019536323
63866.27072925067,167217.0,141184.0,13418.0,9.80588918364083
63866.28083841478,167193.0,141187.0,13399.0,9.815998347752611
63866.290947578884,167214.0,141199.0,13401.0,9.826107511857117
63866.30105674299,167203.0,141159.0,13403.0,9.836216675961623
63866.3111659071,167219.0,141181.0,13419.0,9.846325840073405
63866.321275071205,167205.0,141159.0,13407.0,9.85643500417791
63866.33138423531,167231.0,141185.0,13403.0,9.866544168282417
63866.34149339942,167245.0,141218.0,13439.0,9.876653332394199
63866.351602563525,167229.0,141196.0,13425.0,9.886762496498704
63866.36171172763,167210.0,141200.0,13428.0,9.89687166060321
63866.37182089174,167214.0,141192.0,13419.0,9.906980824714992
63866.381930055846,167242.0,141223.0,13438.0,9.917089988819498
63866.39203921995,167241.0,141184.0,13418.0,9.927199152924004
63866.40214838406,167212.0,141171.0,13422.0,9.937308317035786
63866.41225754817,167223.0,141185.0,13406.0,9.947417481140292
63866.42236671227,167278.0,141219.0,13406.0,9.957526645244798
63866.43247587638,167237.0,141186.0,13455.0,9.96763580935658
63866.44258504049,167231.0,141204.0,13440.0,9.977744973461085
63866.45269420459,167225.0,141191.0,13432.0,9.987854137565591
63866.462803368704,167238.0,141192.0,13409.0,9.997963301677373
63866.47291253281,167261.0,141201.0,13473.0,10.00807246578188
63866.48302169691,167248.0,141215.0,13423.0,10.018181629886385
63866.49313086102,167259.0,141192.0,13431.0,10.028290793990891
63866.50324002513,167265.0,141178.0,13435.0,10.038399958102673
63866.513349189234,167277.0,141218.0,13432.0,10.048509122207179
63866.52345835334,167262.0,141208.0,13430.0,10.058618286311685
63866.53356751745,167259.0,141211.0,13465.0,10.068727450423467
63866.543676681555,167248.0,141169.0,13420.0,10.078836614527972
63866.55378584566,167246.0,141207.0,13420.0,10.088945778632478
63866.56389500977,167266.0,141192.0,13438.0,10.09905494274426
63866.574004173875,167290.0,141204.0,13447.0,10.109164106848766
63866.58411333798,167269.0,141178.0,13438.0,10.119273270953272
63866.59422250209,167245.0,141189.0,13426.0,10.129382435065054
63866.604331666196,167260.0,141197.0,13425.0,10.13949159916956
63866.6144408303,167246.0,141202.0,13417.0,10.149600763274066
63866.62454999441,167211.0,141139.0,13407.0,10.159709927385848
63866.63465915852,167184.0,141132.0,13403.0,10.169819091490353
63866.64476832262,167204.0,141159.0,13401.0,10.17992825559486
63866.65487748673,167163.0,141142.0,13383.0,10.190037419706641
63866.66498665084,167189.0,141166.0,13411.0,10.200146583811147
63866.67509581494,167177.0,141125.0,13397.0,10.210255747915653
63866.685204979054,167169.0,141138.0,13388.0,10.220364912027435
63866.69531414316,167169.0,141132.0,13364.0,10.23047407613194
63866.70542330726,167177.0,141176.0,13399.0,10.240583240236447
63866.715532471375,167148.0,141115.0,13376.0,10.250692404348229
63866.72564163548,167182.0,141149.0,13382.0,10.260801568452735
63866.735750799584,167130.0,141136.0,13369.0,10.27091073255724
63866.745859963696,167140.0,141174.0,13397.0,10.281019896669022
63866.7559691278,167187.0,141165.0,13406.0,10.291129060773528
63866.766078291905,167171.0,141155.0,13388.0,10.301238224878034
63866.77618745601,167156.0,141123.0,13368.0,10.31134738898254
63866.78629662012,167185.0,141163.0,13398.0,10.321456553094322
63866.796405784225,167190.0,141178.0,13401.0,10.331565717198828
63866.80651494833,167178.0,141149.0,13368.0,10.341674881303334
63866.81662411244,167166.0,141153.0,13400.0,10.351784045415116
63866.826733276546,167174.0,141169.0,13378.0,10.361893209519621
63866.83684244065,167152.0,141174.0,13398.0,10.372002373624127
63866.84695160476,167191.0,141152.0,13397.0,10.38211153773591
63866.85706076887,167167.0,141157.0,13391.0,10.392220701840415
63866.86716993297,167154.0,141149.0,13383.0,10.402329865944921
63866.87727909708,167176.0,141123.0,13383.0,10.412439030056703
63866.88738826119,167201.0,141184.0,13402.0,10.422548194161209
63866.89749742529,167189.0,141157.0,13388.0,10.432657358265715
63866.907606589404,167166.0,141155.0,13417.0,10.442766522377497
63866.91771575351,167167.0,141152.0,13377.0,10.452875686482002
63866.92782491761,167192.0,141193.0,13424.0,10.462984850586508
63866.937934081725,167179.0,141153.0,13382.0,10.47309401469829
63866.94804324583,167209.0,141162.0,13384.0,10.483203178802796
63866.958152409934,167196.0,141147.0,13402.0,10.493312342907302
63866.968261574046,167207.0,141160.0,13392.0,10.503421507019084
63866.97837073815,167184.0,141167.0,13391.0,10.51353067112359
63866.988479902255,167221.0,141202.0,13407.0,10.523639835228096
63866.99858906637,167172.0,141200.0,13412.0,10.533748999339878
63867.00869823047,167199.0,141151.0,13412.0,10.543858163444384
63867.018807394576,167186.0,141155.0,13398.0,10.55396732754889
63867.02891655869,167184.0,141190.0,13403.0,10.564076491660671
63867.03902572279,167194.0,141154.0,13393.0,10.574185655765177
63867.049134886896,167209.0,141176.0,13376.0,10.584294819869683
63867.05924405101,167194.0,141182.0,13396.0,10.594403983981465
63867.06935321511,167203.0,141180.0,13404.0,10.604513148085971
63867.07946237922,167230.0,141201.0,13381.0,10.614622312190477
63867.08957154333,167202.0,141160.0,13392.0,10.624731476302259
63867.09968070743,167207.0,141193.0,13403.0,10.634840640406765
63867.10978987154,167178.0,141159.0,13424.0,10.64494980451127
63867.11989903564,167227.0,141165.0,13425.0,10.655058968615776
63867.130008199754,167192.0,141153.0,13396.0,10.665168132727558
63867.14011736386,167216.0,141163.0,13392.0,10.675277296832064
63867.15022652796,167203.0,141179.0,13384.0,10.68538646093657
63867.160335692075,167211.0,141150.0,13410.0,10.695495625048352
63867.17044485618,167230.0,141193.0,13425.0,10.705604789152858
63867.180554020284,167220.0,141187.0,13395.0,10.715713953257364
63867.190663184396,167194.0,141191.0,13422.0,10.725823117369146
63867.2007723485,167241.0,141189.0,13428.0,10.735932281473652
63867.210881512605,167194.0,141163.0,13402.0,10.746041445578157
63867.22099067672,167217.0,141190.0,13386.0,10.75615060968994
63867.23109984082,167227.0,141175.0,13415.0,10.766259773794445
63867.241209004926,167232.0,141194.0,13405.0,10.776368937898951
63867.25131816904,167250.0,141182.0,13437.0,10.786478102010733
63867.26142733314,167263.0,141208.0,13395.0,10.796587266115239
63867.27153649725,167204.0,141194.0,13398.0,10.806696430219745
63867.28164566136,167221.0,141185.0,13418.0,10.816805594331527
63867.29175482546,167229.0,141161.0,13396.0,10.826914758436033
63867.30186398957,167199.0,141210.0,13414.0,10.837023922540538
63867.31197315368,167232.0,141182.0,13430.0,10.84713308665232
63867.32208231778,167235.0,141163.0,13421.0,10.857242250756826
63867.33219148189,167264.0,141208.0,13428.0,10.867351414861332
63867.342300646,167255.0,141202.0,13425.0,10.877460578973114
63867.352409810104,167250.0,141208.0,13426.0,10.88756974307762
63867.36251897421,167236.0,141199.0,13434.0,10.897678907182126
63867.37262813832,167234.0,141183.0,13400.0,10.907788071293908
63867.382737302425,167268.0,141187.0,13442.0,10.917897235398414
63867.39284646653,167260.0,141192.0,13431.0,10.92800639950292
63867.402955630634,167252.0,141167.0,13414.0,10.938115563607425
63867.413064794746,167283.0,141202.0,13452.0,10.948224727719207
63867.42317395885,167235.0,141192.0,13414.0,10.958333891823713
63867.433283122955,167249.0,141191.0,13426.0,10.968443055928219
63867.44339228707,167230.0,141188.0,13437.0,10.978552220040001
63867.45350145117,167255.0,141187.0,13426.0,10.988661384144507
63867.463610615276,167275.0,141213.0,13411.0,10.998770548249013
63867.47371977939,167273.0,141205.0,13428.0,11.008879712360795
63867.48382894349,167293.0,141202.0,13448.0,11.0189888764653
63867.4939381076,167234.0,141171.0,13442.0,11.029098040569806
63867.50404727171,167255.0,141208.0,13439.0,11.039207204681588
63867.51415643581,167245.0,141181.0,13415.0,11.049316368786094
63867.52426559992,167240.0,141197.0,13442.0,11.0594255328906
63867.53437476403,167162.0,141145.0,13360.0,11.069534697002382
63867.54448392813,167161.0,141120.0,13415.0,11.079643861106888
63867.55459309224,167189.0,141146.0,13366.0,11.089753025211394
63867.56470225635,167145.0,141141.0,13409.0,11.099862189323176
63867.574811420454,167189.0,141141.0,13374.0,11.109971353427682
63867.58492058456,167149.0,141158.0,13387.0,11.120080517532188
63867.59502974867,167129.0,141146.0,13358.0,11.13018968164397
63867.605138912775,167181.0,141128.0,13373.0,11.140298845748475
63867.61524807688,167194.0,141150.0,13352.0,11.150408009852981
63867.62535724099,167165.0,141122.0,13371.0,11.160517173964763
63867.635466405096,167156.0,141147.0,13370.0,11.170626338069269
63867.6455755692,167178.0,141143.0,13382.0,11.180735502173775
63867.65568473331,167168.0,141140.0,13383.0,11.190844666285557
63867.66579389742,167175.0,141156.0,13366.0,11.200953830390063
63867.67590306152,167153.0,141136.0,13391.0,11.211062994494569
63867.68601222563,167175.0,141148.0,13393.0,11.22117215860635
63867.69612138974,167142.0,141127.0,13354.0,11.231281322710856
63867.70623055384,167155.0,141151.0,13373.0,11.241390486815362
63867.716339717954,167160.0,141167.0,13382.0,11.251499650927144
63867.72644888206,167182.0,141156.0,13376.0,11.26160881503165
63867.73655804616,167158.0,141136.0,13375.0,11.271717979136156
63867.74666721027,167200.0,141143.0,13412.0,11.281827143240662
63867.75677637438,167198.0,141166.0,13388.0,11.291936307352444
63867.76688553848,167192.0,141165.0,13395.0,11.30204547145695
63867.77699470259,167199.0,141146.0,13398.0,11.312154635561456
63867.7871038667,167212.0,141187.0,13393.0,11.322263799673237
63867.797213030804,167193.0,141180.0,13361.0,11.332372963777743
63867.80732219491,167219.0,141160.0,13403.0,11.34248212788225
63867.81743135902,167179.0,141179.0,13414.0,11.352591291994031
63867.827540523125,167196.0,141178.0,13417.0,11.362700456098537
63867.83764968723,167216.0,141153.0,13414.0,11.372809620203043
63867.84775885134,167200.0,141165.0,13383.0,11.382918784314825
63867.857868015446,167217.0,141175.0,13402.0,11.39302794841933
63867.86797717955,167212.0,141147.0,13411.0,11.403137112523837
63867.87808634366,167204.0,141147.0,13372.0,11.413246276635618
63867.88819550777,167200.0,141166.0,13393.0,11.423355440740124
63867.89830467187,167207.0,141167.0,13379.0,11.43346460484463
63867.90841383598,167216.0,141184.0,13425.0,11.443573768956412
63867.91852300009,167179.0,141169.0,13385.0,11.453682933060918
63867.92863216419,167200.0,141179.0,13389.0,11.463792097165424
63867.938741328304,167183.0,141185.0,13405.0,11.473901261277206
63867.94885049241,167188.0,141132.0,13381.0,11.484010425381712
63867.95895965651,167196.0,141144.0,13396.0,11.494119589486218
63867.969068820625,167192.0,141166.0,13373.0,11.504228753598
63867.97917798473,167235.0,141151.0,13416.0,11.514337917702505
63867.989287148834,167236.0,141199.0,13415.0,11.524447081807011
63867.999396312945,167210.0,141190.0,13439.0,11.534556245918793
63868.00950547705,167215.0,141157.0,13392.0,11.544665410023299
63868.019614641154,167232.0,141190.0,13417.0,11.554774574127805
63868.02972380526,167222.0,141156.0,13404.0,11.56488373823231
63868.03983296937,167248.0,141182.0,13413.0,11.574992902344093
63868.049942133475,167227.0,141178.0,13398.0,11.585102066448599
63868.06005129758,167242.0,141181.0,13416.0,11.595211230553105
63868.07016046169,167263.0,141192.0,13425.0,11.605320394664886
63868.080269625796,167256.0,141185.0,13418.0,11.615429558769392
63868.0903787899,167235.0,141177.0,13443.0,11.625538722873898
63868.10048795401,167240.0,141182.0,13417.0,11.63564788698568
63868.11059711812,167237.0,141200.0,13401.0,11.645757051090186
63868.12070628222,167222.0,141199.0,13425.0,11.655866215194692
63868.13081544633,167254.0,141186.0,13407.0,11.665975379306474
63868.14092461044,167254.0,141199.0,13415.0,11.67608454341098
63868.15103377454,167236.0,141194.0,13414.0,11.686193707515486
63868.161142938654,167263.0,141180.0,13442.0,11.696302871627267
63868.17125210276,167243.0,141224.0,13440.0,11.706412035731773
63868.18136126686,167249.0,141197.0,13418.0,11.71652119983628
63868.191470430975,167234.0,141189.0,13401.0,11.726630363948061
63868.20157959508,167260.0,141213.0,13436.0,11.736739528052567
63868.211688759184,167266.0,141194.0,13439.0,11.746848692157073
63868.221797923296,167263.0,141198.0,13418.0,11.756957856268855
63868.2319070874,167251.0,141196.0,13398.0,11.76706702037336
63868.242016251505,167247.0,141186.0,13422.0,11.777176184477867
63868.252125415616,167293.0,141207.0,13440.0,11.787285348589648
63868.26223457972,167268.0,141194.0,13423.0,11.797394512694154
63868.272343743825,167258.0,141181.0,13442.0,11.80750367679866
63868.28245290794,167271.0,141179.0,13412.0,11.817612840910442
63868.29256207204,167291.0,141206.0,13430.0,11.827722005014948
63868.302671236146,167300.0,141207.0,13432.0,11.837831169119454
63868.31278040026,167277.0,141212.0,13431.0,11.847940333231236
63868.32288956436,167259.0,141205.0,13421.0,11.858049497335742
63868.33299872847,167293.0,141200.0,13397.0,11.868158661440248
63868.34310789258,167281.0,141212.0,13420.0,11.87826782555203
63868.35321705668,167267.0,141201.0,13422.0,11.888376989656535
63868.36332622079,167214.0,141151.0,13395.0,11.898486153761041
63868.37343538489,167206.0,141175.0,13375.0,11.908595317865547
63868.383544549004,167252.0,141170.0,13416.0,11.91870448197733
63868.39365371311,167216.0,141168.0,13397.0,11.928813646081835
63868.40376287721,167214.0,141145.0,13385.0,11.938922810186341
63868.413872041325,167204.0,141129.0,13387.0,11.949031974298123
63868.42398120543,167216.0,141164.0,13368.0,11.959141138402629
63868.434090369534,167217.0,141152.0,13390.0,11.969250302507135
63868.444199533646,167188.0,141168.0,13406.0,11.979359466618916
63868.45430869775,167183.0,141131.0,13359.0,11.989468630723422
63868.464417861855,167183.0,141156.0,13368.0,11.999577794827928
63868.47452702597,167204.0,141166.0,13395.0,12.00968695893971
63868.48463619007,167230.0,141170.0,13418.0,12.019796123044216
63868.494745354175,167232.0,141158.0,13399.0,12.029905287148722
63868.50485451829,167196.0,141155.0,13385.0,12.040014451260504
63868.51496368239,167228.0,141164.0,13392.0,12.05012361536501
63868.525072846496,167228.0,141190.0,13380.0,12.060232779469516
63868.53518201061,167216.0,141157.0,13401.0,12.070341943581298
63868.54529117471,167238.0,141208.0,13419.0,12.080451107685803
63868.55540033882,167220.0,141175.0,13405.0,12.09056027179031
63868.56550950293,167216.0,141188.0,13387.0,12.100669435902091
63868.57561866703,167262.0,141199.0,13407.0,12.110778600006597
63868.58572783114,167219.0,141159.0,13394.0,12.120887764111103
63868.59583699525,167242.0,141183.0,13402.0,12.130996928222885
63868.605946159354,167224.0,141184.0,13387.0,12.14110609232739
63868.61605532346,167250.0,141199.0,13411.0,12.151215256431897
63868.62616448757,167217.0,141180.0,13390.0,12.161324420543679
63868.636273651675,167230.0,141163.0,13400.0,12.171433584648184
63868.64638281578,167231.0,141174.0,13396.0,12.18154274875269
63868.656491979884,167259.0,141189.0,13412.0,12.191651912857196
63868.666601143996,167222.0,141188.0,13396.0,12.201761076968978
63868.6767103081,167234.0,141179.0,13399.0,12.211870241073484
63868.686819472205,167220.0,141168.0,13374.0,12.22197940517799
63868.69692863632,167239.0,141170.0,13407.0,12.232088569289772
63868.70703780042,167218.0,141164.0,13409.0,12.242197733394278
63868.717146964525,167244.0,141181.0,13379.0,12.252306897498784
63868.72725612864,167238.0,141152.0,13431.0,12.262416061610566
63868.73736529274,167249.0,141205.0,13415.0,12.272525225715071
63868.747474456846,167240.0,141217.0,13423.0,12.282634389819577
63868.75758362096,167209.0,141183.0,13396.0,12.29274355393136
63868.76769278506,167259.0,141175.0,13414.0,12.302852718035865
63868.77780194917,167240.0,141191.0,13402.0,12.312961882140371
63868.78791111328,167274.0,141180.0,13415.0,12.323071046252153
63868.79802027738,167283.0,141163.0,13427.0,12.333180210356659
63868.80812944149,167270.0,141192.0,13405.0,12.343289374461165
63868.8182386056,167225.0,141189.0,13412.0,12.353398538572947
63868.828347769704,167275.0,141198.0,13411.0,12.363507702677452
63868.83845693381,167279.0,141192.0,13430.0,12.373616866781958
63868.84856609792,167277.0,141197.0,13411.0,12.38372603089374
63868.858675262025,167232.0,141180.0,13387.0,12.393835194998246
63868.86878442613,167268.0,141197.0,13404.0,12.403944359102752
63868.87889359024,167288.0,141225.0,13436.0,12.414053523214534
63868.889002754346,167273.0,141186.0,13422.0,12.42416268731904
63868.89911191845,167247.0,141214.0,13430.0,12.434271851423546
63868.90922108256,167247.0,141196.0,13398.0,12.444381015535328
63868.91933024667,167267.0,141205.0,13411.0,12.454490179639834
63868.92943941077,167268.0,141188.0,13416.0,12.46459934374434
63868.93954857488,167300.0,141199.0,13423.0,12.474708507856121
63868.94965773899,167263.0,141190.0,13411.0,12.484817671960627
63868.95976690309,167285.0,141225.0,13431.0,12.494926836065133
63868.9698760672,167291.0,141200.0,13422.0,12.505036000176915
63868.97998523131,167275.0,141231.0,13444.0,12.51514516428142
63868.99009439541,167265.0,141177.0,13424.0,12.525254328385927
63869.00020355952,167245.0,141197.0,13408.0,12.535363492490433
63869.01031272363,167286.0,141201.0,13424.0,12.545472656602215
63869.02042188773,167254.0,141172.0,13401.0,12.55558182070672
63869.03053105184,167296.0,141198.0,13444.0,12.565690984811226
63869.04064021595,167278.0,141166.0,13415.0,12.575800148923008
63869.050749380054,167276.0,141198.0,13415.0,12.585909313027514
63869.06085854416,167326.0,141231.0,13405.0,12.59601847713202
63869.07096770827,167300.0,141215.0,13427.0,12.606127641243802
63869.081076872375,167270.0,141168.0,13434.0,12.616236805348308
63869.09118603648,167294.0,141199.0,13400.0,12.626345969452814
63869.10129520059,167268.0,141209.0,13426.0,12.636455133564596
63869.111404364696,167323.0,141221.0,13435.0,12.646564297669102
63869.1215135288,167289.0,141174.0,13420.0,12.656673461773607
63869.13162269291,167281.0,141208.0,13421.0,12.66678262588539
63869.14173185702,167313.0,141199.0,13450.0,12.676891789989895
63869.15184102112,167314.0,141214.0,13428.0,12.687000954094401
63869.16195018523,167290.0,141193.0,13417.0,12.697110118206183
63869.17205934934,167281.0,141186.0,13413.0,12.707219282310689
63869.18216851344,167300.0,141196.0,13433.0,12.717328446415195
63869.192277677554,167266.0,141191.0,13430.0,12.727437610526977
63869.20238684166,167296.0,141197.0,13429.0,12.737546774631483
63869.21249600576,167232.0,141166.0,13409.0,12.747655938735988
63869.222605169874,167257.0,141185.0,13411.0,12.75776510284777
63869.23271433398,167215.0,141143.0,13389.0,12.767874266952276
63869.24282349808,167266.0,141170.0,13411.0,12.777983431056782
63869.252932662195,167216.0,141146.0,13382.0,12.788092595168564
63869.2630418263,167225.0,141162.0,13386.0,12.79820175927307
63869.273150990404,167220.0,141146.0,13372.0,12.808310923377576
63869.28326015451,167189.0,141166.0,13392.0,12.818420087482082
63869.29336931862,167243.0,141152.0,13414.0,12.828529251593864
63869.303478482725,167224.0,141156.0,13390.0,12.83863841569837
63869.31358764683,167227.0,141137.0,13400.0,12.848747579802875
63869.32369681094,167210.0,141137.0,13376.0,12.858856743914657
63869.333805975046,167249.0,141207.0,13412.0,12.868965908019163
63869.34391513915,167232.0,141162.0,13395.0,12.879075072123669
63869.35402430326,167224.0,141146.0,13415.0,12.889184236235451
63869.36413346737,167252.0,141180.0,13400.0,12.899293400339957
63869.37424263147,167244.0,141192.0,13418.0,12.909402564444463
63869.38435179558,167244.0,141173.0,13405.0,12.919511728556245
63869.39446095969,167242.0,141168.0,13381.0,12.92962089266075
63869.40457012379,167205.0,141137.0,13411.0,12.939730056765256
63869.414679287904,167238.0,141200.0,13420.0,12.949839220877038
63869.42478845201,167230.0,141177.0,13404.0,12.959948384981544
63869.43489761611,167256.0,141196.0,13419.0,12.97005754908605
63869.445006780225,167217.0,141166.0,13432.0,12.980166713197832
63869.45511594433,167265.0,141205.0,13413.0,12.990275877302338
63869.46522510843,167241.0,141171.0,13401.0,13.000385041406844
63869.475334272545,167260.0,141163.0,13416.0,13.010494205518626
63869.48544343665,167229.0,141180.0,13408.0,13.020603369623132
63869.495552600754,167229.0,141166.0,13407.0,13.030712533727637
63869.505661764866,167255.0,141183.0,13411.0,13.04082169783942
63869.51577092897,167245.0,141180.0,13401.0,13.050930861943925
63869.525880093075,167279.0,141205.0,13436.0,13.061040026048431
63869.53598925719,167250.0,141154.0,13397.0,13.071149190160213
63869.54609842129,167241.0,141160.0,13432.0,13.081258354264719
63869.556207585396,167243.0,141197.0,13403.0,13.091367518369225
63869.56631674951,167274.0,141211.0,13410.0,13.101476682481007
63869.57642591361,167225.0,141178.0,13387.0,13.111585846585513
63869.58653507772,167250.0,141168.0,13390.0,13.121695010690019
63869.59664424183,167261.0,141204.0,13415.0,13.1318041748018
63869.60675340593,167268.0,141193.0,13416.0,13.141913338906306
63869.61686257004,167256.0,141172.0,13425.0,13.152022503010812
63869.62697173414,167237.0,141173.0,13403.0,13.162131667115318
63869.637080898254,167269.0,141186.0,13416.0,13.1722408312271
63869.64719006236,167252.0,141171.0,13411.0,13.182349995331606
63869.65729922646,167246.0,141175.0,13415.0,13.192459159436112
63869.667408390575,167268.0,141168.0,13414.0,13.202568323547894
63869.67751755468,167268.0,141184.0,13402.0,13.2126774876524
63869.68762671878,167258.0,141189.0,13404.0,13.222786651756905
63869.697735882895,167296.0,141186.0,13431.0,13.232895815868687
63869.707845047,167255.0,141185.0,13429.0,13.243004979973193
63869.717954211104,167270.0,141186.0,13417.0,13.2531141440777
63869.728063375216,167244.0,141192.0,13399.0,13.263223308189481
63869.73817253932,167273.0,141215.0,13447.0,13.273332472293987
63869.748281703425,167293.0,141216.0,13462.0,13.283441636398493
63869.75839086754,167287.0,141196.0,13422.0,13.293550800510275
63869.76850003164,167257.0,141179.0,13412.0,13.30365996461478
63869.778609195746,167305.0,141214.0,13452.0,13.313769128719287
63869.78871835986,167279.0,141203.0,13453.0,13.323878292831068
63869.79882752396,167280.0,141192.0,13418.0,13.333987456935574
63869.80893668807,167270.0,141192.0,13429.0,13.34409662104008
63869.81904585218,167244.0,141188.0,13409.0,13.354205785151862
63869.82915501628,167294.0,141203.0,13444.0,13.364314949256368
63869.83926418039,167277.0,141194.0,13416.0,13.374424113360874
63869.8493733445,167298.0,141180.0,13427.0,13.384533277472656
63869.859482508604,167312.0,141176.0,13418.0,13.394642441577162
63869.86959167271,167316.0,141214.0,13414.0,13.404751605681668
63869.87970083682,167293.0,141206.0,13406.0,13.41486076979345
63869.889810000925,167278.0,141194.0,13448.0,13.424969933897955
63869.89991916503,167268.0,141166.0,13423.0,13.435079098002461
63869.910028329134,167257.0,141196.0,13415.0,13.445188262106967
63869.920137493245,167297.0,141198.0,13459.0,13.455297426218749
63869.93024665735,167290.0,141216.0,13429.0,13.465406590323255
63869.940355821454,167254.0,141160.0,13391.0,13.47551575442776
63869.950464985566,167304.0,141175.0,13437.0,13.485624918539543
63869.96057414967,167300.0,141213.0,13455.0,13.495734082644049
63869.970683313775,167297.0,141201.0,13432.0,13.505843246748555
63869.98079247789,167278.0,141207.0,13427.0,13.515952410860336
63869.99090164199,167262.0,141179.0,13414.0,13.526061574964842
63870.001010806096,167287.0,141196.0,13407.0,13.536170739069348
63870.01111997021,167285.0,141196.0,13425.0,13.54627990318113
63870.02122913431,167327.0,141201.0,13456.0,13.556389067285636
63870.03133829842,167271.0,141163.0,13440.0,13.566498231390142
63870.04144746253,167244.0,141170.0,13408.0,13.576607395501924
63870.05155662663,167266.0,141178.0,13413.0,13.58671655960643
63870.06166579074,167213.0,141172.0,13414.0,13.596825723710936
63870.07177495485,167217.0,141131.0,13417.0,13.606934887822717
63870.081884118954,167191.0,141141.0,13381.0,13.617044051927223
63870.09199328306,167206.0,141150.0,13393.0,13.62715321603173
63870.10210244717,167199.0,141150.0,13400.0,13.637262380143511
63870.112211611275,167228.0,141155.0,13413.0,13.647371544248017
63870.12232077538,167192.0,141109.0,13373.0,13.657480708352523
63870.13242993949,167207.0,141141.0,13385.0,13.667589872464305
63870.142539103595,167199.0,141143.0,13374.0,13.67769903656881
63870.1526482677,167246.0,141178.0,13401.0,13.687808200673317
63870.16275743181,167180.0,141158.0,13374.0,13.697917364785098
63870.172866595916,167223.0,141152.0,13392.0,13.708026528889604
63870.18297576002,167242.0,141153.0,13400.0,13.71813569299411
63870.19308492413,167231.0,141182.0,13422.0,13.728244857105892
63870.20319408824,167227.0,141162.0,13422.0,13.738354021210398
63870.21330325234,167201.0,141129.0,13373.0,13.748463185314904
63870.22341241645,167205.0,141139.0,13381.0,13.758572349426686
63870.23352158056,167250.0,141171.0,13385.0,13.768681513531192
63870.24363074466,167189.0,141148.0,13385.0,13.778790677635698
63870.25373990877,167216.0,141156.0,13406.0,13.788899841740204
63870.26384907288,167211.0,141150.0,13404.0,13.799009005851985
63870.27395823698,167215.0,141177.0,13395.0,13.809118169956491
63870.28406740109,167229.0,141140.0,13404.0,13.819227334060997
63870.2941765652,167244.0,141158.0,13426.0,13.829336498172779
63870.304285729304,167236.0,141174.0,13403.0,13.839445662277285
63870.31439489341,167218.0,141157.0,13386.0,13.849554826381791
63870.32450405752,167238.0,141156.0,13399.0,13.859663990493573
63870.334613221625,167248.0,141187.0,13373.0,13.869773154598079
63870.34472238573,167236.0,141148.0,13412.0,13.879882318702585
63870.35483154984,167208.0,141158.0,13406.0,13.889991482814366
63870.364940713946,167261.0,141199.0,13405.0,13.900100646918872
63870.37504987805,167246.0,141189.0,13417.0,13.910209811023378
63870.38515904216,167230.0,141173.0,13399.0,13.92031897513516
63870.395268206266,167210.0,141131.0,13392.0,13.930428139239666
63870.40537737037,167214.0,141166.0,13394.0,13.940537303344172
63870.41548653448,167255.0,141155.0,13396.0,13.950646467455954
63870.42559569859,167232.0,141180.0,13414.0,13.96075563156046
63870.43570486269,167220.0,141194.0,13397.0,13.970864795664966
63870.4458140268,167233.0,141150.0,13392.0,13.980973959776748
63870.45592319091,167228.0,141174.0,13400.0,13.991083123881253
63870.46603235501,167246.0,141172.0,13409.0,14.00119228798576
63870.476141519124,167223.0,141154.0,13390.0,14.011301452097541
63870.48625068323,167254.0,141167.0,13412.0,14.021410616202047
63870.49635984733,167250.0,141167.0,13396.0,14.031519780306553
63870.506469011445,167260.0,141169.0,13413.0,14.041628944418335
63870.51657817555,167259.0,141183.0,13417.0,14.05173810852284
63870.526687339654,167255.0,141195.0,13395.0,14.061847272627347
63870.53679650376,167251.0,141188.0,13405.0,14.071956436731853
63870.54690566787,167249.0,141182.0,13414.0,14.082065600843634
63870.557014831975,167285.0,141186.0,13433.0,14.09217476494814
63870.56712399608,167227.0,141168.0,13430.0,14.102283929052646
63870.57723316019,167245.0,141192.0,13408.0,14.112393093164428
63870.587342324296,167267.0,141180.0,13427.0,14.122502257268934
63870.5974514884,167278.0,141215.0,13422.0,14.13261142137344
63870.60756065251,167264.0,141157.0,13389.0,14.142720585485222
63870.61766981662,167222.0,141156.0,13415.0,14.152829749589728
63870.62777898072,167264.0,141175.0,13399.0,14.162938913694234
63870.63788814483,167214.0,141184.0,13415.0,14.173048077806015
63870.64799730894,167254.0,141187.0,13408.0,14.183157241910521
63870.65810647304,167275.0,141216.0,13441.0,14.193266406015027
63870.66821563715,167272.0,141202.0,13419.0,14.20337557012681
63870.67832480126,167253.0,141174.0,13416.0,14.213484734231315
63870.68843396536,167249.0,141185.0,13424.0,14.223593898335821
63870.698543129474,167297.0,141204.0,13444.0,14.233703062447603
63870.70865229358,167297.0,141204.0,13441.0,14.243812226552109
63870.71876145768,167273.0,141192.0,13422.0,14.253921390656615
63870.728870621795,167247.0,141212.0,13427.0,14.264030554768397
63870.7389797859,167283.0,141198.0,13425.0,14.274139718872902
63870.749088950004,167246.0,141163.0,13434.0,14.284248882977408
63870.759198114116,167274.0,141182.0,13416.0,14.29435804708919
63870.76930727822,167275.0,141191.0,13427.0,14.304467211193696
63870.779416442325,167299.0,141215.0,13435.0,14.314576375298202
63870.78952560644,167264.0,141194.0,13411.0,14.324685539409984
63870.79963477054,167300.0,141188.0,13425.0,14.33479470351449
63870.809743934646,167300.0,141183.0,13427.0,14.344903867618996
63870.81985309876,167259.0,141204.0,13414.0,14.355013031730778
63870.82996226286,167306.0,141212.0,13440.0,14.365122195835283
63870.84007142697,167291.0,141199.0,13428.0,14.37523135993979
63870.85018059108,167266.0,141208.0,13448.0,14.385340524051571
63870.86028975518,167280.0,141194.0,13417.0,14.395449688156077
63870.87039891929,167280.0,141189.0,13448.0,14.405558852260583
63870.88050808339,167309.0,141174.0,13446.0,14.415668016365089
63870.8906172475,167280.0,141213.0,13451.0,14.42577718047687
63870.90072641161,167284.0,141217.0,13449.0,14.435886344581377
63870.91083557571,167264.0,141168.0,13401.0,14.445995508685883
63870.920944739824,167282.0,141186.0,13421.0,14.456104672797665
63870.93105390393,167272.0,141184.0,13398.0,14.46621383690217
63870.94116306803,167264.0,141203.0,13427.0,14.476323001006676
63870.951272232145,167222.0,141146.0,13390.0,14.486432165118458
63870.96138139625,167234.0,141156.0,13399.0,14.496541329222964
63870.971490560354,167187.0,141148.0,13403.0,14.50665049332747
63870.981599724466,167180.0,141139.0,13367.0,14.516759657439252
63870.99170888857,167224.0,141148.0,13414.0,14.526868821543758
63871.001818052675,167208.0,141144.0,13383.0,14.536977985648264
63871.01192721679,167235.0,141156.0,13398.0,14.547087149760046
63871.02203638089,167202.0,141160.0,13390.0,14.557196313864551
63871.032145544996,167198.0,141122.0,13405.0,14.567305477969057
63871.04225470911,167161.0,141131.0,13359.0,14.57741464208084
63871.05236387321,167197.0,141134.0,13380.0,14.587523806185345
63871.06247303732,167196.0,141163.0,13356.0,14.597632970289851
63871.07258220143,167208.0,141165.0,13400.0,14.607742134401633
63871.08269136553,167159.0,141120.0,13385.0,14.617851298506139
63871.09280052964,167201.0,141146.0,13383.0,14.627960462610645
63871.10290969375,167162.0,141150.0,13395.0,14.638069626722427
63871.11301885785,167196.0,141131.0,13377.0,14.648178790826933
63871.12312802196,167221.0,141109.0,13408.0,14.658287954931438
63871.13323718607,167194.0,141158.0,13387.0,14.66839711904322
63871.143346350174,167172.0,141153.0,13412.0,14.678506283147726
63871.15345551428,167211.0,141162.0,13385.0,14.688615447252232
63871.16356467838,167180.0,141149.0,13417.0,14.698724611356738
63871.173673842495,167211.0,141151.0,13398.0,14.70883377546852
63871.1837830066,167175.0,141167.0,13364.0,14.718942939573026
63871.193892170704,167217.0,141186.0,13427.0,14.729052103677532
63871.204001334816,167233.0,141176.0,13424.0,14.739161267789314
63871.21411049892,167212.0,141165.0,13392.0,14.74927043189382
63871.224219663025,167221.0,141185.0,13389.0,14.759379595998325
63871.23432882714,167219.0,141164.0,13422.0,14.769488760110107
63871.24443799124,167254.0,141191.0,13351.0,14.779597924214613
63871.254547155346,167226.0,141161.0,13392.0,14.789707088319119
63871.26465631946,167194.0,141135.0,13386.0,14.799816252430901
63871.27476548356,167185.0,141127.0,13392.0,14.809925416535407
63871.28487464767,167184.0,141177.0,13393.0,14.820034580639913
63871.29498381178,167201.0,141149.0,13388.0,14.830143744751695
63871.30509297588,167186.0,141159.0,13424.0,14.8402529088562
63871.31520213999,167206.0,141159.0,13390.0,14.850362072960706
63871.3253113041,167207.0,141145.0,13422.0,14.860471237072488
63871.335420468204,167223.0,141164.0,13407.0,14.870580401176994
63871.34552963231,167234.0,141149.0,13395.0,14.8806895652815
63871.35563879642,167200.0,141147.0,13383.0,14.890798729393282
63871.365747960524,167213.0,141168.0,13419.0,14.900907893497788
63871.37585712463,167210.0,141178.0,13396.0,14.911017057602294
63871.38596628874,167241.0,141204.0,13408.0,14.921126221714076
63871.396075452845,167230.0,141168.0,13427.0,14.931235385818582
63871.40618461695,167199.0,141158.0,13420.0,14.941344549923087
63871.41629378106,167224.0,141155.0,13383.0,14.95145371403487
63871.426402945166,167216.0,141145.0,13425.0,14.961562878139375
63871.43651210927,167234.0,141181.0,13420.0,14.971672042243881
63871.44662127338,167223.0,141154.0,13389.0,14.981781206355663
63871.45673043749,167230.0,141177.0,13407.0,14.991890370460169
63871.46683960159,167243.0,141176.0,13412.0,15.001999534564675
63871.4769487657,167260.0,141208.0,13416.0,15.012108698676457
63871.48705792981,167199.0,141148.0,13393.0,15.022217862780963
63871.49716709391,167231.0,141170.0,13403.0,15.032327026885469
63871.50727625802,167233.0,141178.0,13416.0,15.042436190989974
63871.51738542213,167231.0,141147.0,13444.0,15.052545355101756
63871.52749458623,167236.0,141163.0,13425.0,15.062654519206262
63871.53760375034,167227.0,141166.0,13401.0,15.072763683310768
63871.54771291445,167268.0,141202.0,13428.0,15.08287284742255
63871.557822078554,167245.0,141174.0,13421.0,15.092982011527056
63871.56793124266,167260.0,141168.0,13432.0,15.103091175631562
63871.57804040677,167215.0,141182.0,13414.0,15.113200339743344
63871.588149570875,167256.0,141194.0,13412.0,15.12330950384785
63871.59825873498,167271.0,141191.0,13395.0,15.133418667952355
63871.60836789909,167303.0,141196.0,13445.0,15.143527832064137
63871.618477063195,167244.0,141171.0,13423.0,15.153636996168643
63871.6285862273,167266.0,141203.0,13421.0,15.16374616027315
63871.63869539141,167239.0,141181.0,13414.0,15.173855324384931
63871.648804555516,167241.0,141190.0,13395.0,15.183964488489437
63871.65891371962,167282.0,141183.0,13439.0,15.194073652593943
63871.66902288373,167278.0,141194.0,13423.0,15.204182816705725
63871.67913204784,167260.0,141176.0,13410.0,15.21429198081023
63871.68924121194,167282.0,141229.0,13401.0,15.224401144914737
63871.69935037605,167265.0,141186.0,13440.0,15.234510309026518
63871.70945954016,167280.0,141187.0,13423.0,15.244619473131024
63871.71956870426,167264.0,141163.0,13416.0,15.25472863723553
63871.729677868374,167289.0,141167.0,13411.0,15.264837801347312
63871.73978703248,167287.0,141214.0,13440.0,15.274946965451818
63871.74989619658,167284.0,141198.0,13426.0,15.285056129556324
63871.760005360695,167256.0,141195.0,13430.0,15.295165293668106
63871.7701145248,167271.0,141167.0,13424.0,15.305274457772612
63871.780223688904,167298.0,141210.0,13417.0,15.315383621877118
63871.79033285301,167280.0,141197.0,13427.0,15.325492785981623
63871.80044201712,167286.0,141186.0,13451.0,15.335601950093405
63871.810551181225,167282.0,141203.0,13411.0,15.345711114197911
63871.82066034533,167296.0,141212.0,13429.0,15.355820278302417
63871.83076950944,167280.0,141211.0,13432.0,15.365929442414199
63871.840878673545,167291.0,141173.0,13421.0,15.376038606518705
63871.85098783765,167327.0,141249.0,13451.0,15.38614777062321
63871.86109700176,167302.0,141184.0,13439.0,15.396256934734993
63871.871206165866,167294.0,141232.0,13439.0,15.406366098839499
63871.88131532997,167280.0,141195.0,13415.0,15.416475262944004
63871.89142449408,167234.0,141166.0,13406.0,15.426584427055786
63871.90153365819,167239.0,141176.0,13398.0,15.436693591160292
63871.91164282229,167250.0,141187.0,13430.0,15.446802755264798
63871.9217519864,167225.0,141149.0,13401.0,15.45691191937658
63871.93186115051,167194.0,141152.0,13387.0,15.467021083481086
63871.94197031461,167185.0,141122.0,13374.0,15.477130247585592
63871.952079478724,167247.0,141147.0,13414.0,15.487239411697374
63871.96218864283,167193.0,141141.0,13383.0,15.49734857580188
63871.97229780693,167188.0,141145.0,13401.0,15.507457739906386
63871.982406971045,167177.0,141131.0,13364.0,15.517566904018167
63871.99251613515,167195.0,141173.0,13382.0,15.527676068122673
63872.002625299254,167208.0,141155.0,13382.0,15.53778523222718
63872.012734463366,167225.0,141166.0,13391.0,15.547894396338961
63872.02284362747,167180.0,141136.0,13378.0,15.558003560443467
63872.032952791575,167209.0,141154.0,13363.0,15.568112724547973
63872.04306195569,167205.0,141152.0,13380.0,15.578221888659755
63872.05317111979,167205.0,141158.0,13408.0,15.58833105276426
63872.063280283895,167168.0,141123.0,13363.0,15.598440216868767
63872.07338944801,167170.0,141164.0,13360.0,15.608549380980548
63872.08349861211,167175.0,141143.0,13387.0,15.618658545085054
63872.093607776216,167197.0,141143.0,13388.0,15.62876770918956
63872.10371694033,167197.0,141124.0,13389.0,15.638876873301342
63872.11382610443,167181.0,141133.0,13368.0,15.648986037405848
63872.12393526854,167213.0,141142.0,13382.0,15.659095201510354
63872.13404443264,167228.0,141188.0,13373.0,15.66920436561486
63872.14415359675,167219.0,141182.0,13406.0,15.679313529726642
63872.15426276086,167198.0,141159.0,13370.0,15.689422693831148
63872.16437192496,167214.0,141163.0,13384.0,15.699531857935654
63872.174481089074,167174.0,141150.0,13394.0,15.709641022047435
63872.18459025318,167236.0,141171.0,13431.0,15.719750186151941
63872.19469941728,167195.0,141139.0,13405.0,15.729859350256447
63872.204808581395,167187.0,141167.0,13376.0,15.739968514368229
63872.2149177455,167216.0,141145.0,13407.0,15.750077678472735
63872.225026909604,167227.0,141179.0,13383.0,15.760186842577241
63872.235136073716,167192.0,141149.0,13379.0,15.770296006689023
63872.24524523782,167181.0,141134.0,13368.0,15.780405170793529
63872.255354401925,167208.0,141162.0,13399.0,15.790514334898035
63872.26546356604,167232.0,141199.0,13418.0,15.800623499009816
63872.27557273014,167221.0,141167.0,13390.0,15.810732663114322
63872.285681894245,167214.0,141155.0,13405.0,15.820841827218828
63872.29579105836,167231.0,141168.0,13394.0,15.83095099133061
63872.30590022246,167190.0,141138.0,13390.0,15.841060155435116
63872.316009386566,167246.0,141215.0,13418.0,15.851169319539622
63872.32611855068,167202.0,141155.0,13395.0,15.861278483651404
63872.33622771478,167237.0,141180.0,13399.0,15.87138764775591
63872.34633687889,167226.0,141166.0,13395.0,15.881496811860416
63872.356446043,167244.0,141170.0,13416.0,15.891605975972197
63872.3665552071,167242.0,141162.0,13422.0,15.901715140076703
63872.37666437121,167235.0,141178.0,13403.0,15.91182430418121
63872.38677353532,167216.0,141166.0,13399.0,15.921933468292991
63872.396882699424,167266.0,141200.0,13413.0,15.932042632397497
63872.40699186353,167256.0,141199.0,13430.0,15.942151796502003
63872.41710102763,167251.0,141190.0,13404.0,15.952260960606509
63872.427210191745,167227.0,141158.0,13426.0,15.96237012471829
63872.43731935585,167252.0,141187.0,13401.0,15.972479288822797
63872.447428519954,167277.0,141167.0,13428.0,15.982588452927303
63872.457537684066,167258.0,141194.0,13409.0,15.992697617039084
63872.46764684817,167253.0,141188.0,13393.0,16.00280678114359
63872.477756012275,167236.0,141169.0,13382.0,16.012915945248096
63872.48786517639,167246.0,141180.0,13406.0,16.023025109359878
63872.49797434049,167252.0,141177.0,13406.0,16.033134273464384
63872.508083504596,167250.0,141168.0,13420.0,16.04324343756889
63872.51819266871,167236.0,141177.0,13396.0,16.053352601680672
63872.52830183281,167271.0,141209.0,13419.0,16.063461765785178
63872.538410996916,167271.0,141191.0,13411.0,16.073570929889684
63872.54852016103,167272.0,141179.0,13404.0,16.083680094001465
63872.55862932513,167231.0,141183.0,13391.0,16.09378925810597
63872.56873848924,167286.0,141217.0,13411.0,16.103898422210477
63872.57884765335,167269.0,141195.0,13409.0,16.11400758632226
63872.58895681745,167275.0,141200.0,13419.0,16.124116750426765
63872.59906598156,167252.0,141193.0,13420.0,16.13422591453127
63872.60917514567,167257.0,141178.0,13392.0,16.144335078643053
63872.619284309774,167278.0,141195.0,13431.0,16.15444424274756
63872.62939347388,167259.0,141218.0,13425.0,16.164553406852065
63872.63950263799,167293.0,141183.0,13429.0,16.174662570963847
63872.649611802095,167272.0,141199.0,13418.0,16.184771735068352
63872.6597209662,167302.0,141227.0,13405.0,16.19488089917286
63872.66983013031,167282.0,141199.0,13416.0,16.20499006328464
63872.679939294416,167286.0,141214.0,13449.0,16.215099227389146
63872.69004845852,167271.0,141176.0,13430.0,16.225208391493652
63872.70015762263,167260.0,141196.0,13408.0,16.235317555605434
63872.71026678674,167285.0,141205.0,13418.0,16.24542671970994
63872.72037595084,167316.0,141193.0,13448.0,16.255535883814446
63872.73048511495,167273.0,141186.0,13430.0,16.265645047926228
63872.74059427906,167268.0,141186.0,13406.0,16.275754212030733
63872.75070344316,167297.0,141205.0,13419.0,16.28586337613524
63872.76081260727,167302.0,141204.0,13420.0,16.295972540239745
63872.77092177138,167282.0,141179.0,13415.0,16.306081704351527
63872.78103093548,167257.0,141185.0,13408.0,16.316190868456033
63872.79114009959,167266.0,141196.0,13423.0,16.32630003256054
63872.8012492637,167240.0,141204.0,13411.0,16.33640919667232
63872.8113584278,167290.0,141189.0,13436.0,16.346518360776827
63872.82146759191,167235.0,141141.0,13408.0,16.356627524881333
63872.83157675602,167251.0,141157.0,13397.0,16.366736688993115
63872.841685920124,167212.0,141140.0,13381.0,16.37684585309762
63872.85179508423,167195.0,141144.0,13397.0,16.386955017202126
63872.86190424834,167193.0,141127.0,13419.0,16.397064181313908
63872.872013412445,167208.0,141155.0,13381.0,16.407173345418414
63872.88212257655,167212.0,141136.0,13379.0,16.41728250952292
63872.89223174066,167167.0,141164.0,13384.0,16.427391673634702
63872.902340904766,167225.0,141151.0,13398.0,16.437500837739208
63872.91245006887,167219.0,141153.0,13384.0,16.447610001843714
63872.92255923298,167194.0,141137.0,13376.0,16.457719165955496
63872.93266839709,167241.0,141138.0,13383.0,16.46782833006
63872.94277756119,167240.0,141180.0,13401.0,16.477937494164507
63872.9528867253,167210.0,141156.0,13363.0,16.48804665827629
63872.96299588941,167182.0,141157.0,13389.0,16.498155822380795
63872.97310505351,167239.0,141178.0,13396.0,16.5082649864853
63872.983214217624,167214.0,141179.0,13407.0,16.518374150597083
63872.99332338173,167237.0,141163.0,13400.0,16.52848331470159
63873.00343254583,167211.0,141153.0,13386.0,16.538592478806095
63873.013541709945,167197.0,141153.0,13366.0,16.548701642917877
63873.02365087405,167226.0,141152.0,13380.0,16.558810807022383
63873.03376003815,167238.0,141196.0,13401.0,16.56891997112689
63873.04386920226,167221.0,141160.0,13398.0,16.579029135231394
63873.05397836637,167217.0,141135.0,13398.0,16.589138299343176
63873.064087530474,167237.0,141189.0,13412.0,16.599247463447682
63873.07419669458,167205.0,141132.0,13384.0,16.609356627552188
63873.08430585869,167227.0,141167.0,13394.0,16.61946579166397
63873.094415022795,167202.0,141168.0,13378.0,16.629574955768476
63873.1045241869,167219.0,141155.0,13365.0,16.63968411987298
63873.11463335101,167233.0,141150.0,13382.0,16.649793283984764
63873.124742515116,167235.0,141168.0,13391.0,16.65990244808927
63873.13485167922,167224.0,141174.0,13397.0,16.670011612193775
63873.14496084333,167209.0,141171.0,13390.0,16.680120776305557
63873.15507000744,167236.0,141153.0,13409.0,16.690229940410063
63873.16517917154,167221.0,141168.0,13390.0,16.70033910451457
63873.17528833565,167249.0,141192.0,13395.0,16.71044826862635
63873.18539749976,167199.0,141137.0,13383.0,16.720557432730857
63873.19550666386,167230.0,141165.0,13383.0,16.730666596835363
63873.205615827974,167246.0,141181.0,13399.0,16.740775760947145
63873.21572499208,167239.0,141188.0,13415.0,16.75088492505165
63873.22583415618,167221.0,141187.0,13407.0,16.760994089156156
63873.235943320295,167225.0,141183.0,13387.0,16.77110325326794
63873.2460524844,167254.0,141172.0,13397.0,16.781212417372444
63873.2561616485,167262.0,141176.0,13408.0,16.79132158147695
63873.266270812615,167261.0,141170.0,13411.0,16.801430745588732
63873.27637997672,167271.0,141173.0,13405.0,16.811539909693238
63873.286489140824,167250.0,141180.0,13381.0,16.821649073797744
63873.296598304936,167260.0,141206.0,13391.0,16.831758237909526
63873.30670746904,167278.0,141195.0,13416.0,16.84186740201403
63873.316816633145,167226.0,141180.0,13428.0,16.851976566118537
63873.32692579726,167256.0,141201.0,13406.0,16.86208573023032
63873.33703496136,167276.0,141207.0,13419.0,16.872194894334825
63873.347144125466,167270.0,141213.0,13436.0,16.88230405843933
63873.35725328958,167257.0,141181.0,13399.0,16.892413222551113
63873.36736245368,167241.0,141189.0,13383.0,16.90252238665562
63873.37747161779,167279.0,141163.0,13406.0,16.912631550760125
63873.38758078189,167297.0,141209.0,13428.0,16.92274071486463
63873.397689946,167261.0,141160.0,13389.0,16.932849878976413
63873.40779911011,167249.0,141169.0,13400.0,16.94295904308092
63873.41790827421,167241.0,141190.0,13399.0,16.953068207185424
63873.428017438324,167249.0,141184.0,13409.0,16.963177371297206
63873.43812660243,167315.0,141211.0,13423.0,16.973286535401712
63873.44823576653,167265.0,141150.0,13413.0,16.983395699506218
63873.458344930645,167284.0,141189.0,13414.0,16.993504863618
63873.46845409475,167286.0,141196.0,13413.0,17.003614027722506
63873.478563258854,167311.0,141220.0,13397.0,17.01372319182701
63873.488672422965,167292.0,141181.0,13416.0,17.023832355938794
63873.49878158707,167294.0,141194.0,13423.0,17.0339415200433
63873.508890751174,167256.0,141190.0,13404.0,17.044050684147805
63873.518999915286,167252.0,141213.0,13413.0,17.054159848259587
63873.52910907939,167256.0,141180.0,13379.0,17.064269012364093
63873.539218243495,167280.0,141212.0,13420.0,17.0743781764686
63873.54932740761,167273.0,141165.0,13399.0,17.08448734058038
63873.55943657171,167286.0,141170.0,13424.0,17.094596504684887
63873.569545735816,167283.0,141192.0,13432.0,17.104705668789393
63873.57965489993,167306.0,141203.0,13426.0,17.114814832901175
63873.58976406403,167290.0,141204.0,13419.0,17.12492399700568
63873.59987322814,167297.0,141193.0,13398.0,17.135033161110186
63873.60998239225,167315.0,141225.0,13443.0,17.14514232522197
63873.62009155635,167319.0,141213.0,13428.0,17.155251489326474
63873.63020072046,167353.0,141207.0,13451.0,17.16536065343098
63873.64030988457,167308.0,141198.0,13426.0,17.175469817542762
63873.650419048674,167311.0,141194.0,13432.0,17.185578981647268
63873.66052821278,167297.0,141196.0,13415.0,17.195688145751774
63873.67063737688,167255.0,141196.0,13403.0,17.20579730985628
63873.680746540995,167255.0,141154.0,13404.0,17.21590647396806
63873.6908557051,167283.0,141209.0,13435.0,17.226015638072568
63873.700964869204,167250.0,141160.0,13396.0,17.236124802177073
63873.711074033316,167260.0,141188.0,13401.0,17.246233966288855
63873.72118319742,167272.0,141174.0,13430.0,17.25634313039336
63873.731292361525,167268.0,141198.0,13381.0,17.266452294497867
63873.741401525636,167246.0,141167.0,13384.0,17.27656145860965
63873.75151068974,167255.0,141177.0,13397.0,17.286670622714155
63873.761619853845,167262.0,141181.0,13407.0,17.29677978681866
63873.77172901796,167225.0,141179.0,13392.0,17.306888950930443
63873.78183818206,167275.0,141182.0,13416.0,17.31699811503495
63873.791947346166,167251.0,141191.0,13397.0,17.327107279139454
63873.80205651028,167272.0,141212.0,13396.0,17.337216443251236
63873.81216567438,167217.0,167275.0,13366.0,17.347325607355742
63873.82227483849,167275.0,141220.0,13402.0,17.357434771460248
63873.8323840026,167244.0,141177.0,13389.0,17.36754393557203
63873.8424931667,167256.0,141176.0,13422.0,17.377653099676536
63873.85260233081,167224.0,141169.0,13415.0,17.387762263781042
63873.86271149492,167287.0,141203.0,13391.0,17.397871427892824
63873.872820659024,167266.0,141182.0,13403.0,17.40798059199733
63873.88292982313,167286.0,141197.0,13428.0,17.418089756101836
63873.89303898724,167247.0,141158.0,13405.0,17.428198920213617
63873.903148151345,167249.0,141175.0,13383.0,17.438308084318123
63873.91325731545,167273.0,141184.0,13411.0,17.44841724842263
63873.92336647956,167271.0,141186.0,13390.0,17.45852641253441
63873.933475643666,167275.0,141175.0,13415.0,17.468635576638917
63873.94358480777,167261.0,141181.0,13419.0,17.478744740743423
63873.95369397188,167219.0,141185.0,13393.0,17.488853904855205
63873.96380313599,167238.0,141178.0,13416.0,17.49896306895971
63873.97391230009,167253.0,141192.0,13395.0,17.509072233064217
63873.9840214642,167254.0,141162.0,13392.0,17.519181397176
63873.99413062831,167273.0,141194.0,13404.0,17.529290561280504
63874.00423979241,167275.0,141195.0,13407.0,17.53939972538501
63874.014348956516,167262.0,141182.0,13393.0,17.549508889489516
63874.02445812063,167262.0,141160.0,13408.0,17.559618053601298
63874.03456728473,167284.0,141189.0,13412.0,17.569727217705804
63874.04467644884,167266.0,141209.0,13407.0,17.57983638181031
63874.05478561295,167259.0,141202.0,13409.0,17.58994554592209
63874.06489477705,167304.0,141202.0,13439.0,17.600054710026598
63874.07500394116,167294.0,141196.0,13415.0,17.610163874131104
63874.08511310527,167242.0,141142.0,13402.0,17.620273038242885
63874.095222269374,167253.0,141182.0,13440.0,17.63038220234739
63874.10533143348,167263.0,141185.0,13402.0,17.640491366451897
63874.11544059759,167288.0,141198.0,13434.0,17.65060053056368
63874.125549761695,167267.0,141179.0,13412.0,17.660709694668185
63874.1356589258,167274.0,141199.0,13425.0,17.67081885877269
63874.14576808991,167286.0,141181.0,13393.0,17.680928022884473
63874.155877254016,167310.0,141196.0,13409.0,17.69103718698898
63874.16598641812,167298.0,141216.0,13415.0,17.701146351093485
63874.17609558223,167293.0,141191.0,13381.0,17.711255515205266
63874.18620474634,167308.0,141197.0,13415.0,17.721364679309772
63874.19631391044,167273.0,141180.0,13423.0,17.73147384341428
63874.20642307455,167305.0,141204.0,13411.0,17.74158300752606
63874.21653223866,167280.0,141196.0,13443.0,17.751692171630566
63874.22664140276,167269.0,141162.0,13433.0,17.761801335735072
63874.23675056687,167281.0,141187.0,13417.0,17.771910499846854
63874.24685973098,167303.0,141203.0,13432.0,17.78201966395136
63874.25696889508,167325.0,141206.0,13422.0,17.792128828055866
63874.267078059194,167321.0,141196.0,13444.0,17.802237992167647
63874.2771872233,167342.0,141201.0,13437.0,17.812347156272153
63874.2872963874,167312.0,141209.0,13422.0,17.82245632037666
63874.29740555151,167284.0,141175.0,13421.0,17.832565484481165
63874.30751471562,167311.0,141227.0,13439.0,17.842674648592947
63874.317623879724,167296.0,141177.0,13426.0,17.852783812697453
63874.32773304383,167323.0,141211.0,13418.0,17.86289297680196
63874.33784220794,167285.0,141209.0,13419.0,17.87300214091374
63874.347951372045,167343.0,141222.0,13442.0,17.883111305018247
63874.35806053615,167319.0,141160.0,13431.0,17.893220469122753
63874.36816970026,167324.0,141213.0,13422.0,17.903329633234534
63874.378278864366,167308.0,141178.0,13416.0,17.91343879733904
63874.38838802847,167296.0,141192.0,13417.0,17.923547961443546
63874.39849719258,167340.0,141245.0,13475.0,17.933657125555328
63874.40860635669,167338.0,141201.0,13442.0,17.943766289659834
63874.41871552079,167329.0,141214.0,13435.0,17.95387545376434
63874.4288246849,167320.0,141232.0,13433.0,17.96398461787612
63874.43893384901,167362.0,141226.0,13438.0,17.974093781980628
63874.44904301311,167328.0,141217.0,13435.0,17.984202946085134
63874.45915217722,167334.0,141209.0,13424.0,17.994312110196915
63874.46926134133,167322.0,141198.0,13420.0,18.00442127430142
63874.47937050543,167289.0,141173.0,13425.0,18.014530438405927
63874.489479669544,167337.0,141227.0,13455.0,18.02463960251771
63874.49958883365,167292.0,141193.0,13431.0,18.034748766622215
63874.50969799775,167317.0,141204.0,13404.0,18.04485793072672
63874.519807161865,167289.0,141221.0,13440.0,18.054967094838503
63874.52991632597,167340.0,141190.0,13440.0,18.06507625894301
63874.540025490074,167295.0,141192.0,13416.0,18.075185423047515
63874.550134654186,167265.0,141185.0,13414.0,18.085294587159296
63874.56024381829,167269.0,141144.0,13426.0,18.095403751263802
63874.570352982395,167293.0,141189.0,13396.0,18.10551291536831
63874.58046214651,167260.0,141171.0,13399.0,18.11562207948009
63874.59057131061,167243.0,141178.0,13397.0,18.125731243584596
63874.600680474716,167231.0,141151.0,13376.0,18.135840407689102
63874.61078963883,167263.0,141179.0,13426.0,18.145949571800884
63874.62089880293,167224.0,141155.0,13380.0,18.15605873590539
63874.63100796704,167253.0,141135.0,13409.0,18.166167900009896
63874.64111713114,167225.0,141150.0,13394.0,18.1762770641144
63874.65122629525,167272.0,141164.0,13398.0,18.186386228226183
63874.66133545936,167269.0,141173.0,13395.0,18.19649539233069
63874.67144462346,167283.0,141191.0,13418.0,18.206604556435195
63874.681553787574,167230.0,141202.0,13393.0,18.216713720546977
63874.69166295168,167271.0,141195.0,13404.0,18.226822884651483
63874.70177211578,167281.0,141175.0,13402.0,18.23693204875599
63874.711881279894,167271.0,141172.0,13397.0,18.24704121286777
63874.721990444,167261.0,141189.0,13399.0,18.257150376972277
63874.7320996081,167290.0,141227.0,13395.0,18.267259541076783
63874.742208772215,167269.0,141181.0,13412.0,18.277368705188564
63874.75231793632,167302.0,141165.0,13406.0,18.28747786929307
63874.762427100424,167253.0,141170.0,13392.0,18.297587033397576
63874.772536264536,167255.0,141172.0,13385.0,18.307696197509358
63874.78264542864,167271.0,141180.0,13409.0,18.317805361613864
63874.792754592745,167284.0,141186.0,13391.0,18.32791452571837
63874.80286375686,167284.0,141172.0,13417.0,18.338023689830152
63874.81297292096,167249.0,141169.0,13375.0,18.348132853934658
63874.823082085066,167274.0,141179.0,13409.0,18.358242018039164
63874.83319124918,167289.0,141198.0,13398.0,18.368351182150946
63874.84330041328,167292.0,141159.0,13389.0,18.37846034625545
63874.85340957739,167251.0,141161.0,13406.0,18.388569510359957
63874.8635187415,167280.0,141189.0,13401.0,18.39867867447174
63874.8736279056,167258.0,141181.0,13436.0,18.408787838576245
63874.88373706971,167314.0,141205.0,13404.0,18.41889700268075
63874.89384623382,167281.0,141180.0,13421.0,18.429006166792533
63874.903955397924,167285.0,141178.0,13439.0,18.43911533089704
63874.91406456203,167251.0,141167.0,13418.0,18.449224495001545
63874.92417372613,167278.0,141199.0,13405.0,18.45933365910605
63874.934282890245,167283.0,141198.0,13429.0,18.469442823217832
63874.94439205435,167270.0,141176.0,13408.0,18.47955198732234
63874.95450121845,167284.0,141193.0,13411.0,18.489661151426844
63874.964610382565,167270.0,141192.0,13428.0,18.499770315538626
63874.97471954667,167316.0,141199.0,13433.0,18.509879479643132
63874.984828710774,167286.0,141186.0,13413.0,18.519988643747638
63874.994937874886,167295.0,141195.0,13414.0,18.53009780785942
63875.00504703899,167266.0,141165.0,13390.0,18.540206971963926
63875.015156203095,167314.0,141221.0,13437.0,18.55031613606843
63875.02526536721,167306.0,141155.0,13437.0,18.560425300180214
63875.03537453131,167299.0,141198.0,13428.0,18.57053446428472
63875.045483695416,167278.0,141176.0,13409.0,18.580643628389225
63875.05559285953,167299.0,141221.0,13450.0,18.590752792501007
63875.06570202363,167324.0,141225.0,13427.0,18.600861956605513
63875.07581118774,167306.0,141209.0,13415.0,18.61097112071002
63875.08592035185,167301.0,141182.0,13429.0,18.6210802848218
63875.09602951595,167327.0,141219.0,13425.0,18.631189448926307
63875.10613868006,167286.0,141184.0,13397.0,18.641298613030813
63875.11624784417,167311.0,141204.0,13431.0,18.651407777142595
63875.126357008274,167304.0,141189.0,13428.0,18.6615169412471
63875.13646617238,167310.0,141217.0,13432.0,18.671626105351606
63875.14657533649,167283.0,141230.0,13429.0,18.68173526946339
63875.156684500595,167276.0,141202.0,13409.0,18.691844433567894
63875.1667936647,167296.0,141200.0,13445.0,18.7019535976724
63875.17690282881,167299.0,141206.0,13406.0,18.712062761784182
63875.187011992915,167332.0,141192.0,13430.0,18.722171925888688
63875.19712115702,167311.0,141210.0,13423.0,18.732281089993194
63875.20723032113,167313.0,141185.0,13443.0,18.742390254104976
63875.217339485236,167282.0,141218.0,13425.0,18.75249941820948
63875.22744864934,167347.0,141215.0,13447.0,18.762608582313987
63875.23755781345,167316.0,141221.0,13432.0,18.77271774642577
63875.24766697756,167361.0,141234.0,13440.0,18.782826910530275
63875.25777614166,167301.0,141205.0,13417.0,18.79293607463478
63875.267885305766,167326.0,141211.0,13427.0,18.803045238739287
63875.27799446988,167336.0,141220.0,13445.0,18.81315440285107
63875.28810363398,167329.0,141218.0,13449.0,18.823263566955575
63875.29821279809,167305.0,141186.0,13430.0,18.83337273106008
63875.3083219622,167310.0,141213.0,13416.0,18.843481895171863
63875.3184311263,167365.0,141223.0,13460.0,18.85359105927637
63875.32854029041,167331.0,141240.0,13437.0,18.863700223380874
63875.33864945452,167348.0,141201.0,13434.0,18.873809387492656
63875.348758618624,167303.0,141220.0,13415.0,18.883918551597162
63875.35886778273,167310.0,141212.0,13412.0,18.894027715701668
63875.36897694684,167309.0,141205.0,13429.0,18.90413687981345
63875.379086110945,167311.0,141187.0,13429.0,18.914246043917956
63875.38919527505,167262.0,141167.0,13411.0,18.92435520802246
63875.39930443916,167281.0,141205.0,13442.0,18.934464372134244
63875.409413603265,167263.0,141173.0,13408.0,18.94457353623875
63875.41952276737,167230.0,141132.0,13455.0,18.954682700343255
63875.42963193148,167273.0,141144.0,13411.0,18.964791864455037
63875.439741095586,167221.0,141145.0,13379.0,18.974901028559543
63875.44985025969,167241.0,141158.0,13390.0,18.98501019266405
63875.4599594238,167273.0,141185.0,13399.0,18.99511935677583
63875.47006858791,167252.0,141165.0,13408.0,19.005228520880337
63875.48017775201,167221.0,141152.0,13385.0,19.015337684984843
63875.49028691612,167258.0,141177.0,13389.0,19.025446849096625
63875.50039608023,167266.0,141202.0,13401.0,19.03555601320113
63875.51050524433,167271.0,141191.0,13413.0,19.045665177305636
63875.520614408444,167245.0,141169.0,13395.0,19.05577434141742
63875.53072357255,167249.0,141173.0,13383.0,19.065883505521924
63875.54083273665,167229.0,141145.0,13384.0,19.07599266962643
63875.55094190076,167302.0,141199.0,13387.0,19.086101833730936
63875.56105106487,167242.0,141160.0,13427.0,19.096210997842718
63875.571160228974,167246.0,141166.0,13394.0,19.106320161947224
63875.58126939308,167226.0,141153.0,13387.0,19.11642932605173
63875.59137855719,167231.0,141215.0,13391.0,19.12653849016351
63875.601487721295,167223.0,141173.0,13390.0,19.136647654268018
63875.6115968854,167257.0,141182.0,13405.0,19.146756818372523
63875.62170604951,167253.0,141174.0,13369.0,19.156865982484305
63875.631815213615,167250.0,141133.0,13398.0,19.16697514658881
63875.64192437772,167278.0,141202.0,13409.0,19.177084310693317
63875.65203354183,167265.0,141176.0,13392.0,19.1871934748051
63875.662142705936,167234.0,141167.0,13426.0,19.197302638909605
63875.67225187004,167253.0,141168.0,13389.0,19.20741180301411
63875.68236103415,167248.0,141206.0,13413.0,19.217520967125893
63875.69247019826,167266.0,141209.0,13419.0,19.2276301312304
63875.70257936236,167265.0,141171.0,13417.0,19.237739295334904
63875.71268852647,167241.0,141175.0,13404.0,19.247848459446686
63875.72279769058,167282.0,141200.0,13418.0,19.257957623551192
63875.73290685468,167230.0,141177.0,13410.0,19.268066787655698
63875.743016018794,167251.0,141172.0,13408.0,19.27817595176748
63875.7531251829,167263.0,141172.0,13420.0,19.288285115871986
63875.763234347,167269.0,141192.0,13400.0,19.298394279976492
63875.773343511115,167272.0,141222.0,13431.0,19.308503444088274
63875.78345267522,167268.0,141188.0,13414.0,19.31861260819278
63875.793561839324,167266.0,141153.0,13428.0,19.328721772297285
