timestamp,PPG_1,PPG_2,PPG_3,time_from_segment_start_sec
63856.456138315894,110848.0,19244.0,702.0,0.0
63856.46613622927,110849.0,19242.0,677.0,0.009997913373808842
63856.47613414265,110869.0,19250.0,704.0,0.019995826754893642
63856.48613205603,110882.0,19282.0,706.0,0.02999374013597844
63856.496129969404,110841.0,19242.0,675.0,0.039991653509787284
63856.506127882785,110853.0,19238.0,708.0,0.049989566890872084
63856.516125796166,110879.0,19251.0,696.0,0.05998748027195688
63856.52612370954,110860.0,19233.0,716.0,0.06998539364576573
63856.53612162292,110893.0,19306.0,732.0,0.07998330702685053
63856.5461195363,110847.0,19221.0,695.0,0.08998122040793533
63856.55611744968,110876.0,19264.0,698.0,0.09997913378902012
63856.56611536306,110888.0,19245.0,700.0,0.10997704716282897
63856.57611327644,110910.0,19273.0,662.0,0.11997496054391377
63856.58611118982,110874.0,19268.0,701.0,0.12997287392499857
63856.59610910319,110925.0,19253.0,711.0,0.1399707872988074
63856.606107016574,110914.0,19271.0,691.0,0.1499687006798922
63856.616104929955,110915.0,19280.0,694.0,0.159966614060977
63856.62610284333,110899.0,19252.0,674.0,0.16996452743478585
63856.63610075671,110893.0,19237.0,682.0,0.17996244081587065
63856.64609867009,110921.0,19268.0,696.0,0.18996035419695545
63856.656096583465,110902.0,19265.0,701.0,0.1999582675707643
63856.666094496846,110904.0,19268.0,692.0,0.2099561809518491
63856.67609241023,110924.0,19268.0,657.0,0.2199540943329339
63856.6860903236,110925.0,19252.0,689.0,0.22995200770674273
63856.69608823698,110915.0,19242.0,688.0,0.23994992108782753
63856.70608615036,110927.0,19262.0,697.0,0.24994783446891233
63856.71608406374,110904.0,19232.0,724.0,0.2599457478427212
63856.72608197712,110946.0,19259.0,691.0,0.269943661223806
63856.7360798905,110928.0,19277.0,716.0,0.2799415746048908
63856.74607780387,110935.0,19258.0,688.0,0.2899394879786996
63856.756075717254,110957.0,19273.0,683.0,0.2999374013597844
63856.766073630635,110949.0,19263.0,701.0,0.3099353147408692
63856.77607154401,110961.0,19264.0,707.0,0.31993322811467806
63856.78606945739,110956.0,19247.0,701.0,0.32993114149576286
63856.79606737077,110974.0,19279.0,714.0,0.33992905487684766
63856.806065284145,110934.0,19249.0,676.0,0.3499269682506565
63856.816063197526,110959.0,19262.0,721.0,0.3599248816317413
63856.82606111091,110964.0,19287.0,735.0,0.3699227950128261
63856.83605902428,110954.0,19240.0,685.0,0.37992070838663494
63856.84605693766,110975.0,19253.0,697.0,0.38991862176771974
63856.85605485104,110948.0,19266.0,704.0,0.39991653514880454
63856.86605276442,110981.0,19238.0,684.0,0.4099144485226134
63856.8760506778,110959.0,19245.0,712.0,0.4199123619036982
63856.88604859118,110985.0,19261.0,705.0,0.429910275284783
63856.89604650455,110954.0,19244.0,707.0,0.4399081886585918
63856.906044417934,110968.0,19264.0,693.0,0.4499061020396766
63856.916042331315,110963.0,19234.0,689.0,0.4599040154207614
63856.92604024469,110981.0,19266.0,705.0,0.46990192879457027
63856.93603815807,110996.0,19276.0,730.0,0.47989984217565507
63856.94603607145,110994.0,19289.0,712.0,0.48989775555673987
63856.956033984825,111006.0,19258.0,718.0,0.4998956689305487
63856.966031898206,110978.0,19262.0,681.0,0.5098935823116335
63856.97602981159,110952.0,19233.0,708.0,0.5198914956927183
63856.98602772496,110989.0,19278.0,704.0,0.5298894090665272
63856.99602563834,110942.0,19252.0,683.0,0.539887322447612
63857.00602355172,110934.0,19260.0,690.0,0.5498852358286968
63857.0160214651,110924.0,19263.0,688.0,0.5598831492025056
63857.02601937848,110894.0,19269.0,671.0,0.5698810625835904
63857.03601729186,110876.0,19238.0,686.0,0.5798789759646752
63857.04601520523,110858.0,19257.0,690.0,0.589876889338484
63857.056013118614,110819.0,19273.0,702.0,0.5998748027195688
63857.066011031995,110815.0,19244.0,687.0,0.6098727161006536
63857.07600894537,110812.0,19259.0,679.0,0.6198706294744625
63857.08600685875,110820.0,19249.0,698.0,0.6298685428555473
63857.09600477213,110842.0,19289.0,720.0,0.6398664562366321
63857.106002685505,110835.0,19278.0,722.0,0.6498643696104409
63857.116000598886,110838.0,19262.0,695.0,0.6598622829915257
63857.12599851227,110826.0,19260.0,695.0,0.6698601963726105
63857.13599642564,110818.0,19240.0,694.0,0.6798581097464194
63857.14599433902,110846.0,19271.0,707.0,0.6898560231275042
63857.1559922524,110839.0,19263.0,658.0,0.699853936508589
63857.165990165784,110818.0,19250.0,668.0,0.7098518498896738
63857.17598807916,110804.0,19227.0,724.0,0.7198497632634826
63857.18598599254,110842.0,19263.0,698.0,0.7298476766445674
63857.19598390592,110853.0,19249.0,668.0,0.7398455900256522
63857.205981819294,110850.0,19278.0,721.0,0.749843503399461
63857.215979732675,110835.0,19231.0,707.0,0.7598414167805458
63857.225977646056,110844.0,19270.0,694.0,0.7698393301616306
63857.23597555943,110836.0,19235.0,708.0,0.7798372435354395
63857.24597347281,110841.0,19263.0,668.0,0.7898351569165243
63857.25597138619,110854.0,19227.0,693.0,0.7998330702976091
63857.265969299566,110835.0,19258.0,684.0,0.8098309836714179
63857.27596721295,110881.0,19258.0,700.0,0.8198288970525027
63857.28596512633,110870.0,19248.0,699.0,0.8298268104335875
63857.2959630397,110853.0,19261.0,712.0,0.8398247238073964
63857.30596095308,110859.0,19270.0,690.0,0.8498226371884812
63857.315958866464,110889.0,19276.0,717.0,0.859820550569566
63857.32595677984,110859.0,19279.0,685.0,0.8698184639433748
63857.33595469322,110833.0,19280.0,687.0,0.8798163773244596
63857.3459526066,110848.0,19260.0,695.0,0.8898142907055444
63857.355950519974,110857.0,19273.0,693.0,0.8998122040793533
63857.365948433355,110863.0,19257.0,707.0,0.909810117460438
63857.375946346736,110859.0,19249.0,686.0,0.9198080308415229
63857.38594426011,110848.0,19241.0,689.0,0.9298059442153317
63857.39594217349,110852.0,19239.0,701.0,0.9398038575964165
63857.40594008687,110839.0,19261.0,696.0,0.9498017709775013
63857.415938000246,110884.0,19260.0,692.0,0.9597996843513101
63857.42593591363,110864.0,19216.0,690.0,0.9697975977323949
63857.43593382701,110854.0,19233.0,672.0,0.9797955111134797
63857.44593174038,110865.0,19256.0,664.0,0.9897934244872886
63857.45592965376,110885.0,19264.0,702.0,0.9997913378683734
63857.465927567144,110870.0,19301.0,693.0,1.0097892512494582
63857.47592548052,110858.0,19272.0,703.0,1.019787164623267
63857.4859233939,110863.0,19264.0,684.0,1.0297850780043518
63857.49592130728,110904.0,19256.0,700.0,1.0397829913854366
63857.50591922065,110921.0,19264.0,666.0,1.0497809047592455
63857.515917134035,110908.0,19246.0,696.0,1.0597788181403303
63857.525915047416,110940.0,19281.0,694.0,1.069776731521415
63857.53591296079,110922.0,19252.0,707.0,1.079774644895224
63857.54591087417,110939.0,19292.0,707.0,1.0897725582763087
63857.55590878755,110901.0,19219.0,685.0,1.0997704716573935
63857.565906700926,110953.0,19252.0,717.0,1.1097683850312023
63857.57590461431,110930.0,19254.0,703.0,1.1197662984122871
63857.58590252769,110908.0,19236.0,702.0,1.129764211793372
63857.59590044106,110911.0,19239.0,655.0,1.1397621251671808
63857.60589835444,110894.0,19231.0,701.0,1.1497600385482656
63857.615896267824,110934.0,19257.0,699.0,1.1597579519293504
63857.6258941812,110927.0,19254.0,706.0,1.1697558653031592
63857.63589209458,110927.0,19248.0,682.0,1.179753778684244
63857.64589000796,110959.0,19249.0,708.0,1.1897516920653288
63857.65588792133,110950.0,19259.0,702.0,1.1997496054391377
63857.665885834715,110967.0,19262.0,683.0,1.2097475188202225
63857.675883748096,110960.0,19273.0,678.0,1.2197454322013073
63857.68588166147,110943.0,19262.0,681.0,1.229743345575116
63857.69587957485,110966.0,19266.0,697.0,1.239741258956201
63857.70587748823,110973.0,19257.0,696.0,1.2497391723372857
63857.71587540161,110980.0,19246.0,736.0,1.2597370857183705
63857.72587331499,110976.0,19225.0,695.0,1.2697349990921794
63857.73587122837,110981.0,19270.0,716.0,1.2797329124732642
63857.74586914175,110961.0,19252.0,696.0,1.289730825854349
63857.75586705512,110952.0,19240.0,690.0,1.2997287392281578
63857.7658649685,110988.0,19291.0,707.0,1.3097266526092426
63857.775862881885,110970.0,19266.0,707.0,1.3197245659903274
63857.78586079526,110964.0,19250.0,681.0,1.3297224793641362
63857.79585870864,110994.0,19238.0,711.0,1.339720392745221
63857.80585662202,110977.0,19229.0,706.0,1.3497183061263058
63857.815854535394,110994.0,19274.0,703.0,1.3597162195001147
63857.825852448776,111006.0,19282.0,696.0,1.3697141328811995
63857.83585036216,110980.0,19270.0,687.0,1.3797120462622843
63857.84584827553,111003.0,19289.0,670.0,1.3897099596360931
63857.85584618891,110982.0,19262.0,715.0,1.399707873017178
63857.86584410229,110963.0,19236.0,725.0,1.4097057863982627
63857.87584201567,110964.0,19261.0,705.0,1.4197036997720716
63857.88583992905,110933.0,19250.0,690.0,1.4297016131531564
63857.89583784243,110919.0,19255.0,683.0,1.4396995265342412
63857.9058357558,110906.0,19227.0,706.0,1.44969743990805
63857.91583366918,110896.0,19270.0,681.0,1.4596953532891348
63857.925831582565,110844.0,19282.0,718.0,1.4696932666702196
63857.93582949594,110833.0,19261.0,687.0,1.4796911800440284
63857.94582740932,110833.0,19238.0,692.0,1.4896890934251132
63857.9558253227,110820.0,19242.0,684.0,1.499687006806198
63857.965823236074,110850.0,19251.0,706.0,1.5096849201800069
63857.975821149455,110791.0,19226.0,686.0,1.5196828335610917
63857.98581906284,110829.0,19255.0,697.0,1.5296807469421765
63857.99581697621,110788.0,19286.0,713.0,1.5396786603159853
63858.00581488959,110779.0,19244.0,715.0,1.5496765736970701
63858.01581280297,110821.0,19257.0,668.0,1.559674487078155
63858.025810716346,110807.0,19251.0,699.0,1.5696724004519638
63858.03580862973,110793.0,19268.0,715.0,1.5796703138330486
63858.04580654311,110828.0,19269.0,723.0,1.5896682272141334
63858.05580445648,110817.0,19252.0,715.0,1.5996661405879422
63858.06580236986,110808.0,19248.0,693.0,1.609664053969027
63858.075800283244,110814.0,19253.0,687.0,1.6196619673501118
63858.08579819662,110792.0,19236.0,673.0,1.6296598807239207
63858.09579611,110806.0,19245.0,681.0,1.6396577941050055
63858.10579402338,110836.0,19263.0,700.0,1.6496557074860903
63858.115791936754,110856.0,19276.0,705.0,1.659653620859899
63858.125789850135,110820.0,19234.0,693.0,1.669651534240984
63858.13578776352,110856.0,19234.0,686.0,1.6796494476220687
63858.14578567689,110840.0,19246.0,694.0,1.6896473609958775
63858.15578359027,110811.0,19230.0,667.0,1.6996452743769623
63858.16578150365,110812.0,19268.0,696.0,1.7096431877580471
63858.175779417026,110851.0,19267.0,685.0,1.719641101131856
63858.18577733041,110845.0,19264.0,702.0,1.7296390145129408
63858.19577524379,110854.0,19255.0,675.0,1.7396369278940256
63858.20577315716,110845.0,19267.0,692.0,1.7496348412678344
63858.21577107054,110824.0,19248.0,689.0,1.7596327546489192
63858.225768983924,110847.0,19258.0,692.0,1.769630668030004
63858.2357668973,110848.0,19256.0,712.0,1.7796285814038129
63858.24576481068,110856.0,19257.0,724.0,1.7896264947848977
63858.25576272406,110864.0,19283.0,702.0,1.7996244081659825
63858.265760637434,110847.0,19247.0,697.0,1.8096223215397913
63858.275758550815,110859.0,19241.0,695.0,1.819620234920876
63858.285756464196,110860.0,19274.0,712.0,1.829618148301961
63858.29575437757,110828.0,19235.0,691.0,1.8396160616757697
63858.30575229095,110870.0,19253.0,685.0,1.8496139750568545
63858.31575020433,110853.0,19250.0,688.0,1.8596118884379393
63858.32574811771,110859.0,19246.0,696.0,1.8696098018190241
63858.33574603109,110854.0,19267.0,700.0,1.879607715192833
63858.34574394447,110874.0,19265.0,697.0,1.8896056285739178
63858.35574185785,110873.0,19264.0,679.0,1.8996035419550026
63858.36573977122,110884.0,19254.0,673.0,1.9096014553288114
63858.375737684604,110915.0,19276.0,721.0,1.9195993687098962
63858.385735597985,110892.0,19264.0,687.0,1.929597282090981
63858.39573351136,110871.0,19260.0,670.0,1.9395951954647899
63858.40573142474,110911.0,19284.0,712.0,1.9495931088458747
63858.41572933812,110858.0,19242.0,673.0,1.9595910222269595
63858.425727251495,110914.0,19261.0,686.0,1.9695889356007683
63858.435725164876,110927.0,19283.0,666.0,1.979586848981853
63858.44572307826,110916.0,19239.0,681.0,1.989584762362938
63858.45572099163,110915.0,19291.0,718.0,1.9995826757367468
63858.46571890501,110904.0,19253.0,707.0,2.0095805891178316
63858.47571681839,110906.0,19251.0,691.0,2.0195785024989164
63858.48571473177,110909.0,19223.0,693.0,2.029576415872725
63858.49571264515,110904.0,19253.0,709.0,2.03957432925381
63858.50571055853,110920.0,19255.0,684.0,2.049572242634895
63858.5157084719,110907.0,19272.0,710.0,2.0595701560087036
63858.525706385284,110952.0,19275.0,699.0,2.0695680693897884
63858.535704298665,110924.0,19257.0,673.0,2.0795659827708732
63858.54570221204,110921.0,19264.0,720.0,2.089563896144682
63858.55570012542,110939.0,19259.0,730.0,2.099561809525767
63858.5656980388,110921.0,19238.0,702.0,2.1095597229068517
63858.575695952175,110964.0,19266.0,710.0,2.1195576362806605
63858.585693865556,110941.0,19269.0,690.0,2.1295555496617453
63858.59569177894,110948.0,19271.0,694.0,2.13955346304283
63858.60568969231,110980.0,19270.0,679.0,2.149551376416639
63858.61568760569,110939.0,19251.0,712.0,2.1595492897977238
63858.62568551907,110965.0,19261.0,706.0,2.1695472031788086
63858.63568343245,110965.0,19260.0,695.0,2.1795451165526174
63858.64568134583,110970.0,19251.0,685.0,2.189543029933702
63858.65567925921,110965.0,19252.0,697.0,2.199540943314787
63858.66567717258,110971.0,19291.0,713.0,2.209538856688596
63858.675675085964,110961.0,19259.0,702.0,2.2195367700696806
63858.685672999345,110949.0,19254.0,705.0,2.2295346834507654
63858.69567091272,110987.0,19279.0,726.0,2.2395325968245743
63858.7056688261,110973.0,19232.0,689.0,2.249530510205659
63858.71566673948,110976.0,19249.0,692.0,2.259528423586744
63858.725664652855,110975.0,19247.0,703.0,2.2695263369605527
63858.735662566236,110967.0,19254.0,681.0,2.2795242503416375
63858.74566047962,110963.0,19286.0,705.0,2.2895221637227223
63858.75565839299,110968.0,19258.0,688.0,2.299520077096531
63858.76565630637,110975.0,19257.0,681.0,2.309517990477616
63858.77565421975,110941.0,19259.0,666.0,2.3195159038587008
63858.78565213313,110914.0,19283.0,712.0,2.3295138172325096
63858.79565004651,110877.0,19245.0,676.0,2.3395117306135944
63858.80564795989,110862.0,19247.0,692.0,2.349509643994679
63858.81564587326,110855.0,19277.0,718.0,2.359507557368488
63858.825643786644,110812.0,19247.0,664.0,2.369505470749573
63858.835641700025,110827.0,19256.0,697.0,2.3795033841306577
63858.8456396134,110841.0,19290.0,711.0,2.3895012975044665
63858.85563752678,110767.0,19245.0,676.0,2.3994992108855513
63858.86563544016,110814.0,19273.0,689.0,2.409497124266636
63858.87563335354,110794.0,19251.0,688.0,2.419495037647721
63858.885631266916,110794.0,19250.0,683.0,2.4294929510215297
63858.8956291803,110828.0,19250.0,685.0,2.4394908644026145
63858.90562709368,110761.0,19229.0,676.0,2.4494887777836993
63858.91562500705,110791.0,19249.0,690.0,2.459486691157508
63858.92562292043,110800.0,19265.0,718.0,2.469484604538593
63858.935620833814,110745.0,19246.0,672.0,2.4794825179196778
63858.94561874719,110776.0,19240.0,686.0,2.4894804312934866
63858.95561666057,110786.0,19251.0,702.0,2.4994783446745714
63858.96561457395,110779.0,19278.0,712.0,2.509476258055656
63858.975612487324,110756.0,19225.0,676.0,2.519474171429465
63858.985610400705,110808.0,19265.0,715.0,2.52947208481055
63858.995608314086,110807.0,19247.0,695.0,2.5394699981916347
63859.00560622746,110837.0,19238.0,667.0,2.5494679115654435
63859.01560414084,110850.0,19271.0,701.0,2.5594658249465283
63859.02560205422,110803.0,19241.0,721.0,2.569463738327613
63859.035599967596,110808.0,19263.0,695.0,2.579461651701422
63859.04559788098,110832.0,19266.0,706.0,2.5894595650825067
63859.05559579436,110809.0,19236.0,650.0,2.5994574784635915
63859.06559370773,110820.0,19220.0,688.0,2.6094553918374004
63859.07559162111,110804.0,19259.0,700.0,2.619453305218485
63859.085589534494,110820.0,19293.0,696.0,2.62945121859957
63859.09558744787,110786.0,19264.0,692.0,2.639449131973379
63859.10558536125,110838.0,19265.0,714.0,2.6494470453544636
63859.11558327463,110820.0,19258.0,692.0,2.6594449587355484
63859.125581188004,110791.0,19234.0,696.0,2.6694428721093573
63859.135579101385,110810.0,19258.0,719.0,2.679440785490442
63859.145577014766,110789.0,19227.0,683.0,2.689438698871527
63859.15557492814,110811.0,19256.0,702.0,2.6994366122453357
63859.16557284152,110833.0,19287.0,702.0,2.7094345256264205
63859.1755707549,110842.0,19254.0,685.0,2.7194324390075053
63859.185568668276,110833.0,19244.0,642.0,2.729430352381314
63859.19556658166,110846.0,19264.0,737.0,2.739428265762399
63859.20556449504,110818.0,19258.0,698.0,2.7494261791434838
63859.21556240841,110825.0,19263.0,688.0,2.7594240925172926
63859.22556032179,110859.0,19278.0,713.0,2.7694220058983774
63859.235558235174,110844.0,19273.0,690.0,2.779419919279462
63859.24555614855,110851.0,19229.0,699.0,2.789417832653271
63859.25555406193,110827.0,19258.0,688.0,2.799415746034356
63859.26555197531,110830.0,19262.0,683.0,2.8094136594154406
63859.27554988868,110859.0,19259.0,695.0,2.8194115727892495
63859.285547802065,110862.0,19252.0,699.0,2.8294094861703343
63859.295545715446,110873.0,19291.0,694.0,2.839407399551419
63859.30554362882,110851.0,19232.0,676.0,2.849405312925228
63859.3155415422,110882.0,19286.0,719.0,2.8594032263063127
63859.32553945558,110841.0,19249.0,666.0,2.8694011396873975
63859.335537368956,110850.0,19254.0,703.0,2.8793990530612064
63859.34553528234,110891.0,19288.0,713.0,2.889396966442291
63859.35553319572,110838.0,19240.0,699.0,2.899394879823376
63859.36553110909,110878.0,19261.0,692.0,2.909392793197185
63859.37552902247,110879.0,19241.0,711.0,2.9193907065782696
63859.385526935854,110882.0,19241.0,679.0,2.9293886199593544
63859.39552484923,110886.0,19240.0,716.0,2.9393865333331632
63859.40552276261,110888.0,19261.0,702.0,2.949384446714248
63859.41552067599,110899.0,19255.0,674.0,2.959382360095333
63859.42551858936,110910.0,19291.0,680.0,2.9693802734691417
63859.435516502745,110861.0,19265.0,673.0,2.9793781868502265
63859.445514416126,110883.0,19266.0,698.0,2.9893761002313113
63859.4555123295,110888.0,19268.0,707.0,2.99937401360512
63859.46551024288,110880.0,19231.0,686.0,3.009371926986205
63859.47550815626,110921.0,19261.0,707.0,3.0193698403672897
63859.48550606964,110895.0,19265.0,701.0,3.0293677537483745
63859.49550398302,110882.0,19258.0,689.0,3.0393656671221834
63859.5055018964,110874.0,19254.0,678.0,3.049363580503268
63859.51549980978,110916.0,19282.0,717.0,3.059361493884353
63859.52549772315,110911.0,19264.0,695.0,3.069359407258162
63859.53549563653,110898.0,19243.0,690.0,3.0793573206392466
63859.545493549915,110937.0,19274.0,721.0,3.0893552340203314
63859.55549146329,110893.0,19248.0,706.0,3.0993531473941403
63859.56548937667,110925.0,19259.0,687.0,3.109351060775225
63859.57548729005,110908.0,19236.0,702.0,3.11934897415631
63859.585485203424,110895.0,19249.0,669.0,3.1293468875301187
63859.595483116806,110944.0,19292.0,746.0,3.1393448009112035
63859.60548103019,110931.0,19259.0,699.0,3.1493427142922883
63859.61547894356,110908.0,19271.0,711.0,3.159340627666097
63859.62547685694,110888.0,19243.0,687.0,3.169338541047182
63859.63547477032,110901.0,19276.0,728.0,3.1793364544282667
63859.6454726837,110871.0,19253.0,697.0,3.1893343678020756
63859.65547059708,110823.0,19236.0,663.0,3.1993322811831604
63859.66546851046,110851.0,19282.0,705.0,3.209330194564245
63859.67546642383,110784.0,19267.0,709.0,3.219328107938054
63859.68546433721,110796.0,19266.0,694.0,3.229326021319139
63859.695462250595,110770.0,19254.0,702.0,3.2393239347002236
63859.70546016397,110744.0,19224.0,684.0,3.2493218480740325
63859.71545807735,110778.0,19222.0,694.0,3.2593197614551173
63859.72545599073,110792.0,19281.0,686.0,3.269317674836202
63859.735453904104,110745.0,19244.0,686.0,3.279315588210011
63859.745451817485,110721.0,19250.0,687.0,3.2893135015910957
63859.75544973087,110786.0,19264.0,722.0,3.2993114149721805
63859.76544764424,110771.0,19263.0,694.0,3.3093093283459893
63859.77544555762,110767.0,19264.0,665.0,3.319307241727074
63859.785443471,110765.0,19234.0,712.0,3.329305155108159
63859.795441384376,110772.0,19282.0,703.0,3.339303068481968
63859.80543929776,110773.0,19241.0,684.0,3.3493009818630526
63859.81543721114,110777.0,19282.0,689.0,3.3592988952441374
63859.82543512451,110760.0,19236.0,668.0,3.3692968086179462
63859.83543303789,110809.0,19277.0,677.0,3.379294721999031
63859.845430951274,110800.0,19260.0,708.0,3.389292635380116
63859.85542886465,110773.0,19251.0,699.0,3.3992905487539247
63859.86542677803,110798.0,19277.0,683.0,3.4092884621350095
63859.87542469141,110783.0,19244.0,687.0,3.4192863755160943
63859.885422604784,110791.0,19258.0,694.0,3.429284288889903
63859.895420518165,110802.0,19236.0,689.0,3.439282202270988
63859.90541843155,110785.0,19241.0,677.0,3.4492801156520727
63859.91541634492,110782.0,19248.0,669.0,3.4592780290258816
63859.9254142583,110816.0,19258.0,724.0,3.4692759424069664
63859.93541217168,110810.0,19271.0,694.0,3.479273855788051
63859.945410085056,110800.0,19246.0,692.0,3.48927176916186
63859.95540799844,110813.0,19279.0,692.0,3.499269682542945
63859.96540591182,110793.0,19224.0,686.0,3.5092675959240296
63859.97540382519,110813.0,19251.0,696.0,3.5192655092978384
63859.98540173857,110859.0,19312.0,703.0,3.5292634226789232
63859.995399651954,110828.0,19265.0,676.0,3.539261336060008
63860.00539756533,110822.0,19256.0,664.0,3.549259249433817
63860.01539547871,110816.0,19252.0,701.0,3.5592571628149017
63860.02539339209,110806.0,19262.0,721.0,3.5692550761959865
63860.035391305464,110811.0,19228.0,714.0,3.5792529895697953
63860.045389218845,110804.0,19268.0,703.0,3.58925090295088
63860.055387132226,110848.0,19261.0,698.0,3.599248816331965
63860.0653850456,110795.0,19228.0,691.0,3.6092467297057738
63860.07538295898,110835.0,19256.0,684.0,3.6192446430868586
63860.08538087236,110846.0,19260.0,674.0,3.6292425564679434
63860.09537878574,110857.0,19270.0,697.0,3.639240469849028
63860.10537669912,110861.0,19258.0,666.0,3.649238383222837
63860.1153746125,110866.0,19273.0,725.0,3.659236296603922
63860.12537252588,110840.0,19229.0,667.0,3.6692342099850066
63860.13537043925,110862.0,19259.0,701.0,3.6792321233588154
63860.145368352634,110900.0,19255.0,685.0,3.6892300367399002
63860.155366266015,110887.0,19274.0,720.0,3.699227950120985
63860.16536417939,110878.0,19247.0,691.0,3.709225863494794
63860.17536209277,110875.0,19259.0,693.0,3.7192237768758787
63860.18536000615,110911.0,19284.0,709.0,3.7292216902569635
63860.195357919525,110885.0,19273.0,715.0,3.7392196036307723
63860.205355832906,110866.0,19242.0,671.0,3.749217517011857
63860.21535374629,110899.0,19265.0,687.0,3.759215430392942
63860.22535165966,110841.0,19258.0,696.0,3.7692133437667508
63860.23534957304,110858.0,19241.0,686.0,3.7792112571478356
63860.24534748642,110864.0,19238.0,692.0,3.7892091705289204
63860.2553453998,110922.0,19242.0,712.0,3.799207083902729
63860.26534331318,110880.0,19272.0,724.0,3.809204997283814
63860.27534122656,110888.0,19240.0,709.0,3.819202910664899
63860.28533913993,110889.0,19252.0,694.0,3.8292008240387077
63860.295337053314,110915.0,19256.0,693.0,3.8391987374197925
63860.305334966695,110901.0,19252.0,731.0,3.8491966508008773
63860.31533288007,110946.0,19278.0,656.0,3.859194564174686
63860.32533079345,110893.0,19253.0,687.0,3.869192477555771
63860.33532870683,110926.0,19258.0,689.0,3.8791903909368557
63860.345326620205,110931.0,19274.0,714.0,3.8891883043106645
63860.355324533586,110932.0,19229.0,713.0,3.8991862176917493
63860.36532244697,110967.0,19271.0,714.0,3.909184131072834
63860.37532036034,110941.0,19254.0,707.0,3.919182044446643
63860.38531827372,110907.0,19269.0,679.0,3.9291799578277278
63860.3953161871,110902.0,19272.0,694.0,3.9391778712088126
63860.40531410048,110908.0,19242.0,671.0,3.9491757845826214
63860.41531201386,110961.0,19269.0,689.0,3.959173697963706
63860.42530992724,110940.0,19255.0,671.0,3.969171611344791
63860.43530784061,110936.0,19260.0,685.0,3.9791695247186
63860.445305753994,110938.0,19242.0,704.0,3.9891674380996847
63860.455303667375,110966.0,19267.0,703.0,3.9991653514807695
63860.46530158075,110937.0,19281.0,701.0,4.009163264854578
63860.47529949413,110957.0,19282.0,700.0,4.019161178235663
63860.48529740751,110901.0,19239.0,688.0,4.029159091616748
63860.495295320885,110916.0,19264.0,706.0,4.039157004990557
63860.505293234266,110918.0,19280.0,697.0,4.0491549183716415
63860.51529114765,110856.0,19244.0,714.0,4.059152831752726
63860.52528906102,110839.0,19250.0,701.0,4.069150745126535
63860.5352869744,110813.0,19250.0,674.0,4.07914865850762
63860.54528488778,110815.0,19250.0,695.0,4.089146571888705
63860.55528280116,110830.0,19273.0,661.0,4.099144485262514
63860.56528071454,110773.0,19272.0,725.0,4.109142398643598
63860.57527862792,110753.0,19248.0,680.0,4.119140312024683
63860.58527654129,110765.0,19235.0,682.0,4.129138225398492
63860.595274454674,110769.0,19227.0,683.0,4.139136138779577
63860.605272368055,110750.0,19235.0,686.0,4.149134052160662
63860.61527028143,110743.0,19253.0,704.0,4.1591319655344705
63860.62526819481,110755.0,19249.0,699.0,4.169129878915555
63860.63526610819,110729.0,19245.0,699.0,4.17912779229664
63860.64526402157,110727.0,19275.0,713.0,4.189125705677725
63860.655261934946,110750.0,19268.0,679.0,4.199123619051534
63860.66525984833,110753.0,19258.0,688.0,4.2091215324326186
63860.67525776171,110744.0,19250.0,710.0,4.219119445813703
63860.68525567508,110768.0,19264.0,722.0,4.229117359187512
63860.69525358846,110726.0,19239.0,699.0,4.239115272568597
63860.705251501844,110763.0,19251.0,697.0,4.249113185949682
63860.71524941522,110759.0,19245.0,672.0,4.259111099323491
63860.7252473286,110796.0,19286.0,680.0,4.269109012704575
63860.73524524198,110762.0,19231.0,683.0,4.27910692608566
63860.745243155354,110782.0,19260.0,697.0,4.289104839459469
63860.755241068735,110778.0,19243.0,694.0,4.299102752840554
63860.765238982116,110799.0,19269.0,699.0,4.309100666221639
63860.77523689549,110776.0,19237.0,693.0,4.3190985795954475
63860.78523480887,110760.0,19239.0,680.0,4.329096492976532
63860.79523272225,110757.0,19242.0,691.0,4.339094406357617
63860.805230635626,110789.0,19273.0,719.0,4.349092319731426
63860.81522854901,110806.0,19281.0,706.0,4.359090233112511
63860.82522646239,110784.0,19247.0,685.0,4.369088146493596
63860.83522437576,110747.0,19231.0,699.0,4.379086059867404
63860.84522228914,110796.0,19261.0,718.0,4.389083973248489
63860.855220202524,110749.0,19248.0,681.0,4.399081886629574
63860.8652181159,110784.0,19251.0,695.0,4.409079800003383
63860.87521602928,110768.0,19272.0,693.0,4.419077713384468
63860.88521394266,110808.0,19243.0,698.0,4.429075626765552
63860.895211856034,110768.0,19251.0,703.0,4.439073540139361
63860.905209769415,110800.0,19267.0,693.0,4.449071453520446
63860.915207682796,110768.0,19265.0,682.0,4.459069366901531
63860.92520559617,110811.0,19257.0,689.0,4.46906728027534
63860.93520350955,110785.0,19226.0,712.0,4.4790651936564245
63860.94520142293,110792.0,19250.0,693.0,4.489063107037509
63860.955199336306,110811.0,19255.0,672.0,4.499061020411318
63860.96519724969,110801.0,19232.0,692.0,4.509058933792403
63860.97519516307,110804.0,19241.0,693.0,4.519056847173488
63860.98519307644,110825.0,19257.0,692.0,4.529054760547297
63860.99519098982,110811.0,19243.0,674.0,4.539052673928381
63861.005188903204,110839.0,19285.0,664.0,4.549050587309466
63861.01518681658,110850.0,19250.0,693.0,4.559048500683275
63861.02518472996,110840.0,19258.0,691.0,4.56904641406436
63861.03518264334,110818.0,19243.0,719.0,4.579044327445445
63861.04518055671,110839.0,19295.0,717.0,4.5890422408192535
63861.055178470095,110863.0,19269.0,709.0,4.599040154200338
63861.065176383476,110851.0,19254.0,701.0,4.609038067581423
63861.07517429685,110833.0,19260.0,694.0,4.619035980955232
63861.08517221023,110880.0,19265.0,678.0,4.629033894336317
63861.09517012361,110841.0,19248.0,690.0,4.6390318077174015
63861.105168036986,110856.0,19260.0,687.0,4.64902972109121
63861.11516595037,110868.0,19256.0,699.0,4.659027634472295
63861.12516386375,110850.0,19249.0,673.0,4.66902554785338
63861.13516177712,110887.0,19289.0,712.0,4.679023461227189
63861.1451596905,110873.0,19260.0,666.0,4.689021374608274
63861.155157603884,110857.0,19264.0,706.0,4.699019287989358
63861.16515551726,110884.0,19299.0,710.0,4.709017201363167
63861.17515343064,110865.0,19238.0,687.0,4.719015114744252
63861.18515134402,110881.0,19267.0,703.0,4.729013028125337
63861.19514925739,110847.0,19238.0,686.0,4.739010941499146
63861.205147170775,110845.0,19234.0,689.0,4.7490088548802305
63861.215145084156,110848.0,19246.0,678.0,4.759006768261315
63861.22514299753,110907.0,19249.0,706.0,4.769004681635124
63861.23514091091,110905.0,19294.0,699.0,4.779002595016209
63861.24513882429,110889.0,19258.0,693.0,4.789000508397294
63861.25513673767,110912.0,19277.0,718.0,4.7989984217783785
63861.26513465105,110878.0,19240.0,685.0,4.808996335152187
63861.27513256443,110916.0,19268.0,703.0,4.818994248533272
63861.28513047781,110915.0,19287.0,686.0,4.828992161914357
63861.29512839118,110883.0,19256.0,677.0,4.838990075288166
63861.30512630456,110923.0,19272.0,668.0,4.848987988669251
63861.315124217945,110956.0,19249.0,717.0,4.858985902050335
63861.32512213132,110911.0,19256.0,693.0,4.868983815424144
63861.3351200447,110909.0,19292.0,707.0,4.878981728805229
63861.34511795808,110946.0,19244.0,700.0,4.888979642186314
63861.355115871454,110923.0,19262.0,699.0,4.898977555560123
63861.365113784836,110886.0,19231.0,673.0,4.9089754689412075
63861.37511169822,110882.0,19276.0,715.0,4.918973382322292
63861.38510961159,110863.0,19250.0,690.0,4.928971295696101
63861.39510752497,110875.0,19251.0,697.0,4.938969209077186
63861.40510543835,110883.0,19261.0,721.0,4.948967122458271
63861.41510335173,110813.0,19251.0,676.0,4.95896503583208
63861.42510126511,110815.0,19236.0,719.0,4.968962949213164
63861.43509917849,110774.0,19248.0,692.0,4.978960862594249
63861.44509709186,110743.0,19254.0,676.0,4.988958775968058
63861.45509500524,110746.0,19261.0,720.0,4.998956689349143
63861.465092918625,110730.0,19251.0,677.0,5.008954602730228
63861.475090832,110746.0,19245.0,690.0,5.0189525161040365
63861.48508874538,110750.0,19250.0,661.0,5.028950429485121
63861.49508665876,110755.0,19230.0,694.0,5.038948342866206
63861.505084572134,110762.0,19277.0,706.0,5.048946256240015
63861.515082485515,110737.0,19263.0,701.0,5.0589441696211
63861.5250803989,110748.0,19270.0,698.0,5.0689420830021845
63861.53507831227,110719.0,19222.0,687.0,5.078939996375993
63861.54507622565,110746.0,19261.0,716.0,5.088937909757078
63861.55507413903,110729.0,19254.0,691.0,5.098935823138163
63861.565072052406,110756.0,19270.0,699.0,5.108933736511972
63861.57506996579,110766.0,19272.0,731.0,5.118931649893057
63861.58506787917,110703.0,19275.0,697.0,5.128929563274141
63861.59506579254,110738.0,19258.0,690.0,5.13892747664795
63861.60506370592,110734.0,19251.0,694.0,5.148925390029035
63861.615061619304,110742.0,19226.0,687.0,5.15892330341012
63861.62505953268,110734.0,19256.0,695.0,5.168921216783929
63861.63505744606,110776.0,19255.0,697.0,5.1789191301650135
63861.64505535944,110789.0,19257.0,710.0,5.188917043546098
63861.655053272814,110775.0,19250.0,675.0,5.198914956919907
63861.665051186195,110814.0,19273.0,696.0,5.208912870300992
63861.67504909958,110776.0,19252.0,689.0,5.218910783682077
63861.68504701295,110757.0,19250.0,683.0,5.228908697055886
63861.69504492633,110793.0,19248.0,709.0,5.23890661043697
63861.70504283971,110775.0,19244.0,688.0,5.248904523818055
63861.715040753086,110768.0,19240.0,692.0,5.258902437191864
63861.72503866647,110807.0,19279.0,699.0,5.268900350572949
63861.73503657985,110770.0,19245.0,673.0,5.278898263954034
63861.74503449322,110786.0,19268.0,687.0,5.2888961773278425
63861.7550324066,110783.0,19257.0,690.0,5.298894090708927
63861.765030319984,110797.0,19248.0,687.0,5.308892004090012
63861.77502823336,110804.0,19240.0,689.0,5.318889917463821
63861.78502614674,110799.0,19267.0,700.0,5.328887830844906
63861.79502406012,110788.0,19253.0,694.0,5.3388857442259905
63861.8050219735,110766.0,19247.0,711.0,5.348883657607075
63861.815019886875,110806.0,19258.0,683.0,5.358881570980884
63861.825017800256,110794.0,19248.0,692.0,5.368879484361969
63861.83501571364,110811.0,19256.0,705.0,5.378877397743054
63861.84501362701,110800.0,19256.0,711.0,5.388875311116863
63861.85501154039,110791.0,19230.0,668.0,5.398873224497947
63861.86500945377,110820.0,19246.0,717.0,5.408871137879032
63861.87500736715,110792.0,19258.0,673.0,5.418869051252841
63861.88500528053,110820.0,19262.0,691.0,5.428866964633926
63861.89500319391,110846.0,19298.0,695.0,5.438864878015011
63861.90500110728,110839.0,19261.0,726.0,5.4488627913888195
63861.914999020664,110869.0,19262.0,694.0,5.458860704769904
63861.924996934045,110842.0,19284.0,681.0,5.468858618150989
63861.93499484742,110861.0,19248.0,697.0,5.478856531524798
63861.9449927608,110838.0,19237.0,685.0,5.488854444905883
63861.95499067418,110874.0,19287.0,705.0,5.4988523582869675
63861.964988587555,110858.0,19257.0,699.0,5.508850271660776
63861.974986500936,110840.0,19261.0,669.0,5.518848185041861
63861.98498441432,110884.0,19271.0,719.0,5.528846098422946
63861.99498232769,110852.0,19256.0,683.0,5.538844011796755
63862.00498024107,110869.0,19254.0,705.0,5.54884192517784
63862.01497815445,110874.0,19273.0,719.0,5.558839838558924
63862.02497606783,110861.0,19253.0,693.0,5.568837751932733
63862.03497398121,110859.0,19277.0,683.0,5.578835665313818
63862.04497189459,110889.0,19261.0,695.0,5.588833578694903
63862.05496980796,110920.0,19253.0,681.0,5.598831492068712
63862.064967721344,110887.0,19266.0,686.0,5.6088294054497965
63862.074965634725,110894.0,19278.0,722.0,5.618827318830881
63862.0849635481,110897.0,19255.0,697.0,5.62882523220469
63862.09496146148,110894.0,19277.0,696.0,5.638823145585775
63862.10495937486,110929.0,19302.0,717.0,5.64882105896686
63862.114957288235,110902.0,19234.0,677.0,5.6588189723406686
63862.124955201616,110910.0,19262.0,695.0,5.668816885721753
63862.134953115,110940.0,19289.0,694.0,5.678814799102838
63862.14495102837,110933.0,19242.0,685.0,5.688812712476647
63862.15494894175,110939.0,19288.0,697.0,5.698810625857732
63862.16494685513,110939.0,19262.0,703.0,5.708808539238817
63862.17494476851,110930.0,19245.0,690.0,5.718806452612625
63862.18494268189,110950.0,19231.0,694.0,5.72880436599371
63862.19494059527,110952.0,19235.0,699.0,5.738802279374795
63862.20493850864,110960.0,19270.0,693.0,5.748800192748604
63862.214936422024,110983.0,19289.0,697.0,5.758798106129689
63862.224934335405,110943.0,19256.0,673.0,5.7687960195107735
63862.23493224878,110967.0,19249.0,692.0,5.778793932884582
63862.24493016216,110968.0,19271.0,696.0,5.788791846265667
63862.25492807554,110961.0,19273.0,726.0,5.798789759646752
63862.264925988915,110941.0,19245.0,674.0,5.808787673020561
63862.274923902296,110959.0,19275.0,708.0,5.818785586401646
63862.28492181568,110960.0,19269.0,705.0,5.82878349978273
63862.29491972905,110944.0,19257.0,687.0,5.838781413156539
63862.30491764243,110968.0,19303.0,680.0,5.848779326537624
63862.31491555581,110904.0,19261.0,695.0,5.858777239918709
63862.32491346919,110921.0,19270.0,696.0,5.868775153292518
63862.33491138257,110905.0,19275.0,702.0,5.878773066673602
63862.34490929595,110907.0,19264.0,723.0,5.888770980054687
63862.35490720932,110866.0,19231.0,677.0,5.898768893428496
63862.364905122704,110876.0,19254.0,706.0,5.908766806809581
63862.374903036085,110826.0,19254.0,670.0,5.918764720190666
63862.38490094946,110838.0,19260.0,665.0,5.9287626335644745
63862.39489886284,110824.0,19269.0,716.0,5.938760546945559
63862.40489677622,110830.0,19262.0,695.0,5.948758460326644
63862.4148946896,110821.0,19248.0,691.0,5.958756373707729
63862.424892602976,110841.0,19276.0,699.0,5.968754287081538
63862.43489051636,110809.0,19246.0,679.0,5.978752200462623
63862.44488842974,110804.0,19261.0,688.0,5.988750113843707
63862.45488634311,110796.0,19268.0,692.0,5.998748027217516
63862.46488425649,110794.0,19274.0,686.0,6.008745940598601
63862.474882169874,110803.0,19246.0,670.0,6.018743853979686
63862.48488008325,110814.0,19267.0,717.0,6.028741767353495
63862.49487799663,110818.0,19273.0,695.0,6.0387396807345795
63862.50487591001,110833.0,19288.0,698.0,6.048737594115664
63862.514873823384,110821.0,19262.0,664.0,6.058735507489473
63862.524871736765,110785.0,19260.0,676.0,6.068733420870558
63862.534869650146,110843.0,19248.0,687.0,6.078731334251643
63862.54486756352,110864.0,19295.0,700.0,6.0887292476254515
63862.5548654769,110815.0,19255.0,692.0,6.098727161006536
63862.56486339028,110836.0,19263.0,717.0,6.108725074387621
63862.574861303656,110829.0,19262.0,705.0,6.11872298776143
63862.58485921704,110810.0,19246.0,687.0,6.128720901142515
63862.59485713042,110814.0,19244.0,701.0,6.1387188145236
63862.60485504379,110801.0,19230.0,692.0,6.148716727897408
63862.61485295717,110825.0,19256.0,695.0,6.158714641278493
63862.624850870554,110839.0,19279.0,704.0,6.168712554659578
63862.63484878393,110844.0,19249.0,722.0,6.178710468033387
63862.64484669731,110807.0,19238.0,665.0,6.188708381414472
63862.65484461069,110806.0,19260.0,697.0,6.1987062947955565
63862.664842524064,110818.0,19282.0,714.0,6.208704208169365
63862.674840437445,110814.0,19217.0,682.0,6.21870212155045
63862.684838350826,110813.0,19286.0,709.0,6.228700034931535
63862.6948362642,110834.0,19268.0,694.0,6.238697948305344
63862.70483417758,110829.0,19238.0,692.0,6.2486958616864285
63862.71483209096,110856.0,19300.0,711.0,6.258693775067513
63862.724830004336,110843.0,19247.0,680.0,6.268691688441322
63862.73482791772,110845.0,19258.0,694.0,6.278689601822407
63862.7448258311,110849.0,19265.0,694.0,6.288687515203492
63862.75482374447,110867.0,19244.0,727.0,6.298685428577301
63862.76482165785,110859.0,19247.0,697.0,6.308683341958385
63862.774819571234,110872.0,19281.0,708.0,6.31868125533947
63862.78481748461,110859.0,19285.0,705.0,6.328679168713279
63862.79481539799,110845.0,19265.0,669.0,6.338677082094364
63862.80481331137,110858.0,19252.0,671.0,6.348674995475449
63862.81481122474,110878.0,19261.0,691.0,6.3586729088492575
63862.824809138125,110884.0,19301.0,686.0,6.368670822230342
63862.834807051506,110903.0,19259.0,689.0,6.378668735611427
63862.84480496488,110860.0,19248.0,688.0,6.388666648985236
63862.85480287826,110884.0,19266.0,694.0,6.398664562366321
63862.86480079164,110868.0,19272.0,707.0,6.4086624757474056
63862.874798705016,110912.0,19261.0,705.0,6.418660389121214
63862.8847966184,110920.0,19293.0,703.0,6.428658302502299
63862.89479453178,110899.0,19263.0,698.0,6.438656215883384
63862.90479244515,110869.0,19231.0,690.0,6.448654129257193
63862.91479035853,110888.0,19282.0,693.0,6.458652042638278
63862.924788271914,110878.0,19247.0,687.0,6.468649956019362
63862.93478618529,110897.0,19264.0,695.0,6.478647869393171
63862.94478409867,110888.0,19239.0,682.0,6.488645782774256
63862.95478201205,110941.0,19284.0,686.0,6.498643696155341
63862.96477992543,110910.0,19281.0,699.0,6.508641609536426
63862.974777838805,110938.0,19263.0,695.0,6.5186395229102345
63862.984775752186,110946.0,19273.0,708.0,6.528637436291319
63862.99477366557,110938.0,19234.0,693.0,6.538635349672404
63863.00477157894,110930.0,19275.0,712.0,6.548633263046213
63863.01476949232,110946.0,19267.0,702.0,6.558631176427298
63863.0247674057,110944.0,19260.0,696.0,6.568629089808383
63863.03476531908,110961.0,19290.0,719.0,6.578627003182191
63863.04476323246,110961.0,19273.0,687.0,6.588624916563276
63863.05476114584,110971.0,19278.0,706.0,6.598622829944361
63863.06475905921,110963.0,19275.0,692.0,6.60862074331817
63863.07475697259,111002.0,19292.0,715.0,6.618618656699255
63863.084754885975,110943.0,19260.0,689.0,6.628616570080339
63863.09475279935,110992.0,19270.0,696.0,6.638614483454148
63863.10475071273,110995.0,19291.0,699.0,6.648612396835233
63863.11474862611,110966.0,19247.0,688.0,6.658610310216318
63863.124746539484,110969.0,19272.0,706.0,6.668608223590127
63863.134744452866,110976.0,19273.0,711.0,6.6786061369712115
63863.14474236625,110975.0,19269.0,716.0,6.688604050352296
63863.15474027962,110977.0,19288.0,698.0,6.698601963726105
63863.164738193,110940.0,19256.0,705.0,6.70859987710719
63863.17473610638,110917.0,19256.0,685.0,6.718597790488275
63863.18473401976,110928.0,19274.0,701.0,6.728595703862084
63863.19473193314,110954.0,19277.0,720.0,6.738593617243168
63863.20472984652,110934.0,19289.0,721.0,6.748591530624253
63863.21472775989,110920.0,19261.0,710.0,6.758589443998062
63863.22472567327,110900.0,19268.0,701.0,6.768587357379147
63863.234723586655,110887.0,19257.0,690.0,6.778585270760232
63863.24472150003,110923.0,19282.0,708.0,6.7885831841340405
63863.25471941341,110862.0,19245.0,681.0,6.798581097515125
63863.26471732679,110899.0,19276.0,700.0,6.80857901089621
63863.274715240164,110865.0,19295.0,688.0,6.818576924270019
63863.284713153545,110903.0,19290.0,732.0,6.828574837651104
63863.29471106693,110890.0,19264.0,665.0,6.8385727510321885
63863.3047089803,110915.0,19251.0,719.0,6.848570664405997
63863.31470689368,110869.0,19271.0,716.0,6.858568577787082
63863.32470480706,110886.0,19278.0,729.0,6.868566491168167
63863.334702720436,110901.0,19303.0,708.0,6.878564404541976
63863.34470063382,110885.0,19271.0,702.0,6.888562317923061
63863.3546985472,110887.0,19256.0,706.0,6.898560231304145
63863.36469646057,110888.0,19285.0,676.0,6.908558144677954
63863.37469437395,110874.0,19271.0,675.0,6.918556058059039
63863.384692287334,110905.0,19273.0,694.0,6.928553971440124
63863.39469020071,110877.0,19287.0,692.0,6.938551884813933
63863.40468811409,110884.0,19266.0,706.0,6.9485497981950175
63863.41468602747,110932.0,19287.0,688.0,6.958547711576102
63863.424683940844,110906.0,19275.0,695.0,6.968545624949911
63863.434681854225,110844.0,19292.0,665.0,6.978543538330996
63863.44467976761,110860.0,19278.0,691.0,6.988541451712081
63863.45467768098,110907.0,19297.0,698.0,6.99853936508589
63863.46467559436,110897.0,19265.0,694.0,7.008537278466974
63863.47467350774,110922.0,19269.0,700.0,7.018535191848059
63863.484671421116,110916.0,19288.0,722.0,7.028533105221868
63863.4946693345,110888.0,19265.0,714.0,7.038531018602953
63863.50466724788,110902.0,19277.0,695.0,7.048528931984038
63863.51466516125,110892.0,19247.0,689.0,7.0585268453578465
63863.52466307463,110931.0,19285.0,689.0,7.068524758738931
63863.534660988014,110928.0,19287.0,675.0,7.078522672120016
63863.54465890139,110906.0,19264.0,693.0,7.088520585493825
63863.55465681477,110898.0,19252.0,718.0,7.09851849887491
63863.56465472815,110895.0,19262.0,722.0,7.1085164122559945
63863.57465264153,110893.0,19255.0,684.0,7.118514325637079
63863.584650554905,110895.0,19265.0,699.0,7.128512239010888
63863.594648468286,110909.0,19261.0,658.0,7.138510152391973
63863.60464638167,110943.0,19297.0,689.0,7.148508065773058
63863.61464429504,110889.0,19278.0,702.0,7.158505979146867
63863.62464220842,110916.0,19269.0,696.0,7.168503892527951
63863.6346401218,110900.0,19258.0,672.0,7.178501805909036
63863.64463803518,110901.0,19246.0,698.0,7.188499719282845
63863.65463594856,110911.0,19232.0,688.0,7.19849763266393
63863.66463386194,110919.0,19277.0,693.0,7.208495546045015
63863.67463177531,110946.0,19290.0,663.0,7.2184934594188235
63863.684629688694,110937.0,19246.0,665.0,7.228491372799908
63863.694627602075,110916.0,19278.0,679.0,7.238489286180993
63863.70462551545,110922.0,19253.0,694.0,7.248487199554802
63863.71462342883,110944.0,19294.0,718.0,7.258485112935887
63863.72462134221,110948.0,19273.0,721.0,7.2684830263169715
63863.734619255585,110933.0,19262.0,688.0,7.27848093969078
63863.744617168966,110942.0,19276.0,681.0,7.288478853071865
63863.75461508235,110926.0,19259.0,715.0,7.29847676645295
63863.76461299572,110909.0,19287.0,667.0,7.308474679826759
63863.7746109091,110959.0,19280.0,678.0,7.318472593207844
63863.78460882248,110945.0,19260.0,729.0,7.328470506588928
63863.79460673586,110935.0,19269.0,703.0,7.338468419962737
63863.80460464924,110914.0,19268.0,681.0,7.348466333343822
63863.81460256262,110948.0,19268.0,678.0,7.358464246724907
63863.82460047599,110950.0,19269.0,684.0,7.368462160098716
63863.834598389374,110952.0,19282.0,667.0,7.3784600734798005
63863.844596302755,110943.0,19271.0,694.0,7.388457986860885
63863.85459421613,110954.0,19267.0,702.0,7.398455900234694
63863.86459212951,110962.0,19265.0,680.0,7.408453813615779
63863.87459004289,110954.0,19275.0,684.0,7.418451726996864
63863.884587956265,110965.0,19265.0,664.0,7.428449640370673
63863.894585869646,110961.0,19245.0,702.0,7.438447553751757
63863.90458378303,110963.0,19267.0,692.0,7.448445467132842
63863.9145816964,110970.0,19281.0,697.0,7.458443380506651
63863.92457960978,110941.0,19280.0,691.0,7.468441293887736
63863.93457752316,110966.0,19244.0,693.0,7.478439207268821
63863.94457543654,110966.0,19264.0,694.0,7.4884371206426295
63863.95457334992,110983.0,19277.0,698.0,7.498435034023714
63863.9645712633,110983.0,19264.0,713.0,7.508432947404799
63863.97456917667,110971.0,19277.0,694.0,7.518430860778608
63863.984567090054,110950.0,19285.0,697.0,7.528428774159693
63863.994565003435,110961.0,19279.0,692.0,7.5384266875407775
63864.00456291681,110988.0,19279.0,685.0,7.548424600914586
63864.01456083019,110950.0,19268.0,684.0,7.558422514295671
63864.02455874357,110922.0,19298.0,688.0,7.568420427676756
63864.034556656945,110951.0,19269.0,691.0,7.578418341050565
63864.044554570326,110919.0,19263.0,708.0,7.58841625443165
63864.05455248371,110923.0,19242.0,723.0,7.598414167812734
63864.06455039708,110863.0,19246.0,675.0,7.608412081186543
63864.07454831046,110855.0,19261.0,688.0,7.618409994567628
63864.08454622384,110853.0,19280.0,711.0,7.628407907948713
63864.09454413722,110792.0,19258.0,690.0,7.638405821322522
63864.1045420506,110866.0,19296.0,736.0,7.6484037347036065
63864.11453996398,110799.0,19263.0,701.0,7.658401648084691
63864.12453787736,110828.0,19272.0,679.0,7.668399561465776
63864.134535790734,110797.0,19247.0,691.0,7.678397474839585
63864.144533704115,110786.0,19253.0,695.0,7.68839538822067
63864.154531617496,110796.0,19256.0,687.0,7.6983933016017545
63864.16452953087,110750.0,19273.0,697.0,7.708391214975563
63864.17452744425,110783.0,19261.0,685.0,7.718389128356648
63864.18452535763,110788.0,19259.0,689.0,7.728387041737733
63864.194523271006,110791.0,19258.0,695.0,7.738384955111542
63864.20452118439,110784.0,19274.0,692.0,7.748382868492627
63864.21451909777,110766.0,19260.0,672.0,7.758380781873711
63864.22451701114,110792.0,19296.0,720.0,7.76837869524752
63864.23451492452,110798.0,19274.0,693.0,7.778376608628605
63864.244512837904,110799.0,19242.0,690.0,7.78837452200969
63864.25451075128,110829.0,19296.0,689.0,7.798372435383499
63864.26450866466,110809.0,19247.0,671.0,7.8083703487645835
63864.27450657804,110814.0,19260.0,690.0,7.818368262145668
63864.284504491414,110843.0,19275.0,697.0,7.828366175519477
63864.294502404795,110802.0,19258.0,685.0,7.838364088900562
63864.304500318176,110811.0,19227.0,692.0,7.848362002281647
63864.31449823155,110830.0,19261.0,696.0,7.8583599156554556
63864.32449614493,110821.0,19249.0,691.0,7.86835782903654
63864.33449405831,110804.0,19239.0,681.0,7.878355742417625
63864.344491971686,110843.0,19285.0,716.0,7.888353655791434
63864.35448988507,110828.0,19261.0,691.0,7.898351569172519
63864.36448779845,110808.0,19254.0,700.0,7.908349482553604
63864.37448571182,110834.0,19279.0,705.0,7.918347395927412
63864.3844836252,110801.0,19242.0,684.0,7.928345309308497
63864.394481538584,110840.0,19271.0,690.0,7.938343222689582
63864.40447945196,110845.0,19274.0,700.0,7.948341136063391
63864.41447736534,110822.0,19271.0,685.0,7.958339049444476
63864.42447527872,110857.0,19268.0,662.0,7.9683369628255605
63864.434473192094,110862.0,19267.0,700.0,7.978334876199369
63864.444471105475,110844.0,19271.0,698.0,7.988332789580454
63864.454469018856,110858.0,19272.0,678.0,7.998330702961539
63864.46446693223,110888.0,19265.0,723.0,8.008328616335348
63864.47446484561,110861.0,19267.0,675.0,8.018326529716433
63864.48446275899,110828.0,19261.0,700.0,8.028324443097517
63864.494460672366,110841.0,19286.0,692.0,8.038322356471326
63864.50445858575,110855.0,19248.0,677.0,8.048320269852411
63864.51445649913,110899.0,19270.0,714.0,8.058318183233496
63864.5244544125,110879.0,19292.0,700.0,8.068316096607305
63864.53445232588,110882.0,19264.0,684.0,8.07831400998839
63864.544450239264,110900.0,19246.0,703.0,8.088311923369474
63864.55444815264,110871.0,19249.0,677.0,8.098309836743283
63864.56444606602,110887.0,19258.0,690.0,8.108307750124368
63864.5744439794,110898.0,19254.0,675.0,8.118305663505453
63864.58444189277,110890.0,19266.0,690.0,8.128303576879262
63864.594439806155,110900.0,19261.0,655.0,8.138301490260346
63864.604437719536,110900.0,19267.0,691.0,8.148299403641431
63864.61443563291,110902.0,19254.0,732.0,8.15829731701524
63864.62443354629,110913.0,19260.0,684.0,8.168295230396325
63864.63443145967,110933.0,19311.0,755.0,8.17829314377741
63864.644429373046,110913.0,19266.0,698.0,8.188291057151218
63864.65442728643,110894.0,19284.0,700.0,8.198288970532303
63864.66442519981,110936.0,19289.0,693.0,8.208286883913388
63864.67442311318,110901.0,19261.0,690.0,8.218284797287197
63864.68442102656,110927.0,19268.0,689.0,8.228282710668282
63864.694418939944,110940.0,19259.0,732.0,8.238280624049366
63864.70441685332,110923.0,19243.0,697.0,8.248278537423175
63864.7144147667,110950.0,19253.0,695.0,8.25827645080426
63864.72441268008,110943.0,19270.0,696.0,8.268274364185345
63864.73441059346,110926.0,19291.0,701.0,8.27827227756643
63864.744408506835,110911.0,19265.0,697.0,8.288270190940239
63864.754406420216,110932.0,19264.0,710.0,8.298268104321323
63864.7644043336,110924.0,19246.0,683.0,8.308266017702408
63864.77440224697,110924.0,19281.0,704.0,8.318263931076217
63864.78440016035,110981.0,19270.0,716.0,8.328261844457302
63864.79439807373,110932.0,19255.0,684.0,8.338259757838387
63864.80439598711,110948.0,19271.0,700.0,8.348257671212195
63864.81439390049,110975.0,19283.0,703.0,8.35825558459328
63864.82439181387,110944.0,19253.0,680.0,8.368253497974365
63864.83438972724,110994.0,19289.0,686.0,8.378251411348174
63864.84438764062,110977.0,19267.0,694.0,8.388249324729259
63864.854385554005,110939.0,19271.0,680.0,8.398247238110343
63864.86438346738,110983.0,19305.0,695.0,8.408245151484152
63864.87438138076,110969.0,19249.0,698.0,8.418243064865237
63864.88437929414,110979.0,19269.0,699.0,8.428240978246322
63864.894377207514,110966.0,19266.0,707.0,8.43823889162013
63864.904375120896,110954.0,19258.0,710.0,8.448236805001216
63864.91437303428,110930.0,19266.0,697.0,8.4582347183823
63864.92437094765,110948.0,19260.0,696.0,8.46823263175611
63864.93436886103,110969.0,19268.0,713.0,8.478230545137194
63864.94436677441,110903.0,19254.0,684.0,8.488228458518279
63864.95436468779,110914.0,19292.0,717.0,8.498226371892088
63864.96436260117,110875.0,19264.0,696.0,8.508224285273172
63864.97436051455,110868.0,19270.0,710.0,8.518222198654257
63864.98435842792,110840.0,19295.0,717.0,8.528220112028066
63864.9943563413,110812.0,19266.0,686.0,8.53821802540915
63865.004354254685,110816.0,19268.0,699.0,8.548215938790236
63865.01435216806,110820.0,19258.0,664.0,8.558213852164045
63865.02435008144,110780.0,19238.0,697.0,8.56821176554513
63865.03434799482,110798.0,19241.0,691.0,8.578209678926214
63865.044345908194,110793.0,19264.0,702.0,8.588207592300023
63865.054343821575,110784.0,19234.0,685.0,8.598205505681108
63865.06434173496,110781.0,19248.0,689.0,8.608203419062193
63865.07433964833,110797.0,19241.0,702.0,8.618201332436001
63865.08433756171,110782.0,19259.0,664.0,8.628199245817086
63865.09433547509,110746.0,19251.0,709.0,8.638197159198171
63865.104333388466,110804.0,19280.0,713.0,8.64819507257198
63865.11433130185,110777.0,19240.0,680.0,8.658192985953065
63865.12432921523,110800.0,19263.0,697.0,8.66819089933415
63865.1343271286,110795.0,19270.0,685.0,8.678188812707958
63865.14432504198,110784.0,19248.0,704.0,8.688186726089043
63865.154322955364,110790.0,19284.0,709.0,8.698184639470128
63865.16432086874,110812.0,19278.0,702.0,8.708182552843937
63865.17431878212,110805.0,19273.0,693.0,8.718180466225022
63865.1843166955,110817.0,19280.0,675.0,8.728178379606106
63865.194314608874,110828.0,19277.0,700.0,8.738176292979915
63865.204312522255,110826.0,19256.0,706.0,8.748174206361
63865.21431043564,110818.0,19265.0,685.0,8.758172119742085
63865.22430834901,110831.0,19290.0,700.0,8.768170033115894
63865.23430626239,110790.0,19250.0,674.0,8.778167946496978
63865.24430417577,110815.0,19292.0,700.0,8.788165859878063
63865.254302089146,110823.0,19258.0,694.0,8.798163773251872
63865.26430000253,110810.0,19236.0,708.0,8.808161686632957
63865.27429791591,110812.0,19262.0,681.0,8.818159600014042
63865.28429582928,110816.0,19239.0,694.0,8.82815751338785
63865.29429374266,110796.0,19234.0,682.0,8.838155426768935
63865.304291656044,110809.0,19245.0,689.0,8.84815334015002
63865.314289569425,110824.0,19281.0,705.0,8.858151253531105
63865.3242874828,110799.0,19261.0,681.0,8.868149166904914
63865.33428539618,110839.0,19272.0,695.0,8.878147080285999
63865.34428330956,110857.0,19264.0,717.0,8.888144993667083
63865.354281222935,110830.0,19254.0,684.0,8.898142907040892
63865.364279136316,110844.0,19266.0,710.0,8.908140820421977
63865.3742770497,110856.0,19269.0,704.0,8.918138733803062
63865.38427496307,110853.0,19244.0,682.0,8.92813664717687
63865.39427287645,110848.0,19286.0,706.0,8.938134560557955
63865.40427078983,110864.0,19259.0,681.0,8.94813247393904
63865.41426870321,110884.0,19270.0,694.0,8.958130387312849
63865.42426661659,110925.0,19281.0,679.0,8.968128300693934
63865.43426452997,110866.0,19245.0,717.0,8.978126214075019
63865.44426244334,110881.0,19274.0,700.0,8.988124127448827
63865.454260356724,110882.0,19265.0,706.0,8.998122040829912
63865.464258270105,110899.0,19243.0,691.0,9.008119954210997
63865.47425618348,110861.0,19252.0,670.0,9.018117867584806
63865.48425409686,110888.0,19282.0,705.0,9.02811578096589
63865.49425201024,110898.0,19276.0,694.0,9.038113694346976
63865.504249923615,110891.0,19247.0,707.0,9.048111607720784
63865.514247836996,110908.0,19295.0,704.0,9.05810952110187
63865.52424575038,110897.0,19244.0,701.0,9.068107434482954
63865.53424366375,110906.0,19262.0,693.0,9.078105347856763
63865.54424157713,110922.0,19264.0,710.0,9.088103261237848
63865.55423949051,110872.0,19276.0,698.0,9.098101174618932
63865.56423740389,110892.0,19283.0,701.0,9.108099087992741
63865.57423531727,110902.0,19277.0,693.0,9.118097001373826
63865.58423323065,110897.0,19250.0,667.0,9.12809491475491
63865.59423114402,110931.0,19262.0,680.0,9.13809282812872
63865.604229057404,110933.0,19280.0,721.0,9.148090741509805
63865.614226970785,110923.0,19267.0,693.0,9.15808865489089
63865.62422488416,110910.0,19256.0,684.0,9.168086568264698
63865.63422279754,110949.0,19289.0,724.0,9.178084481645783
63865.64422071092,110933.0,19259.0,696.0,9.188082395026868
63865.654218624295,110931.0,19274.0,709.0,9.198080308400677
63865.664216537676,110926.0,19270.0,696.0,9.208078221781761
63865.67421445106,110944.0,19258.0,688.0,9.218076135162846
63865.68421236443,110987.0,19287.0,730.0,9.228074048536655
63865.69421027781,110954.0,19291.0,717.0,9.23807196191774
63865.70420819119,110932.0,19236.0,681.0,9.248069875298825
63865.71420610457,110942.0,19241.0,692.0,9.258067788672633
63865.72420401795,110969.0,19294.0,717.0,9.268065702053718
63865.73420193133,110958.0,19271.0,688.0,9.278063615434803
63865.7441998447,110949.0,19289.0,724.0,9.288061528808612
63865.754197758084,110933.0,19259.0,696.0,9.298059442189697
63865.764195671465,110931.0,19274.0,709.0,9.308057355570782
63865.77419358484,110926.0,19270.0,696.0,9.31805526894459
63865.78419149822,110944.0,19258.0,688.0,9.328053182325675
63865.7941894116,110987.0,19287.0,730.0,9.33805109570676
63865.804187324975,110954.0,19291.0,717.0,9.348049009080569
63865.814185238356,110932.0,19236.0,681.0,9.358046922461654
63865.82418315174,110942.0,19241.0,692.0,9.368044835842738
63865.83418106511,110969.0,19294.0,717.0,9.378042749216547
63865.84417897849,110958.0,19271.0,688.0,9.388040662597632
63865.85417689187,110965.0,19273.0,695.0,9.398038575978717
63865.86417480525,110981.0,19290.0,708.0,9.408036489352526
63865.87417271863,110979.0,19292.0,690.0,9.41803440273361
63865.88417063201,110984.0,19269.0,719.0,9.428032316114695
63865.89416854539,110963.0,19276.0,703.0,9.43803022949578
63865.904166458764,110951.0,19265.0,686.0,9.448028142869589
63865.914164372145,110961.0,19311.0,717.0,9.458026056250674
63865.924162285526,110941.0,19279.0,669.0,9.468023969631759
63865.9341601989,110973.0,19264.0,684.0,9.478021883005567
63865.94415811228,110991.0,19294.0,696.0,9.488019796386652
63865.95415602566,110907.0,19268.0,680.0,9.498017709767737
63865.964153939036,110931.0,19267.0,697.0,9.508015623141546
63865.97415185242,110913.0,19279.0,690.0,9.51801353652263
63865.9841497658,110872.0,19241.0,685.0,9.528011449903715
63865.99414767917,110894.0,19276.0,724.0,9.538009363277524
63866.00414559255,110860.0,19268.0,698.0,9.548007276658609
63866.014143505934,110835.0,19258.0,691.0,9.558005190039694
63866.02414141931,110792.0,19271.0,684.0,9.568003103413503
63866.03413933269,110829.0,19288.0,718.0,9.578001016794587
63866.04413724607,110777.0,19239.0,675.0,9.587998930175672
63866.054135159444,110799.0,19263.0,692.0,9.597996843549481
63866.064133072825,110780.0,19264.0,679.0,9.607994756930566
63866.074130986206,110778.0,19278.0,690.0,9.61799267031165
63866.08412889958,110751.0,19278.0,705.0,9.62799058368546
63866.09412681296,110785.0,19269.0,704.0,9.637988497066544
63866.10412472634,110773.0,19258.0,673.0,9.64798641044763
63866.114122639716,110772.0,19256.0,675.0,9.657984323821438
63866.1241205531,110799.0,19266.0,716.0,9.667982237202523
63866.13411846648,110784.0,19266.0,700.0,9.677980150583608
63866.14411637985,110788.0,19247.0,691.0,9.687978063957416
63866.15411429323,110808.0,19272.0,737.0,9.697975977338501
63866.164112206614,110775.0,19249.0,675.0,9.707973890719586
63866.17411011999,110792.0,19263.0,689.0,9.717971804093395
63866.18410803337,110804.0,19303.0,707.0,9.72796971747448
63866.19410594675,110770.0,19265.0,668.0,9.737967630855564
63866.204103860124,110835.0,19285.0,714.0,9.747965544229373
63866.214101773505,110809.0,19262.0,700.0,9.757963457610458
63866.224099686886,110803.0,19250.0,694.0,9.767961370991543
63866.23409760026,110812.0,19225.0,685.0,9.777959284365352
63866.24409551364,110810.0,19261.0,702.0,9.787957197746437
63866.25409342702,110809.0,19266.0,689.0,9.797955111127521
63866.264091340396,110783.0,19260.0,694.0,9.80795302450133
63866.27408925378,110828.0,19288.0,703.0,9.817950937882415
63866.28408716716,110804.0,19261.0,669.0,9.8279488512635
63866.29408508053,110811.0,19271.0,696.0,9.837946764637309
63866.30408299391,110780.0,19251.0,729.0,9.847944678018393
63866.314080907294,110806.0,19270.0,686.0,9.857942591399478
63866.32407882067,110827.0,19291.0,712.0,9.867940504773287
63866.33407673405,110834.0,19268.0,713.0,9.877938418154372
63866.34407464743,110820.0,19255.0,666.0,9.887936331535457
63866.3540725608,110836.0,19287.0,658.0,9.897934244909266
63866.364070474185,110816.0,19246.0,675.0,9.90793215829035
63866.374068387566,110825.0,19262.0,683.0,9.917930071671435
63866.38406630094,110839.0,19271.0,713.0,9.927927985045244
63866.39406421432,110844.0,19240.0,704.0,9.937925898426329
63866.4040621277,110864.0,19261.0,721.0,9.947923811807414
63866.414060041076,110836.0,19251.0,693.0,9.957921725181222
63866.42405795446,110866.0,19276.0,700.0,9.967919638562307
63866.43405586784,110812.0,19264.0,677.0,9.977917551943392
63866.44405378121,110871.0,19295.0,710.0,9.9879154653172
63866.45405169459,110849.0,19264.0,694.0,9.997913378698286
63866.464049607974,110832.0,19249.0,691.0,10.00791129207937
63866.47404752135,110856.0,19244.0,690.0,10.01790920545318
63866.48404543473,110854.0,19260.0,685.0,10.027907118834264
63866.49404334811,110872.0,19266.0,690.0,10.037905032215349
63866.50404126149,110873.0,19298.0,689.0,10.047902945596434
63866.514039174865,110859.0,19272.0,681.0,10.057900858970243
63866.524037088246,110877.0,19266.0,671.0,10.067898772351327
63866.53403500163,110883.0,19271.0,691.0,10.077896685732412
63866.544032915,110873.0,19253.0,726.0,10.087894599106221
63866.55403082838,110851.0,19249.0,676.0,10.097892512487306
63866.56402874176,110896.0,19276.0,701.0,10.10789042586839
63866.57402665514,110854.0,19271.0,681.0,10.1178883392422
63866.58402456852,110898.0,19240.0,687.0,10.127886252623284
63866.5940224819,110923.0,19265.0,693.0,10.137884166004369
63866.60402039527,110860.0,19263.0,678.0,10.147882079378178
63866.61401830865,110886.0,19264.0,688.0,10.157879992759263
63866.624016222035,110898.0,19280.0,696.0,10.167877906140347
63866.63401413541,110908.0,19295.0,705.0,10.177875819514156
63866.64401204879,110938.0,19271.0,706.0,10.187873732895241
63866.65400996217,110889.0,19285.0,717.0,10.197871646276326
63866.664007875544,110901.0,19271.0,687.0,10.207869559650135
63866.674005788926,110900.0,19259.0,695.0,10.21786747303122
63866.68400370231,110892.0,19278.0,678.0,10.227865386412304
63866.69400161568,110902.0,19262.0,684.0,10.237863299786113
63866.70399952906,110917.0,19274.0,697.0,10.247861213167198
63866.71399744244,110918.0,19277.0,718.0,10.257859126548283
63866.72399535582,110899.0,19256.0,687.0,10.267857039922092
63866.7339932692,110924.0,19311.0,718.0,10.277854953303176
63866.74399118258,110915.0,19272.0,701.0,10.287852866684261
63866.75398909595,110936.0,19272.0,718.0,10.29785078005807
63866.76398700933,110945.0,19277.0,691.0,10.307848693439155
63866.773984922715,110941.0,19250.0,704.0,10.31784660682024
63866.78398283609,110936.0,19271.0,699.0,10.327844520194049
63866.79398074947,110935.0,19262.0,694.0,10.337842433575133
63866.80397866285,110898.0,19246.0,703.0,10.347840346956218
63866.813976576224,110922.0,19276.0,690.0,10.357838260330027
63866.823974489605,110942.0,19268.0,693.0,10.367836173711112
63866.83397240299,110942.0,19282.0,668.0,10.377834087092197
63866.84397031636,110922.0,19279.0,698.0,10.387832000466005
63866.85396822974,110889.0,19265.0,672.0,10.39782991384709
63866.86396614312,110860.0,19243.0,707.0,10.407827827228175
63866.873964056496,110821.0,19229.0,700.0,10.417825740601984
63866.88396196988,110856.0,19280.0,723.0,10.427823653983069
63866.89395988326,110814.0,19245.0,682.0,10.437821567364153
63866.90395779663,110813.0,19258.0,697.0,10.447819480737962
63866.91395571001,110760.0,19278.0,703.0,10.457817394119047
63866.923953623394,110809.0,19289.0,708.0,10.467815307500132
63866.93395153677,110794.0,19237.0,707.0,10.47781322087394
63866.94394945015,110767.0,19268.0,694.0,10.487811134255026
63866.95394736353,110771.0,19272.0,723.0,10.49780904763611
63866.963945276904,110791.0,19277.0,704.0,10.50780696100992
63866.973943190285,110801.0,19261.0,711.0,10.517804874391004
63866.98394110367,110776.0,19267.0,694.0,10.527802787772089
63866.99393901704,110768.0,19259.0,648.0,10.537800701145898
63867.00393693042,110773.0,19283.0,693.0,10.547798614526982
63867.0139348438,110790.0,19273.0,710.0,10.557796527908067
63867.023932757176,110769.0,19263.0,693.0,10.567794441281876
63867.03393067056,110754.0,19254.0,686.0,10.57779235466296
63867.04392858394,110794.0,19251.0,706.0,10.587790268044046
63867.05392649732,110759.0,19261.0,669.0,10.59778818142513
63867.06392441069,110797.0,19265.0,694.0,10.60778609479894
63867.073922324074,110783.0,19276.0,656.0,10.617784008180024
63867.083920237455,110792.0,19288.0,722.0,10.627781921561109
63867.09391815083,110791.0,19273.0,680.0,10.637779834934918
63867.10391606421,110800.0,19262.0,699.0,10.647777748316003
63867.11391397759,110823.0,19269.0,663.0,10.657775661697087
63867.123911890965,110781.0,19249.0,676.0,10.667773575070896
63867.133909804346,110797.0,19276.0,698.0,10.677771488451981
63867.14390771773,110784.0,19261.0,672.0,10.687769401833066
63867.1539056311,110782.0,19254.0,719.0,10.697767315206875
63867.16390354448,110773.0,19240.0,671.0,10.70776522858796
63867.17390145786,110814.0,19235.0,692.0,10.717763141969044
63867.18389937124,110799.0,19249.0,666.0,10.727761055342853
63867.19389728462,110791.0,19248.0,727.0,10.737758968723938
63867.203895198,110785.0,19263.0,715.0,10.747756882105023
63867.21389311137,110754.0,19270.0,689.0,10.757754795478832
63867.223891024754,110774.0,19267.0,716.0,10.767752708859916
63867.233888938135,110801.0,19263.0,692.0,10.777750622241001
63867.24388685151,110806.0,19255.0,671.0,10.78774853561481
63867.25388476489,110827.0,19258.0,697.0,10.797746448995895
63867.26388267827,110829.0,19279.0,729.0,10.80774436237698
63867.273880591645,110806.0,19287.0,696.0,10.817742275750788
63867.283878505026,110831.0,19293.0,693.0,10.827740189131873
63867.29387641841,110837.0,19288.0,707.0,10.837738102512958
63867.30387433178,110822.0,19255.0,691.0,10.847736015886767
63867.31387224516,110834.0,19265.0,688.0,10.857733929267852
63867.32387015854,110819.0,19239.0,701.0,10.867731842648936
63867.33386807192,110862.0,19272.0,706.0,10.877729756022745
63867.3438659853,110825.0,19256.0,697.0,10.88772766940383
63867.35386389868,110844.0,19252.0,694.0,10.897725582784915
63867.36386181205,110828.0,19258.0,715.0,10.907723496158724
63867.373859725434,110836.0,19250.0,701.0,10.917721409539809
63867.383857638815,110832.0,19251.0,695.0,10.927719322920893
63867.39385555219,110861.0,19290.0,677.0,10.937717236294702
63867.40385346557,110836.0,19268.0,673.0,10.947715149675787
63867.41385137895,110825.0,19240.0,660.0,10.957713063056872
63867.423849292325,110887.0,19282.0,708.0,10.96771097643068
63867.433847205706,110855.0,19270.0,697.0,10.977708889811765
63867.44384511909,110826.0,19293.0,671.0,10.98770680319285
63867.45384303246,110840.0,19268.0,705.0,10.997704716566659
63867.46384094584,110834.0,19269.0,692.0,11.007702629947744
63867.47383885922,110875.0,19262.0,689.0,11.017700543328829
63867.4838367726,110894.0,19262.0,681.0,11.027698456702637
63867.49383468598,110860.0,19280.0,690.0,11.037696370083722
63867.50383259936,110880.0,19273.0,677.0,11.047694283464807
63867.51383051273,110875.0,19276.0,694.0,11.057692196838616
63867.523828426114,110895.0,19262.0,699.0,11.0676901102197
63867.533826339495,110873.0,19246.0,711.0,11.077688023600786
63867.54382425287,110895.0,19253.0,720.0,11.087685936974594
63867.55382216625,110885.0,19268.0,690.0,11.09768385035568
63867.56382007963,110874.0,19255.0,705.0,11.107681763736764
63867.573817993005,110920.0,19268.0,715.0,11.117679677110573
63867.583815906386,110926.0,19297.0,689.0,11.127677590491658
63867.59381381977,110911.0,19261.0,695.0,11.137675503872742
63867.60381173314,110915.0,19270.0,732.0,11.147673417246551
63867.61380964652,110876.0,19243.0,682.0,11.157671330627636
63867.6238075599,110889.0,19278.0,711.0,11.16766924400872
63867.63380547328,110924.0,19262.0,690.0,11.17766715738253
63867.64380338666,110922.0,19261.0,668.0,11.187665070763614
63867.65380130004,110901.0,19270.0,670.0,11.1976629841447
63867.66379921342,110946.0,19264.0,689.0,11.207660897525784
63867.673797126794,110923.0,19259.0,693.0,11.217658810899593
63867.683795040175,110911.0,19253.0,686.0,11.227656724280678
63867.693792953556,110931.0,19267.0,681.0,11.237654637661763
63867.70379086693,110950.0,19280.0,709.0,11.247652551035571
63867.71378878031,110918.0,19266.0,704.0,11.257650464416656
63867.72378669369,110919.0,19295.0,676.0,11.267648377797741
63867.733784607066,110847.0,19257.0,683.0,11.27764629117155
63867.74378252045,110879.0,19263.0,689.0,11.287644204552635
63867.75378043383,110834.0,19252.0,699.0,11.29764211793372
63867.7637783472,110819.0,19258.0,659.0,11.307640031307528
63867.77377626058,110800.0,19235.0,698.0,11.317637944688613
63867.783774173964,110800.0,19250.0,698.0,11.327635858069698
63867.79377208734,110772.0,19272.0,686.0,11.337633771443507
63867.80377000072,110727.0,19262.0,688.0,11.347631684824592
63867.8137679141,110745.0,19278.0,679.0,11.357629598205676
63867.823765827474,110747.0,19242.0,696.0,11.367627511579485
63867.833763740855,110755.0,19260.0,718.0,11.37762542496057
63867.843761654236,110750.0,19278.0,701.0,11.387623338341655
63867.85375956761,110741.0,19237.0,694.0,11.397621251715464
63867.86375748099,110741.0,19274.0,705.0,11.407619165096548
63867.87375539437,110736.0,19260.0,676.0,11.417617078477633
63867.883753307746,110760.0,19229.0,691.0,11.427614991851442
63867.89375122113,110782.0,19276.0,666.0,11.437612905232527
63867.90374913451,110767.0,19273.0,684.0,11.447610818613612
63867.91374704788,110771.0,19265.0,687.0,11.45760873198742
63867.92374496126,110760.0,19290.0,721.0,11.467606645368505
63867.933742874644,110795.0,19239.0,692.0,11.47760455874959
63867.94374078802,110773.0,19229.0,676.0,11.487602472123399
63867.9537387014,110790.0,19268.0,683.0,11.497600385504484
63867.96373661478,110782.0,19275.0,682.0,11.507598298885569
63867.973734528154,110799.0,19238.0,706.0,11.517596212259377
63867.983732441535,110825.0,19290.0,711.0,11.527594125640462
63867.993730354916,110799.0,19259.0,688.0,11.537592039021547
63868.00372826829,110802.0,19258.0,688.0,11.547589952395356
63868.01372618167,110791.0,19231.0,710.0,11.55758786577644
63868.02372409505,110786.0,19224.0,709.0,11.567585779157525
63868.033722008426,110794.0,19264.0,710.0,11.577583692531334
63868.04371992181,110797.0,19267.0,697.0,11.587581605912419
63868.05371783519,110813.0,19250.0,673.0,11.597579519293504
63868.06371574856,110790.0,19262.0,674.0,11.607577432667313
63868.07371366194,110782.0,19268.0,719.0,11.617575346048397
63868.083711575324,110799.0,19258.0,692.0,11.627573259429482
63868.0937094887,110808.0,19266.0,673.0,11.637571172803291
63868.10370740208,110821.0,19276.0,726.0,11.647569086184376
63868.11370531546,110788.0,19232.0,677.0,11.65756699956546
63868.12370322883,110832.0,19260.0,686.0,11.66756491293927
63868.133701142215,110834.0,19291.0,681.0,11.677562826320354
63868.143699055596,110821.0,19257.0,679.0,11.68756073970144
63868.15369696897,110851.0,19282.0,709.0,11.697558653075248
63868.16369488235,110838.0,19259.0,687.0,11.707556566456333
63868.17369279573,110823.0,19232.0,683.0,11.717554479837418
63868.183690709106,110826.0,19236.0,675.0,11.727552393211226
63868.19368862249,110856.0,19256.0,695.0,11.737550306592311
63868.20368653587,110846.0,19260.0,695.0,11.747548219973396
63868.21368444925,110816.0,19275.0,701.0,11.75754613335448
63868.22368236262,110866.0,19261.0,691.0,11.76754404672829
63868.233680276004,110865.0,19252.0,675.0,11.777541960109374
63868.243678189385,110870.0,19266.0,691.0,11.78753987349046
63868.25367610276,110868.0,19268.0,719.0,11.797537786864268
63868.26367401614,110849.0,19256.0,678.0,11.807535700245353
63868.27367192952,110889.0,19294.0,722.0,11.817533613626438
63868.283669842895,110871.0,19268.0,685.0,11.827531527000247
63868.293667756276,110882.0,19253.0,671.0,11.837529440381331
63868.30366566966,110905.0,19272.0,699.0,11.847527353762416
63868.31366358303,110879.0,19297.0,682.0,11.857525267136225
63868.32366149641,110886.0,19270.0,700.0,11.86752318051731
63868.33365940979,110896.0,19280.0,710.0,11.877521093898395
63868.34365732317,110878.0,19260.0,691.0,11.887519007272203
63868.35365523655,110917.0,19254.0,683.0,11.897516920653288
63868.36365314993,110906.0,19273.0,686.0,11.907514834034373
63868.3736510633,110892.0,19258.0,712.0,11.917512747408182
63868.38364897668,110892.0,19287.0,676.0,11.927510660789267
63868.393646890065,110887.0,19273.0,692.0,11.937508574170351
63868.40364480344,110918.0,19269.0,701.0,11.94750648754416
63868.41364271682,110907.0,19252.0,675.0,11.957504400925245
63868.4236406302,110921.0,19245.0,680.0,11.96750231430633
63868.433638543574,110902.0,19253.0,678.0,11.977500227680139
63868.443636456956,110926.0,19276.0,697.0,11.987498141061224
63868.45363437034,110920.0,19316.0,727.0,11.997496054442308
63868.46363228371,110889.0,19254.0,664.0,12.007493967816117
63868.47363019709,110940.0,19301.0,688.0,12.017491881197202
63868.48362811047,110930.0,19261.0,684.0,12.027489794578287
63868.49362602385,110933.0,19251.0,717.0,12.037487707952096
63868.50362393723,110970.0,19286.0,684.0,12.04748562133318
63868.51362185061,110944.0,19263.0,685.0,12.057483534714265
63868.52361976398,110950.0,19268.0,702.0,12.067481448088074
63868.53361767736,110946.0,19243.0,685.0,12.077479361469159
63868.543615590745,110967.0,19280.0,722.0,12.087477274850244
63868.55361350412,110938.0,19256.0,684.0,12.097475188224053
63868.5636114175,110990.0,19277.0,718.0,12.107473101605137
63868.57360933088,110963.0,19286.0,693.0,12.117471014986222
63868.583607244254,110933.0,19227.0,697.0,12.127468928360031
63868.593605157635,110969.0,19279.0,722.0,12.137466841741116
63868.60360307102,110926.0,19247.0,695.0,12.1474647551222
63868.61360098439,110949.0,19273.0,698.0,12.15746266849601
63868.62359889777,110920.0,19288.0,701.0,12.167460581877094
63868.63359681115,110864.0,19245.0,682.0,12.177458495258179
63868.643594724526,110871.0,19255.0,665.0,12.187456408631988
63868.65359263791,110845.0,19266.0,689.0,12.197454322013073
63868.66359055129,110808.0,19264.0,717.0,12.207452235394157
63868.67358846466,110804.0,19262.0,687.0,12.217450148767966
63868.68358637804,110810.0,19287.0,725.0,12.227448062149051
63868.693584291424,110779.0,19257.0,692.0,12.237445975530136
63868.7035822048,110767.0,19230.0,686.0,12.247443888903945
63868.71358011818,110756.0,19273.0,708.0,12.25744180228503
63868.72357803156,110705.0,19226.0,668.0,12.267439715666114
63868.733575944934,110761.0,19252.0,688.0,12.277437629039923
63868.743573858315,110761.0,19257.0,709.0,12.287435542421008
63868.7535717717,110741.0,19248.0,692.0,12.297433455802093
63868.76356968507,110794.0,19253.0,710.0,12.307431369175902
63868.77356759845,110754.0,19257.0,693.0,12.317429282556986
63868.78356551183,110742.0,19266.0,695.0,12.327427195938071
63868.793563425206,110728.0,19275.0,688.0,12.33742510931188
63868.80356133859,110725.0,19253.0,671.0,12.347423022692965
63868.81355925197,110757.0,19253.0,689.0,12.35742093607405
63868.82355716535,110788.0,19273.0,669.0,12.367418849455134
63868.83355507872,110789.0,19268.0,710.0,12.377416762828943
63868.843552992104,110746.0,19238.0,672.0,12.387414676210028
63868.853550905485,110786.0,19281.0,688.0,12.397412589591113
63868.86354881886,110796.0,19285.0,711.0,12.407410502964922
63868.87354673224,110744.0,19247.0,676.0,12.417408416346007
63868.88354464562,110800.0,19277.0,668.0,12.427406329727091
63868.893542558995,110799.0,19266.0,675.0,12.4374042431009
63868.903540472376,110774.0,19265.0,698.0,12.447402156481985
63868.91353838576,110807.0,19274.0,703.0,12.45740006986307
63868.92353629913,110774.0,19248.0,708.0,12.467397983236879
63868.93353421251,110790.0,19264.0,687.0,12.477395896617963
63868.94353212589,110784.0,19224.0,677.0,12.487393809999048
63868.95353003927,110772.0,19267.0,709.0,12.497391723372857
63868.96352795265,110755.0,19284.0,687.0,12.507389636753942
63868.97352586603,110784.0,19261.0,692.0,12.517387550135027
63868.9835237794,110798.0,19235.0,721.0,12.527385463508836
63868.993521692784,110775.0,19253.0,658.0,12.53738337688992
63869.003519606165,110805.0,19265.0,719.0,12.547381290271005
63869.01351751954,110801.0,19262.0,699.0,12.557379203644814
63869.02351543292,110802.0,19262.0,676.0,12.567377117025899
63869.0335133463,110822.0,19283.0,718.0,12.577375030406984
63869.043511259675,110806.0,19264.0,679.0,12.587372943780792
63869.053509173056,110819.0,19260.0,685.0,12.597370857161877
63869.06350708644,110834.0,19255.0,663.0,12.607368770542962
63869.07350499981,110834.0,19251.0,676.0,12.61736668391677
63869.08350291319,110824.0,19266.0,694.0,12.627364597297856
63869.09350082657,110842.0,19257.0,686.0,12.63736251067894
63869.10349873995,110863.0,19281.0,684.0,12.64736042405275
63869.11349665333,110881.0,19255.0,696.0,12.657358337433834
63869.12349456671,110812.0,19237.0,707.0,12.667356250814919
63869.13349248008,110851.0,19255.0,679.0,12.677354164188728
63869.143490393464,110818.0,19254.0,714.0,12.687352077569813
63869.153488306845,110885.0,19298.0,706.0,12.697349990950897
63869.16348622022,110848.0,19256.0,686.0,12.707347904324706
63869.1734841336,110865.0,19264.0,694.0,12.717345817705791
63869.18348204698,110853.0,19262.0,700.0,12.727343731086876
63869.193479960355,110867.0,19251.0,698.0,12.737341644460685
63869.203477873736,110858.0,19278.0,721.0,12.74733955784177
63869.21347578712,110871.0,19266.0,682.0,12.757337471222854
63869.22347370049,110887.0,19240.0,699.0,12.767335384596663
63869.23347161387,110898.0,19263.0,664.0,12.777333297977748
63869.24346952725,110882.0,19278.0,703.0,12.787331211358833
63869.25346744063,110857.0,19232.0,681.0,12.797329124732642
63869.26346535401,110897.0,19265.0,696.0,12.807327038113726
63869.27346326739,110885.0,19291.0,699.0,12.817324951494811
63869.28346118076,110866.0,19253.0,674.0,12.82732286486862
63869.293459094144,110940.0,19286.0,723.0,12.837320778249705
63869.303457007525,110903.0,19268.0,697.0,12.84731869163079
63869.3134549209,110902.0,19263.0,684.0,12.857316605004598
63869.32345283428,110928.0,19290.0,705.0,12.867314518385683
63869.33345074766,110903.0,19246.0,686.0,12.877312431766768
63869.343448661035,110913.0,19273.0,692.0,12.887310345140577
63869.353446574416,110892.0,19242.0,685.0,12.897308258521662
63869.3634444878,110909.0,19261.0,709.0,12.907306171902746
63869.37344240118,110892.0,19280.0,690.0,12.917304085283831
63869.38344031455,110938.0,19293.0,706.0,12.92730199865764
63869.39343822793,110948.0,19273.0,712.0,12.937299912038725
63869.403436141314,110948.0,19287.0,676.0,12.94729782541981
63869.41343405469,110944.0,19243.0,720.0,12.957295738793619
63869.42343196807,110944.0,19263.0,696.0,12.967293652174703
63869.43342988145,110944.0,19259.0,699.0,12.977291565555788
63869.443427794824,110944.0,19280.0,701.0,12.987289478929597
63869.453425708205,110933.0,19263.0,676.0,12.997287392310682
63869.463423621586,110967.0,19262.0,677.0,13.007285305691767
63869.47342153496,110966.0,19264.0,676.0,13.017283219065575
63869.48341944834,110950.0,19260.0,708.0,13.02728113244666
63869.49341736172,110953.0,19278.0,695.0,13.037279045827745
63869.503415275096,110958.0,19268.0,705.0,13.047276959201554
63869.51341318848,110922.0,19237.0,687.0,13.057274872582639
63869.52341110186,110952.0,19252.0,716.0,13.067272785963723
63869.53340901523,110918.0,19247.0,684.0,13.077270699337532
63869.54340692861,110927.0,19261.0,694.0,13.087268612718617
63869.553404841994,110887.0,19262.0,698.0,13.097266526099702
63869.56340275537,110887.0,19272.0,682.0,13.10726443947351
63869.57340066875,110845.0,19289.0,706.0,13.117262352854596
63869.58339858213,110844.0,19258.0,690.0,13.12726026623568
63869.593396495504,110825.0,19264.0,675.0,13.13725817960949
63869.603394408885,110831.0,19284.0,670.0,13.147256092990574
63869.613392322266,110805.0,19287.0,696.0,13.157254006371659
63869.62339023564,110784.0,19266.0,694.0,13.167251919745468
63869.63338814902,110800.0,19248.0,671.0,13.177249833126552
63869.6433860624,110826.0,19283.0,725.0,13.187247746507637
63869.653383975776,110781.0,19232.0,710.0,13.197245659881446
63869.66338188916,110775.0,19262.0,690.0,13.20724357326253
63869.67337980254,110779.0,19254.0,694.0,13.217241486643616
63869.68337771591,110782.0,19245.0,716.0,13.227239400017424
63869.69337562929,110748.0,19246.0,685.0,13.23723731339851
63869.703373542674,110772.0,19250.0,690.0,13.247235226779594
63869.71337145605,110784.0,19273.0,675.0,13.257233140153403
63869.72336936943,110760.0,19252.0,662.0,13.267231053534488
63869.73336728281,110783.0,19268.0,691.0,13.277228966915573
63869.743365196184,110792.0,19257.0,693.0,13.287226880289381
63869.753363109565,110803.0,19264.0,673.0,13.297224793670466
63869.763361022946,110799.0,19273.0,723.0,13.307222707051551
63869.77335893632,110778.0,19247.0,701.0,13.31722062042536
63869.7833568497,110785.0,19263.0,662.0,13.327218533806445
63869.79335476308,110769.0,19276.0,681.0,13.33721644718753
63869.803352676456,110825.0,19276.0,712.0,13.347214360561338
63869.81335058984,110821.0,19270.0,672.0,13.357212273942423
63869.82334850322,110818.0,19266.0,709.0,13.367210187323508
63869.83334641659,110801.0,19273.0,689.0,13.377208100697317
63869.84334432997,110814.0,19285.0,708.0,13.387206014078401
63869.853342243354,110831.0,19259.0,709.0,13.397203927459486
63869.86334015673,110799.0,19269.0,696.0,13.407201840833295
63869.87333807011,110804.0,19247.0,696.0,13.41719975421438
63869.88333598349,110830.0,19297.0,674.0,13.427197667595465
63869.89333389686,110815.0,19258.0,710.0,13.437195580969274
63869.903331810245,110816.0,19243.0,694.0,13.447193494350358
63869.913329723626,110834.0,19283.0,697.0,13.457191407731443
63869.923327637,110818.0,19256.0,687.0,13.467189321105252
63869.93332555038,110810.0,19228.0,687.0,13.477187234486337
63869.94332346376,110807.0,19235.0,680.0,13.487185147867422
63869.953321377136,110831.0,19266.0,688.0,13.49718306124123
63869.96331929052,110807.0,19273.0,698.0,13.507180974622315
63869.9733172039,110865.0,19268.0,712.0,13.5171788880034
63869.98331511728,110823.0,19248.0,688.0,13.527176801384485
63869.99331303065,110835.0,19260.0,695.0,13.537174714758294
63870.003310944034,110855.0,19293.0,714.0,13.547172628139379
63870.013308857415,110843.0,19259.0,695.0,13.557170541520463
63870.02330677079,110879.0,19281.0,720.0,13.567168454894272
63870.03330468417,110862.0,19271.0,695.0,13.577166368275357
63870.04330259755,110817.0,19235.0,679.0,13.587164281656442
63870.053300510925,110872.0,19289.0,673.0,13.59716219503025
63870.063298424306,110848.0,19295.0,692.0,13.607160108411335
63870.07329633769,110881.0,19260.0,694.0,13.61715802179242
63870.08329425106,110874.0,19260.0,691.0,13.627155935166229
63870.09329216444,110861.0,19286.0,699.0,13.637153848547314
63870.10329007782,110866.0,19263.0,673.0,13.647151761928399
63870.1132879912,110898.0,19274.0,692.0,13.657149675302207
63870.12328590458,110912.0,19302.0,716.0,13.667147588683292
63870.13328381796,110934.0,19283.0,707.0,13.677145502064377
63870.14328173133,110920.0,19291.0,712.0,13.687143415438186
63870.15327964471,110903.0,19269.0,685.0,13.69714132881927
63870.163277558095,110887.0,19257.0,687.0,13.707139242200356
63870.17327547147,110935.0,19285.0,706.0,13.717137155574164
63870.18327338485,110900.0,19288.0,686.0,13.72713506895525
63870.19327129823,110917.0,19262.0,701.0,13.737132982336334
63870.203269211604,110908.0,19242.0,706.0,13.747130895710143
63870.213267124986,110921.0,19284.0,699.0,13.757128809091228
63870.22326503837,110912.0,19255.0,680.0,13.767126722472312
63870.23326295174,110921.0,19268.0,697.0,13.777124635846121
63870.24326086512,110907.0,19264.0,714.0,13.787122549227206
63870.2532587785,110941.0,19305.0,710.0,13.79712046260829
63870.26325669188,110920.0,19258.0,688.0,13.8071183759821
63870.27325460526,110941.0,19276.0,699.0,13.817116289363184
63870.28325251864,110936.0,19242.0,675.0,13.82711420274427
63870.29325043201,110959.0,19302.0,713.0,13.837112116118078
63870.30324834539,110955.0,19267.0,718.0,13.847110029499163
63870.313246258775,110933.0,19265.0,694.0,13.857107942880248
63870.32324417215,110956.0,19270.0,707.0,13.867105856254057
63870.33324208553,110950.0,19290.0,729.0,13.877103769635141
63870.34323999891,110924.0,19237.0,668.0,13.887101683016226
63870.353237912284,110946.0,19268.0,701.0,13.897099596390035
63870.363235825665,110930.0,19267.0,674.0,13.90709750977112
63870.37323373905,110964.0,19279.0,699.0,13.917095423152205
63870.38323165242,110989.0,19293.0,712.0,13.927093336526013
63870.3932295658,110959.0,19269.0,691.0,13.937091249907098
63870.40322747918,110971.0,19251.0,676.0,13.947089163288183
63870.413225392556,110971.0,19272.0,682.0,13.957087076661992
63870.42322330594,110994.0,19252.0,714.0,13.967084990043077
63870.43322121932,110960.0,19277.0,696.0,13.977082903424161
63870.44321913269,110915.0,19323.0,667.0,13.98708081679797
63870.45321704607,110930.0,19250.0,692.0,13.997078730179055
63870.463214959454,110918.0,19280.0,670.0,14.00707664356014
63870.47321287283,110895.0,19269.0,662.0,14.017074556933949
63870.48321078621,110864.0,19256.0,695.0,14.027072470315034
63870.49320869959,110828.0,19254.0,715.0,14.037070383696118
63870.503206612964,110864.0,19292.0,716.0,14.047068297069927
63870.513204526345,110825.0,19262.0,703.0,14.057066210451012
63870.52320243973,110817.0,19270.0,688.0,14.067064123832097
63870.5332003531,110784.0,19293.0,709.0,14.077062037205906
63870.54319826648,110799.0,19277.0,685.0,14.08705995058699
63870.55319617986,110774.0,19267.0,695.0,14.097057863968075
63870.56319409324,110794.0,19276.0,691.0,14.10705577734916
63870.57319200662,110780.0,19296.0,673.0,14.117053690722969
63870.58318992,110797.0,19272.0,699.0,14.127051604104054
63870.59318783338,110790.0,19289.0,684.0,14.137049517485138
63870.60318574675,110780.0,19262.0,683.0,14.147047430858947
63870.613183660134,110778.0,19260.0,677.0,14.157045344240032
63870.623181573515,110764.0,19256.0,675.0,14.167043257621117
63870.63317948689,110772.0,19250.0,702.0,14.177041170994926
63870.64317740027,110777.0,19266.0,692.0,14.18703908437601
63870.65317531365,110778.0,19286.0,705.0,14.197036997757095
63870.663173227025,110803.0,19258.0,685.0,14.207034911130904
63870.673171140406,110807.0,19249.0,705.0,14.217032824511989
63870.68316905379,110806.0,19263.0,687.0,14.227030737893074
63870.69316696716,110821.0,19267.0,705.0,14.237028651266883
63870.70316488054,110810.0,19258.0,667.0,14.247026564647967
63870.71316279392,110858.0,19251.0,739.0,14.257024478029052
63870.7231607073,110816.0,19263.0,688.0,14.267022391402861
63870.73315862068,110802.0,19244.0,682.0,14.277020304783946
63870.74315653406,110821.0,19287.0,715.0,14.28701821816503
63870.75315444743,110823.0,19279.0,723.0,14.29701613153884
63870.763152360814,110807.0,19256.0,694.0,14.307014044919924
63870.773150274195,110834.0,19291.0,669.0,14.31701195830101
63870.78314818757,110795.0,19280.0,706.0,14.327009871674818
63870.79314610095,110799.0,19279.0,694.0,14.337007785055903
63870.80314401433,110806.0,19263.0,698.0,14.347005698436988
63870.813141927705,110819.0,19260.0,679.0,14.357003611810796
63870.823139841086,110815.0,19232.0,686.0,14.367001525191881
63870.83313775447,110841.0,19276.0,701.0,14.376999438572966
63870.84313566784,110814.0,19290.0,683.0,14.386997351946775
63870.85313358122,110793.0,19239.0,701.0,14.39699526532786
63870.8631314946,110810.0,19238.0,669.0,14.406993178708944
63870.87312940798,110834.0,19271.0,705.0,14.416991092082753
63870.88312732136,110853.0,19259.0,688.0,14.426989005463838
63870.89312523474,110813.0,19270.0,716.0,14.436986918844923
63870.90312314811,110831.0,19249.0,678.0,14.446984832218732
63870.913121061494,110843.0,19275.0,719.0,14.456982745599817
63870.923118974875,110860.0,19261.0,702.0,14.466980658980901
63870.93311688825,110849.0,19270.0,675.0,14.47697857235471
63870.94311480163,110872.0,19282.0,663.0,14.486976485735795
63870.95311271501,110887.0,19288.0,723.0,14.49697439911688
63870.963110628385,110870.0,19263.0,686.0,14.506972312490689
63870.973108541766,110888.0,19287.0,711.0,14.516970225871773
63870.98310645515,110863.0,19264.0,676.0,14.526968139252858
63870.99310436852,110840.0,19230.0,685.0,14.536966052626667
63871.0031022819,110883.0,19271.0,695.0,14.546963966007752
63871.01310019528,110884.0,19286.0,690.0,14.556961879388837
63871.02309810866,110872.0,19265.0,685.0,14.566959792762646
63871.03309602204,110907.0,19292.0,713.0,14.57695770614373
63871.04309393542,110889.0,19271.0,689.0,14.586955619524815
63871.05309184879,110883.0,19257.0,669.0,14.596953532898624
63871.063089762174,110903.0,19249.0,661.0,14.606951446279709
63871.073087675555,110870.0,19271.0,667.0,14.616949359660794
63871.08308558893,110903.0,19263.0,696.0,14.626947273034602
63871.09308350231,110862.0,19293.0,670.0,14.636945186415687
63871.10308141569,110885.0,19263.0,689.0,14.646943099796772
63871.113079329065,110902.0,19265.0,663.0,14.65694101317058
63871.123077242446,110901.0,19264.0,730.0,14.666938926551666
63871.13307515583,110887.0,19290.0,696.0,14.67693683993275
63871.14307306921,110886.0,19262.0,675.0,14.686934753313835
63871.15307098258,110924.0,19268.0,710.0,14.696932666687644
63871.16306889596,110903.0,19264.0,679.0,14.706930580068729
63871.173066809344,110949.0,19259.0,695.0,14.716928493449814
63871.18306472272,110887.0,19242.0,678.0,14.726926406823623
63871.1930626361,110909.0,19263.0,673.0,14.736924320204707
63871.20306054948,110940.0,19262.0,718.0,14.746922233585792
63871.213058462854,110950.0,19280.0,696.0,14.756920146959601
63871.223056376235,110948.0,19260.0,673.0,14.766918060340686
63871.233054289616,110977.0,19275.0,702.0,14.77691597372177
63871.24305220299,110886.0,19224.0,684.0,14.78691388709558
63871.25305011637,110932.0,19273.0,696.0,14.796911800476664
63871.26304802975,110961.0,19248.0,690.0,14.806909713857749
63871.273045943126,110978.0,19267.0,716.0,14.816907627231558
63871.28304385651,110929.0,19281.0,710.0,14.826905540612643
63871.29304176989,110949.0,19273.0,692.0,14.836903453993727
63871.30303968326,110943.0,19274.0,712.0,14.846901367367536
63871.31303759664,110941.0,19274.0,693.0,14.856899280748621
63871.323035510024,110918.0,19280.0,700.0,14.866897194129706
63871.3330334234,110915.0,19271.0,693.0,14.876895107503515
63871.34303133678,110890.0,19257.0,675.0,14.8868930208846
63871.35302925016,110909.0,19278.0,699.0,14.896890934265684
63871.363027163534,110844.0,19254.0,667.0,14.906888847639493
63871.373025076915,110831.0,19260.0,693.0,14.916886761020578
63871.383022990296,110802.0,19257.0,665.0,14.926884674401663
63871.39302090367,110796.0,19235.0,683.0,14.936882587775472
63871.40301881705,110786.0,19235.0,683.0,14.946880501156556
63871.41301673043,110786.0,19272.0,689.0,14.956878414537641
63871.423014643806,110791.0,19286.0,716.0,14.96687632791145
63871.43301255719,110753.0,19250.0,686.0,14.976874241292535
63871.44301047057,110771.0,19229.0,689.0,14.98687215467362
63871.45300838394,110785.0,19263.0,686.0,14.996870068047429
63871.46300629732,110755.0,19234.0,684.0,15.006867981428513
63871.473004210704,110809.0,19273.0,713.0,15.016865894809598
63871.48300212408,110766.0,19241.0,689.0,15.026863808183407
63871.49300003746,110785.0,19260.0,690.0,15.036861721564492
63871.50299795084,110790.0,19291.0,706.0,15.046859634945577
63871.512995864214,110753.0,19224.0,674.0,15.056857548319385
63871.522993777595,110796.0,19264.0,661.0,15.06685546170047
63871.532991690976,110802.0,19263.0,695.0,15.076853375081555
63871.54298960435,110776.0,19252.0,722.0,15.086851288455364
63871.55298751773,110813.0,19267.0,692.0,15.096849201836449
63871.56298543111,110829.0,19248.0,718.0,15.106847115217533
63871.572983344486,110834.0,19261.0,688.0,15.116845028591342
63871.58298125787,110806.0,19250.0,710.0,15.126842941972427
63871.59297917125,110853.0,19293.0,715.0,15.136840855353512
63871.60297708462,110816.0,19249.0,665.0,15.14683876872732
63871.612974998,110823.0,19263.0,696.0,15.156836682108406
63871.622972911384,110842.0,19258.0,711.0,15.16683459548949
63871.63297082476,110799.0,19232.0,657.0,15.1768325088633
63871.64296873814,110834.0,19295.0,723.0,15.186830422244384
63871.65296665152,110826.0,19263.0,684.0,15.196828335625469
63871.66296456489,110792.0,19267.0,676.0,15.206826248999278
63871.672962478275,110797.0,19286.0,690.0,15.216824162380362
63871.682960391656,110818.0,19248.0,673.0,15.226822075761447
63871.69295830503,110818.0,19248.0,696.0,15.236819989135256
63871.70295621841,110842.0,19264.0,667.0,15.24681790251634
63871.71295413179,110834.0,19262.0,720.0,15.256815815897426
63871.722952045166,110822.0,19265.0,691.0,15.266813729271234
63871.73294995855,110844.0,19265.0,688.0,15.27681164265232
63871.74294787193,110858.0,19294.0,692.0,15.286809556033404
63871.75294578531,110827.0,19255.0,662.0,15.296807469414489
63871.76294369868,110878.0,19296.0,668.0,15.306805382788298
63871.772941612064,110879.0,19246.0,701.0,15.316803296169383
63871.782939525445,110853.0,19259.0,717.0,15.326801209550467
63871.79293743882,110876.0,19285.0,721.0,15.336799122924276
63871.8029353522,110861.0,19248.0,694.0,15.346797036305361
63871.81293326558,110859.0,19260.0,696.0,15.356794949686446
63871.822931178955,110865.0,19253.0,689.0,15.366792863060255
63871.832929092336,110851.0,19259.0,702.0,15.37679077644134
63871.84292700572,110832.0,19288.0,682.0,15.386788689822424
63871.85292491909,110917.0,19260.0,720.0,15.396786603196233
63871.86292283247,110895.0,19270.0,699.0,15.406784516577318
63871.87292074585,110891.0,19263.0,675.0,15.416782429958403
63871.88291865923,110902.0,19242.0,716.0,15.426780343332211
63871.89291657261,110862.0,19242.0,680.0,15.436778256713296
63871.90291448599,110918.0,19302.0,700.0,15.446776170094381
63871.91291239936,110918.0,19294.0,682.0,15.45677408346819
63871.92291031274,110880.0,19243.0,668.0,15.466771996849275
63871.932908226125,110937.0,19270.0,675.0,15.47676991023036
63871.9429061395,110926.0,19266.0,699.0,15.486767823604168
63871.95290405288,110910.0,19265.0,694.0,15.496765736985253
63871.96290196626,110919.0,19277.0,684.0,15.506763650366338
63871.972899879634,110921.0,19247.0,690.0,15.516761563740147
63871.982897793016,110929.0,19264.0,694.0,15.526759477121232
63871.9928957064,110909.0,19255.0,687.0,15.536757390502316
63872.00289361977,110945.0,19298.0,718.0,15.546755303876125
63872.01289153315,110918.0,19266.0,674.0,15.55675321725721
63872.02288944653,110944.0,19275.0,711.0,15.566751130638295
63872.03288735991,110952.0,19256.0,719.0,15.576749044012104
63872.04288527329,110910.0,19265.0,694.0,15.586746957393188
63872.05288318667,110919.0,19277.0,684.0,15.596744870774273
63872.06288110004,110921.0,19247.0,690.0,15.606742784148082
63872.07287901342,110929.0,19264.0,694.0,15.616740697529167
63872.082876926805,110909.0,19255.0,687.0,15.626738610910252
63872.09287484018,110945.0,19298.0,718.0,15.63673652428406
63872.10287275356,110918.0,19266.0,674.0,15.646734437665145
63872.11287066694,110944.0,19275.0,711.0,15.65673235104623
63872.122868580314,110952.0,19256.0,719.0,15.666730264420039
63872.132866493695,110909.0,19261.0,680.0,15.676728177801124
63872.14286440708,110962.0,19285.0,708.0,15.686726091182209
63872.15286232045,110944.0,19262.0,695.0,15.696724004556017
63872.16286023383,110947.0,19254.0,674.0,15.706721917937102
63872.17285814721,110948.0,19288.0,722.0,15.716719831318187
63872.182856060586,110955.0,19254.0,671.0,15.726717744691996
63872.19285397397,110967.0,19276.0,700.0,15.73671565807308
63872.20285188735,110996.0,19277.0,678.0,15.746713571454166
63872.21284980072,110991.0,19283.0,712.0,15.756711484827974
63872.2228477141,110977.0,19270.0,699.0,15.76670939820906
63872.232845627484,110982.0,19271.0,701.0,15.776707311590144
63872.24284354086,110997.0,19267.0,700.0,15.786705224963953
63872.25284145424,110958.0,19246.0,664.0,15.796703138345038
63872.26283936762,110983.0,19268.0,723.0,15.806701051726122
63872.272837280994,110981.0,19272.0,693.0,15.816698965099931
63872.282835194375,110962.0,19265.0,690.0,15.826696878481016
63872.29283310776,111005.0,19285.0,718.0,15.8366947918621
63872.30283102114,110961.0,19241.0,705.0,15.846692705243186
63872.31282893451,110954.0,19270.0,693.0,15.856690618616994
63872.32282684789,110948.0,19269.0,699.0,15.86668853199808
63872.33282476127,110907.0,19253.0,676.0,15.876686445379164
63872.34282267465,110869.0,19272.0,687.0,15.886684358752973
63872.35282058803,110884.0,19259.0,690.0,15.896682272134058
63872.36281850141,110906.0,19271.0,691.0,15.906680185515143
63872.37281641478,110867.0,19277.0,666.0,15.916678098888951
63872.382814328164,110819.0,19260.0,671.0,15.926676012270036
63872.392812241545,110783.0,19230.0,682.0,15.936673925651121
63872.40281015492,110801.0,19263.0,688.0,15.94667183902493
63872.4128080683,110803.0,19269.0,723.0,15.956669752406015
63872.42280598168,110777.0,19249.0,656.0,15.9666676657871
63872.432803895055,110781.0,19258.0,685.0,15.976665579160908
63872.442801808436,110808.0,19272.0,694.0,15.986663492541993
63872.45279972182,110767.0,19248.0,684.0,15.996661405923078
63872.46279763519,110803.0,19295.0,709.0,16.006659319296887
63872.47279554857,110797.0,19263.0,691.0,16.01665723267797
63872.48279346195,110783.0,19253.0,698.0,16.026655146059056
63872.49279137533,110811.0,19267.0,723.0,16.036653059432865
63872.50278928871,110789.0,19281.0,704.0,16.04665097281395
63872.51278720209,110785.0,19259.0,661.0,16.056648886195035
63872.52278511546,110780.0,19273.0,722.0,16.066646799568844
63872.532783028844,110804.0,19253.0,695.0,16.07664471294993
63872.542780942225,110797.0,19247.0,677.0,16.086642626331013
63872.5527788556,110809.0,19270.0,704.0,16.096640539704822
63872.56277676898,110816.0,19269.0,688.0,16.106638453085907
63872.57277468236,110811.0,19270.0,693.0,16.11663636646699
63872.582772595735,110830.0,19260.0,716.0,16.1266342798408
63872.592770509116,110790.0,19260.0,678.0,16.136632193221885
63872.6027684225,110816.0,19246.0,693.0,16.14663010660297
63872.61276633587,110814.0,19262.0,702.0,16.15662801997678
63872.62276424925,110828.0,19262.0,711.0,16.166625933357864
63872.63276216263,110821.0,19262.0,688.0,16.17662384673895
63872.64276007601,110820.0,19262.0,695.0,16.186621760112757
63872.65275798939,110812.0,19220.0,663.0,16.196619673493842
63872.66275590277,110848.0,19273.0,688.0,16.206617586874927
63872.67275381614,110843.0,19274.0,709.0,16.216615500248736
63872.682751729524,110826.0,19262.0,689.0,16.22661341362982
63872.692749642905,110811.0,19279.0,683.0,16.236611327010905
63872.70274755628,110861.0,19263.0,719.0,16.246609240384714
63872.71274546966,110812.0,19247.0,698.0,16.2566071537658
63872.72274338304,110829.0,19265.0,696.0,16.266605067146884
63872.732741296415,110849.0,19267.0,703.0,16.276602980520693
63872.742739209796,110824.0,19256.0,675.0,16.286600893901777
63872.75273712318,110836.0,19289.0,684.0,16.296598807282862
63872.76273503655,110857.0,19273.0,695.0,16.30659672065667
63872.77273294993,110877.0,19246.0,670.0,16.316594634037756
63872.78273086331,110890.0,19292.0,701.0,16.32659254741884
63872.79272877669,110881.0,19281.0,737.0,16.33659046079265
63872.80272669007,110876.0,19255.0,686.0,16.346588374173734
63872.81272460345,110856.0,19246.0,671.0,16.35658628755482
63872.82272251682,110904.0,19281.0,729.0,16.366584200928628
63872.832720430204,110861.0,19251.0,681.0,16.376582114309713
63872.842718343585,110890.0,19260.0,688.0,16.386580027690798
63872.852716256966,110899.0,19269.0,678.0,16.396577941071882
63872.86271417034,110892.0,19251.0,687.0,16.40657585444569
63872.87271208372,110924.0,19304.0,711.0,16.416573767826776
63872.882709997095,110888.0,19272.0,687.0,16.426571681200585
63872.892707910476,110901.0,19261.0,680.0,16.43656959458167
63872.90270582386,110906.0,19239.0,692.0,16.446567507962754
63872.91270373724,110905.0,19288.0,716.0,16.45656542134384
63872.92270165061,110878.0,19274.0,693.0,16.466563334717648
63872.93269956399,110867.0,19269.0,684.0,16.476561248098733
63872.942697477374,110938.0,19257.0,709.0,16.486559161479818
63872.95269539075,110919.0,19276.0,658.0,16.496557074853627
63872.96269330413,110913.0,19267.0,696.0,16.50655498823471
63872.97269121751,110932.0,19258.0,709.0,16.516552901615796
63872.982689130884,110913.0,19245.0,690.0,16.526550814989605
63872.992687044265,110944.0,19265.0,712.0,16.53654872837069
63873.002684957646,110937.0,19270.0,698.0,16.546546641751775
63873.01268287102,110955.0,19270.0,677.0,16.556544555125583
63873.0226807844,110955.0,19269.0,671.0,16.56654246850667
63873.03267869778,110936.0,19256.0,681.0,16.576540381887753
63873.042676611156,110954.0,19274.0,699.0,16.586538295261562
63873.05267452454,110946.0,19301.0,698.0,16.596536208642647
63873.06267243792,110970.0,19276.0,707.0,16.60653412202373
63873.07267035129,110998.0,19285.0,705.0,16.61653203539754
63873.08266826467,110964.0,19275.0,694.0,16.626529948778625
63873.092666178054,110956.0,19291.0,702.0,16.63652786215971
63873.10266409143,110960.0,19275.0,694.0,16.64652577553352
63873.11266200481,110996.0,19296.0,719.0,16.656523688914604
63873.12265991819,110981.0,19280.0,697.0,16.66652160229569
63873.132657831564,110959.0,19261.0,688.0,16.676519515669497
63873.142655744945,110999.0,19285.0,704.0,16.686517429050582
63873.152653658326,110976.0,19264.0,691.0,16.696515342431667
63873.1626515717,110994.0,19269.0,698.0,16.706513255805476
63873.17264948508,111007.0,19287.0,700.0,16.71651116918656
63873.18264739846,111008.0,19302.0,669.0,16.726509082567645
63873.192645311836,111021.0,19282.0,693.0,16.736506995941454
63873.20264322522,110993.0,19280.0,694.0,16.74650490932254
63873.2126411386,110972.0,19278.0,703.0,16.756502822703624
63873.22263905197,110968.0,19249.0,680.0,16.766500736077433
63873.23263696535,110964.0,19291.0,728.0,16.776498649458517
63873.242634878734,110932.0,19267.0,685.0,16.786496562839602
63873.25263279211,110936.0,19244.0,691.0,16.79649447621341
63873.26263070549,110941.0,19287.0,688.0,16.806492389594496
63873.27262861887,110865.0,19283.0,697.0,16.81649030297558
63873.282626532244,110850.0,19266.0,681.0,16.82648821634939
63873.292624445625,110860.0,19242.0,689.0,16.836486129730474
63873.302622359006,110825.0,19244.0,685.0,16.84648404311156
63873.31262027238,110837.0,19231.0,682.0,16.856481956485368
63873.32261818576,110813.0,19274.0,688.0,16.866479869866453
63873.33261609914,110824.0,19261.0,695.0,16.876477783247537
63873.342614012516,110777.0,19249.0,677.0,16.886475696621346
63873.3526119259,110824.0,19285.0,723.0,16.89647361000243
63873.36260983928,110823.0,19264.0,676.0,16.906471523383516
63873.37260775265,110809.0,19263.0,691.0,16.916469436757325
63873.38260566603,110788.0,19272.0,711.0,16.92646735013841
63873.392603579414,110813.0,19282.0,712.0,16.936465263519494
63873.40260149279,110810.0,19293.0,721.0,16.946463176893303
63873.41259940617,110801.0,19263.0,690.0,16.956461090274388
63873.42259731955,110815.0,19254.0,670.0,16.966459003655473
63873.43259523292,110792.0,19246.0,696.0,16.97645691702928
63873.442593146305,110809.0,19241.0,705.0,16.986454830410366
63873.452591059686,110807.0,19258.0,692.0,16.99645274379145
63873.46258897307,110820.0,19274.0,691.0,17.006450657172536
63873.47258688644,110810.0,19253.0,689.0,17.016448570546345
63873.48258479982,110837.0,19232.0,680.0,17.02644648392743
63873.4925827132,110839.0,19272.0,695.0,17.036444397308514
63873.50258062658,110818.0,19281.0,678.0,17.046442310682323
63873.51257853996,110807.0,19277.0,660.0,17.056440224063408
63873.52257645334,110862.0,19268.0,717.0,17.066438137444493
63873.53257436671,110848.0,19264.0,690.0,17.0764360508183
63873.542572280094,110832.0,19266.0,670.0,17.086433964199387
63873.552570193475,110852.0,19254.0,688.0,17.09643187758047
63873.56256810685,110816.0,19235.0,678.0,17.10642979095428
63873.57256602023,110849.0,19268.0,694.0,17.116427704335365
63873.58256393361,110886.0,19316.0,715.0,17.12642561771645
63873.592561846985,110854.0,19272.0,693.0,17.13642353109026
63873.602559760366,110856.0,19279.0,721.0,17.146421444471343
63873.61255767375,110846.0,19269.0,691.0,17.156419357852428
63873.62255558712,110838.0,19260.0,695.0,17.166417271226237
63873.6325535005,110828.0,19230.0,674.0,17.176415184607322
63873.64255141388,110846.0,19281.0,701.0,17.186413097988407
63873.65254932726,110877.0,19279.0,695.0,17.196411011362216
63873.66254724064,110871.0,19272.0,688.0,17.2064089247433
63873.67254515402,110908.0,19283.0,661.0,17.216406838124385
63873.68254306739,110853.0,19277.0,684.0,17.226404751498194
63873.69254098077,110879.0,19267.0,694.0,17.23640266487928
63873.702538894155,110940.0,19278.0,693.0,17.246400578260364
63873.71253680753,110856.0,19237.0,697.0,17.256398491634172
63873.72253472091,110908.0,19291.0,713.0,17.266396405015257
63873.73253263429,110889.0,19280.0,697.0,17.276394318396342
63873.742530547665,110868.0,19291.0,683.0,17.28639223177015
63873.752528461046,110892.0,19264.0,672.0,17.296390145151236
63873.76252637443,110940.0,19293.0,716.0,17.30638805853232
63873.7725242878,110905.0,19269.0,691.0,17.31638597190613
63873.78252220118,110944.0,19299.0,690.0,17.326383885287214
63873.79252011456,110943.0,19289.0,719.0,17.3363817986683
63873.80251802794,110935.0,19295.0,701.0,17.346379712042108
63873.81251594132,110931.0,19280.0,679.0,17.356377625423193
63873.8225138547,110928.0,19260.0,716.0,17.366375538804277
63873.83251176807,110943.0,19294.0,729.0,17.376373452178086
63873.84250968145,110934.0,19286.0,666.0,17.38637136555917
63873.852507594835,110943.0,19268.0,675.0,17.396369278940256
63873.86250550821,110879.0,19267.0,699.0,17.406367192314065
63873.87250342159,110916.0,19274.0,682.0,17.41636510569515
63873.88250133497,110926.0,19261.0,686.0,17.426363019076234
63873.892499248344,110928.0,19272.0,709.0,17.436360932450043
63873.902497161725,110941.0,19274.0,698.0,17.446358845831128
63873.91249507511,110961.0,19279.0,702.0,17.456356759212213
63873.92249298848,110921.0,19290.0,728.0,17.46635467258602
63873.93249090186,110973.0,19276.0,706.0,17.476352585967106
63873.94248881524,110952.0,19281.0,703.0,17.48635049934819
63873.952486728616,110951.0,19284.0,695.0,17.496348412722
63873.962484642,110925.0,19254.0,660.0,17.506346326103085
63873.97248255538,110987.0,19296.0,679.0,17.51634423948417
63873.98248046875,110979.0,19305.0,690.0,17.52634215285798
63873.99247838213,110942.0,19301.0,703.0,17.536340066239063
63874.002476295514,110930.0,19237.0,680.0,17.546337979620148
63874.01247420889,110968.0,19261.0,684.0,17.556335892993957
63874.02247212227,110952.0,19280.0,694.0,17.56633380637504
63874.03247003565,110961.0,19252.0,714.0,17.576331719756126
63874.042467949024,110945.0,19263.0,689.0,17.586329633129935
63874.052465862405,110940.0,19296.0,701.0,17.59632754651102
63874.06246377579,110978.0,19272.0,695.0,17.606325459892105
63874.07246168917,110966.0,19270.0,707.0,17.61632337327319
63874.08245960254,110959.0,19256.0,670.0,17.626321286647
63874.09245751592,111010.0,19296.0,724.0,17.636319200028083
63874.1024554293,110980.0,19268.0,698.0,17.646317113409168
63874.11245334268,110972.0,19279.0,726.0,17.656315026782977
63874.12245125606,110982.0,19266.0,715.0,17.66631294016406
63874.13244916944,110962.0,19250.0,687.0,17.676310853545147
63874.14244708281,110952.0,19277.0,692.0,17.686308766918955
63874.152444996194,110974.0,19299.0,686.0,17.69630668030004
63874.162442909575,110893.0,19258.0,674.0,17.706304593681125
63874.17244082295,110904.0,19289.0,707.0,17.716302507054934
63874.18243873633,110869.0,19278.0,691.0,17.72630042043602
63874.19243664971,110860.0,19285.0,683.0,17.736298333817103
63874.202434563085,110857.0,19271.0,667.0,17.746296247190912
63874.212432476466,110812.0,19252.0,709.0,17.756294160571997
63874.22243038985,110827.0,19261.0,701.0,17.766292073953082
63874.23242830322,110781.0,19261.0,685.0,17.77628998732689
63874.2424262166,110826.0,19263.0,691.0,17.786287900707975
63874.25242412998,110776.0,19270.0,700.0,17.79628581408906
63874.26242204336,110798.0,19262.0,691.0,17.80628372746287
63874.27241995674,110796.0,19276.0,708.0,17.816281640843954
63874.28241787012,110816.0,19276.0,710.0,17.82627955422504
63874.29241578349,110808.0,19295.0,709.0,17.836277467598848
63874.302413696874,110786.0,19270.0,689.0,17.846275380979932
63874.312411610255,110801.0,19251.0,692.0,17.856273294361017
63874.32240952363,110833.0,19280.0,686.0,17.866271207734826
63874.33240743701,110790.0,19250.0,666.0,17.87626912111591
63874.34240535039,110816.0,19263.0,683.0,17.886267034496996
63874.352403263765,110841.0,19267.0,693.0,17.896264947870804
63874.362401177146,110830.0,19260.0,681.0,17.90626286125189
63874.37239909053,110823.0,19241.0,692.0,17.916260774632974
63874.3823970039,110846.0,19268.0,691.0,17.926258688006783
63874.39239491728,110856.0,19246.0,718.0,17.936256601387868
63874.40239283066,110787.0,19235.0,686.0,17.946254514768953
63874.41239074404,110858.0,19274.0,723.0,17.95625242814276
63874.42238865742,110839.0,19278.0,696.0,17.966250341523846
63874.4323865708,110822.0,19250.0,677.0,17.97624825490493
63874.44238448417,110851.0,19273.0,704.0,17.98624616827874
63874.452382397554,110815.0,19250.0,680.0,17.996244081659825
63874.462380310935,110826.0,19269.0,699.0,18.00624199504091
63874.47237822431,110829.0,19285.0,698.0,18.01623990841472
63874.48237613769,110797.0,19249.0,673.0,18.026237821795803
63874.49237405107,110859.0,19285.0,682.0,18.036235735176888
63874.502371964445,110847.0,19275.0,694.0,18.046233648550697
63874.512369877826,110827.0,19244.0,658.0,18.05623156193178
63874.52236779121,110829.0,19272.0,714.0,18.066229475312866
63874.53236570458,110832.0,19246.0,684.0,18.076227388686675
63874.54236361796,110849.0,19262.0,684.0,18.08622530206776
63874.55236153134,110834.0,19244.0,697.0,18.096223215448845
63874.56235944472,110832.0,19251.0,699.0,18.106221128822654
63874.5723573581,110857.0,19262.0,694.0,18.11621904220374
63874.58235527148,110852.0,19264.0,690.0,18.126216955584823
63874.59235318485,110855.0,19250.0,686.0,18.136214868958632
63874.602351098234,110864.0,19262.0,677.0,18.146212782339717
63874.612349011615,110903.0,19296.0,727.0,18.1562106957208
63874.622346924996,110882.0,19265.0,713.0,18.166208609101886
63874.63234483837,110880.0,19283.0,699.0,18.176206522475695
63874.64234275175,110875.0,19288.0,702.0,18.18620443585678
63874.652340665125,110849.0,19280.0,676.0,18.19620234923059
63874.662338578506,110873.0,19290.0,666.0,18.206200262611674
63874.67233649189,110884.0,19280.0,696.0,18.21619817599276
63874.68233440527,110892.0,19242.0,703.0,18.226196089373843
63874.69233231864,110881.0,19252.0,683.0,18.236194002747652
63874.70233023202,110909.0,19270.0,711.0,18.246191916128737
63874.712328145404,110903.0,19268.0,692.0,18.25618982950982
63874.72232605878,110901.0,19287.0,691.0,18.26618774288363
63874.73232397216,110933.0,19298.0,692.0,18.276185656264715
63874.74232188554,110910.0,19246.0,677.0,18.2861835696458
63874.752319798914,110900.0,19276.0,699.0,18.29618148301961
63874.762317712295,110936.0,19266.0,707.0,18.306179396400694
63874.772315625676,110889.0,19252.0,677.0,18.31617730978178
63874.78231353905,110904.0,19287.0,682.0,18.326175223155587
63874.79231145243,110919.0,19274.0,708.0,18.336173136536672
63874.80230936581,110879.0,19279.0,699.0,18.346171049917757
63874.812307279186,110892.0,19276.0,685.0,18.356168963291566
63874.82230519257,110917.0,19244.0,687.0,18.36616687667265
63874.83230310595,110935.0,19275.0,691.0,18.376164790053735
63874.84230101932,110941.0,19278.0,657.0,18.386162703427544
63874.8522989327,110941.0,19276.0,698.0,18.39616061680863
63874.862296846084,110942.0,19275.0,698.0,18.406158530189714
63874.87229475946,110938.0,19275.0,692.0,18.416156443563523
63874.88229267284,110956.0,19259.0,694.0,18.426154356944608
63874.89229058622,110928.0,19245.0,683.0,18.436152270325692
63874.902288499594,110971.0,19285.0,720.0,18.4461501836995
63874.912286412975,110929.0,19266.0,696.0,18.456148097080586
63874.922284326356,110922.0,19264.0,685.0,18.46614601046167
63874.93228223973,110986.0,19298.0,739.0,18.47614392383548
63874.94228015311,110959.0,19254.0,685.0,18.486141837216564
63874.95227806649,110979.0,19273.0,708.0,18.49613975059765
63874.962275979866,110971.0,19282.0,692.0,18.506137663971458
63874.97227389325,110942.0,19257.0,697.0,18.516135577352543
63874.98227180663,110955.0,19290.0,684.0,18.526133490733628
63874.99226972,110951.0,19274.0,684.0,18.536131404107437
63875.00226763338,110956.0,19275.0,675.0,18.54612931748852
63875.012265546764,110939.0,19269.0,659.0,18.556127230869606
63875.02226346014,110888.0,19295.0,686.0,18.566125144243415
63875.03226137352,110909.0,19281.0,695.0,18.5761230576245
63875.0422592869,110871.0,19245.0,727.0,18.586120971005585
63875.052257200274,110869.0,19246.0,726.0,18.596118884379393
63875.062255113655,110817.0,19247.0,667.0,18.606116797760478
63875.072253027036,110831.0,19264.0,692.0,18.616114711141563
63875.08225094041,110835.0,19297.0,707.0,18.626112624515372
63875.09224885379,110804.0,19253.0,672.0,18.636110537896457
63875.10224676717,110831.0,19296.0,695.0,18.64610845127754
63875.112244680546,110797.0,19258.0,694.0,18.65610636465135
63875.12224259393,110777.0,19238.0,696.0,18.666104278032435
63875.13224050731,110801.0,19247.0,707.0,18.67610219141352
63875.14223842068,110761.0,19237.0,677.0,18.68610010478733
63875.15223633406,110800.0,19269.0,687.0,18.696098018168414
63875.162234247444,110765.0,19276.0,697.0,18.7060959315495
63875.17223216082,110787.0,19253.0,694.0,18.716093844923307
63875.1822300742,110785.0,19266.0,668.0,18.726091758304392
63875.19222798758,110793.0,19267.0,708.0,18.736089671685477
63875.20222590095,110801.0,19287.0,720.0,18.746087585059286
63875.212223814335,110811.0,19258.0,694.0,18.75608549844037
63875.222221727716,110806.0,19257.0,703.0,18.766083411821455
63875.2322196411,110799.0,19270.0,678.0,18.77608132520254
63875.24221755447,110843.0,19251.0,688.0,18.78607923857635
63875.25221546785,110849.0,19280.0,676.0,18.796077151957434
63875.26221338123,110827.0,19243.0,683.0,18.80607506533852
63875.27221129461,110829.0,19267.0,703.0,18.816072978712327
63875.28220920799,110831.0,19292.0,689.0,18.826070892093412
63875.29220712137,110843.0,19249.0,685.0,18.836068805474497
63875.30220503474,110854.0,19277.0,718.0,18.846066718848306
63875.312202948124,110821.0,19269.0,721.0,18.85606463222939
63875.322200861505,110828.0,19272.0,700.0,18.866062545610475
63875.33219877488,110777.0,19271.0,699.0,18.876060458984284
63875.34219668826,110802.0,19261.0,684.0,18.88605837236537
63875.35219460164,110846.0,19269.0,657.0,18.896056285746454
63875.362192515015,110827.0,19268.0,692.0,18.906054199120263
63875.372190428396,110822.0,19274.0,716.0,18.916052112501347
63875.38218834178,110792.0,19243.0,670.0,18.926050025882432
63875.39218625515,110857.0,19284.0,713.0,18.93604793925624
63875.40218416853,110850.0,19261.0,681.0,18.946045852637326
63875.41218208191,110864.0,19272.0,678.0,18.95604376601841
63875.42217999529,110866.0,19282.0,677.0,18.96604167939222
63875.43217790867,110845.0,19252.0,693.0,18.976039592773304
63875.44217582205,110852.0,19263.0,698.0,18.98603750615439
63875.45217373542,110851.0,19254.0,674.0,18.996035419528198
63875.4621716488,110867.0,19259.0,708.0,19.006033332909283
63875.472169562185,110849.0,19228.0,680.0,19.016031246290368
63875.48216747556,110869.0,19267.0,690.0,19.026029159664176
63875.49216538894,110902.0,19298.0,693.0,19.03602707304526
63875.50216330232,110849.0,19273.0,673.0,19.046024986426346
63875.512161215695,110897.0,19284.0,717.0,19.056022899800155
63875.522159129076,110883.0,19270.0,699.0,19.06602081318124
63875.53215704246,110862.0,19268.0,679.0,19.076018726562324
63875.54215495583,110915.0,19290.0,717.0,19.086016639936133
63875.55215286921,110880.0,19244.0,673.0,19.096014553317218
63875.56215078259,110899.0,19269.0,695.0,19.106012466698303
63875.57214869597,110883.0,19295.0,726.0,19.11601038007211
63875.58214660935,110924.0,19276.0,699.0,19.126008293453197
63875.59214452273,110906.0,19269.0,673.0,19.13600620683428
63875.6021424361,110914.0,19270.0,688.0,19.14600412020809
63875.61214034948,110877.0,19290.0,680.0,19.156002033589175
63875.622138262865,110916.0,19272.0,694.0,19.16599994697026
63875.63213617624,110931.0,19244.0,692.0,19.17599786034407
63875.64213408962,110924.0,19269.0,685.0,19.185995773725153
63875.652132003,110917.0,19227.0,697.0,19.195993687106238
63875.662129916374,110959.0,19271.0,715.0,19.205991600480047
63875.672127829755,110906.0,19254.0,672.0,19.215989513861132
63875.68212574314,110927.0,19278.0,695.0,19.225987427242217
63875.69212365651,110956.0,19276.0,719.0,19.235985340616025
63875.70212156989,110909.0,19224.0,683.0,19.24598325399711
63875.71211948327,110947.0,19287.0,709.0,19.255981167378195
63875.722117396646,110941.0,19260.0,704.0,19.265979080752004
63875.73211531003,110916.0,19252.0,670.0,19.27597699413309
63875.74211322341,110909.0,19269.0,676.0,19.285974907514174
63875.75211113678,110917.0,19257.0,685.0,19.295972820887982
63875.76210905016,110954.0,19276.0,698.0,19.305970734269067
63875.772106963545,110946.0,19269.0,674.0,19.315968647650152
63875.782104876926,110978.0,19278.0,702.0,19.325966561031237
63875.7921027903,110945.0,19254.0,664.0,19.335964474405046
63875.80210070368,110969.0,19269.0,683.0,19.34596238778613
63875.812098617054,110976.0,19294.0,702.0,19.35596030115994
63875.822096530435,110961.0,19231.0,682.0,19.365958214541024
63875.83209444382,110953.0,19288.0,706.0,19.37595612792211
63875.8420923572,110996.0,19250.0,702.0,19.385954041303194
63875.85209027057,110948.0,19265.0,716.0,19.395951954677003
63875.86208818395,110975.0,19306.0,704.0,19.405949868058087
63875.87208609733,110983.0,19273.0,702.0,19.415947781439172
63875.88208401071,110980.0,19275.0,691.0,19.42594569481298
63875.89208192409,110974.0,19253.0,694.0,19.435943608194066
63875.90207983747,110982.0,19296.0,716.0,19.44594152157515
63875.91207775084,110952.0,19296.0,717.0,19.45593943494896
63875.922075664224,110954.0,19279.0,713.0,19.465937348330044
63875.932073577605,110921.0,19303.0,702.0,19.47593526171113
63875.94207149098,110892.0,19275.0,663.0,19.485933175084938
63875.95206940436,110859.0,19267.0,689.0,19.495931088466023
63875.96206731774,110805.0,19235.0,663.0,19.505929001847107
63875.972065231115,110815.0,19269.0,683.0,19.515926915220916
63875.982063144496,110824.0,19295.0,687.0,19.525924828602
63875.99206105788,110784.0,19278.0,679.0,19.535922741983086
63876.00205897125,110804.0,19274.0,657.0,19.545920655356895
63876.01205688463,110790.0,19263.0,692.0,19.55591856873798
63876.02205479801,110792.0,19281.0,700.0,19.565916482119064
63876.03205271139,110802.0,19296.0,706.0,19.575914395492873
63876.04205062477,110800.0,19255.0,720.0,19.585912308873958
63876.05204853815,110795.0,19262.0,688.0,19.595910222255043
63876.06204645152,110781.0,19250.0,689.0,19.60590813562885
63876.072044364904,110797.0,19277.0,698.0,19.615906049009936
63876.082042278285,110739.0,19259.0,664.0,19.62590396239102
63876.09204019166,110771.0,19262.0,695.0,19.63590187576483
63876.10203810504,110775.0,19246.0,732.0,19.645899789145915
63876.11203601842,110770.0,19262.0,671.0,19.655897702527
63876.122033931795,110801.0,19269.0,682.0,19.66589561590081
63876.132031845176,110788.0,19278.0,695.0,19.675893529281893
63876.14202975856,110785.0,19263.0,675.0,19.685891442662978
63876.15202767193,110836.0,19291.0,694.0,19.695889356036787
63876.16202558531,110822.0,19263.0,703.0,19.70588726941787
63876.17202349869,110815.0,19267.0,688.0,19.715885182798957
63876.18202141207,110812.0,19267.0,669.0,19.725883096172765
63876.19201932545,110838.0,19271.0,705.0,19.73588100955385
63876.20201723883,110823.0,19294.0,688.0,19.745878922934935
63876.2120151522,110815.0,19265.0,699.0,19.755876836308744
63876.222013065584,110828.0,19277.0,686.0,19.76587474968983
63876.232010978965,110809.0,19244.0,675.0,19.775872663070913
63876.24200889234,110813.0,19275.0,721.0,19.785870576444722
63876.25200680572,110804.0,19272.0,691.0,19.795868489825807
63876.2620047191,110791.0,19256.0,702.0,19.805866403206892
63876.272002632475,110805.0,19281.0,694.0,19.8158643165807
63876.282000545856,110809.0,19236.0,693.0,19.825862229961785
63876.29199845924,110808.0,19271.0,701.0,19.83586014334287
63876.30199637261,110791.0,19216.0,692.0,19.84585805671668
63876.31199428599,110813.0,19272.0,700.0,19.855855970097764
63876.32199219937,110787.0,19269.0,677.0,19.86585388347885
63876.33199011275,110830.0,19273.0,690.0,19.875851796852658
63876.34198802613,110848.0,19269.0,679.0,19.885849710233742
63876.35198593951,110861.0,19283.0,687.0,19.895847623614827
63876.36198385288,110858.0,19275.0,711.0,19.905845536988636
63876.371981766264,110815.0,19268.0,664.0,19.91584345036972
63876.381979679645,110834.0,19263.0,690.0,19.925841363750806
63876.391977593026,110856.0,19297.0,704.0,19.93583927713189
63876.4019755064,110829.0,19269.0,681.0,19.9458371905057
63876.41197341978,110859.0,19264.0,691.0,19.955835103886784
63876.42197133316,110868.0,19315.0,711.0,19.96583301726787
63876.431969246536,110865.0,19279.0,724.0,19.975830930641678
63876.44196715992,110895.0,19293.0,725.0,19.985828844022762
63876.4519650733,110869.0,19270.0,688.0,19.995826757403847
63876.46196298667,110861.0,19262.0,692.0,20.005824670777656
63876.47196090005,110870.0,19250.0,691.0,20.01582258415874
63876.481958813434,110903.0,19288.0,702.0,20.025820497539826
63876.49195672681,110891.0,19263.0,670.0,20.035818410913635
63876.50195464019,110861.0,19236.0,711.0,20.04581632429472
63876.51195255357,110888.0,19296.0,706.0,20.055814237675804
63876.521950466944,110859.0,19234.0,687.0,20.065812151049613
63876.531948380325,110894.0,19274.0,711.0,20.075810064430698
