timestamp,PPG_1,PPG_2,PPG_3,time_from_segment_start_sec
63102.993390270225,106914.0,18482.0,796.0,0.0
63103.0033881836,106934.0,18456.0,822.0,0.009997913373808842
63103.01338609698,106932.0,18517.0,836.0,0.019995826754893642
63103.02338401036,106927.0,18461.0,820.0,0.02999374013597844
63103.033381923735,106927.0,18476.0,823.0,0.039991653509787284
63103.043379837116,106938.0,18471.0,827.0,0.049989566890872084
63103.0533777505,106955.0,18480.0,802.0,0.05998748027195688
63103.06337566387,106920.0,18445.0,802.0,0.06998539364576573
63103.07337357725,106949.0,18503.0,842.0,0.07998330702685053
63103.08337149063,106943.0,18475.0,810.0,0.08998122040793533
63103.09336940401,106924.0,18507.0,841.0,0.09997913378174417
63103.10336731739,106911.0,18504.0,809.0,0.10997704716282897
63103.11336523077,106922.0,18462.0,813.0,0.11997496054391377
63103.12336314414,106931.0,18469.0,819.0,0.1299728739177226
63103.133361057524,106940.0,18477.0,821.0,0.1399707872988074
63103.143358970905,106924.0,18454.0,814.0,0.1499687006798922
63103.15335688428,106934.0,18490.0,804.0,0.15996661405370105
63103.16335479766,106946.0,18473.0,818.0,0.16996452743478585
63103.17335271104,106985.0,18468.0,826.0,0.17996244081587065
63103.183350624415,106946.0,18477.0,793.0,0.1899603541896795
63103.193348537796,106945.0,18451.0,806.0,0.1999582675707643
63103.20334645118,106965.0,18485.0,822.0,0.2099561809518491
63103.21334436455,106957.0,18484.0,828.0,0.21995409432565793
63103.22334227793,106958.0,18482.0,839.0,0.22995200770674273
63103.23334019131,106898.0,18427.0,797.0,0.23994992108782753
63103.24333810469,106949.0,18481.0,814.0,0.24994783446163638
63103.25333601807,106976.0,18497.0,817.0,0.2599457478427212
63103.26333393145,106955.0,18454.0,835.0,0.269943661223806
63103.27333184482,106954.0,18500.0,839.0,0.2799415745976148
63103.283329758204,106970.0,18473.0,822.0,0.2899394879786996
63103.293327671585,106965.0,18472.0,789.0,0.2999374013597844
63103.30332558496,106979.0,18504.0,839.0,0.30993531473359326
63103.31332349834,106949.0,18458.0,807.0,0.31993322811467806
63103.32332141172,106964.0,18485.0,825.0,0.32993114149576286
63103.333319325095,106980.0,18495.0,836.0,0.3399290548695717
63103.343317238476,106989.0,18476.0,860.0,0.3499269682506565
63103.35331515186,106988.0,18454.0,844.0,0.3599248816317413
63103.36331306523,106966.0,18499.0,827.0,0.36992279500555014
63103.37331097861,106952.0,18489.0,844.0,0.37992070838663494
63103.38330889199,106948.0,18438.0,837.0,0.38991862176771974
63103.393306805374,106951.0,18461.0,824.0,0.39991653514880454
63103.40330471875,106973.0,18480.0,818.0,0.4099144485226134
63103.41330263213,106958.0,18473.0,819.0,0.4199123619036982
63103.42330054551,106999.0,18499.0,835.0,0.429910275284783
63103.433298458884,107000.0,18477.0,841.0,0.4399081886585918
63103.443296372265,106982.0,18478.0,812.0,0.4499061020396766
63103.453294285646,106982.0,18476.0,823.0,0.4599040154207614
63103.46329219902,106980.0,18490.0,847.0,0.46990192879457027
63103.4732901124,106994.0,18465.0,820.0,0.47989984217565507
63103.48328802578,106971.0,18484.0,815.0,0.48989775555673987
63103.493285939156,106948.0,18503.0,819.0,0.4998956689305487
63103.50328385254,106923.0,18469.0,797.0,0.5098935823116335
63103.51328176592,106995.0,18482.0,828.0,0.5198914956927183
63103.52327967929,106980.0,18472.0,824.0,0.5298894090665272
63103.53327759267,106979.0,18456.0,818.0,0.539887322447612
63103.543275506054,106992.0,18440.0,821.0,0.5498852358286968
63103.55327341943,107010.0,18494.0,796.0,0.5598831492025056
63103.56327133281,106984.0,18479.0,822.0,0.5698810625835904
63103.57326924619,107005.0,18490.0,836.0,0.5798789759646752
63103.58326715956,107006.0,18505.0,842.0,0.589876889338484
63103.593265072945,106988.0,18503.0,825.0,0.5998748027195688
63103.603262986326,106991.0,18482.0,849.0,0.6098727161006536
63103.6132608997,106996.0,18481.0,826.0,0.6198706294744625
63103.62325881308,107002.0,18539.0,832.0,0.6298685428555473
63103.63325672646,107004.0,18476.0,842.0,0.6398664562366321
63103.643254639836,106944.0,18474.0,812.0,0.6498643696104409
63103.65325255322,106978.0,18473.0,822.0,0.6598622829915257
63103.6632504666,106966.0,18478.0,792.0,0.6698601963726105
63103.67324837997,106989.0,18488.0,846.0,0.6798581097464194
63103.68324629335,106988.0,18481.0,843.0,0.6898560231275042
63103.693244206734,106952.0,18506.0,821.0,0.699853936508589
63103.70324212011,106937.0,18479.0,789.0,0.7098518498823978
63103.71324003349,106971.0,18502.0,857.0,0.7198497632634826
63103.72323794687,106963.0,18501.0,819.0,0.7298476766445674
63103.73323586024,106941.0,18477.0,812.0,0.7398455900183762
63103.743233773625,106922.0,18456.0,818.0,0.749843503399461
63103.753231687006,106960.0,18474.0,839.0,0.7598414167805458
63103.76322960038,106901.0,18453.0,778.0,0.7698393301543547
63103.77322751376,106925.0,18482.0,834.0,0.7798372435354395
63103.78322542714,106915.0,18468.0,824.0,0.7898351569165243
63103.793223340515,106907.0,18458.0,822.0,0.7998330702903331
63103.8032212539,106914.0,18455.0,824.0,0.8098309836714179
63103.81321916728,106925.0,18480.0,810.0,0.8198288970525027
63103.82321708065,106932.0,18447.0,814.0,0.8298268104263116
63103.83321499403,106940.0,18502.0,804.0,0.8398247238073964
63103.84321290741,106943.0,18480.0,837.0,0.8498226371884812
63103.85321082079,106929.0,18483.0,819.0,0.85982055056229
63103.86320873417,106919.0,18454.0,797.0,0.8698184639433748
63103.87320664755,106934.0,18497.0,849.0,0.8798163773244596
63103.88320456092,106939.0,18445.0,813.0,0.8898142906982685
63103.893202474304,106962.0,18483.0,822.0,0.8998122040793533
63103.903200387686,106919.0,18461.0,815.0,0.909810117460438
63103.91319830106,106943.0,18477.0,808.0,0.9198080308342469
63103.92319621444,106954.0,18490.0,816.0,0.9298059442153317
63103.93319412782,106934.0,18478.0,820.0,0.9398038575964165
63103.943192041195,106920.0,18444.0,823.0,0.9498017709702253
63103.95318995458,106927.0,18438.0,813.0,0.9597996843513101
63103.96318786796,106930.0,18447.0,836.0,0.9697975977323949
63103.97318578133,106927.0,18467.0,822.0,0.9797955111062038
63103.98318369471,106890.0,18472.0,806.0,0.9897934244872886
63103.99318160809,106941.0,18494.0,834.0,0.9997913378683734
63104.003179521475,106949.0,18481.0,821.0,1.0097892512494582
63104.01317743485,106923.0,18478.0,813.0,1.019787164623267
63104.02317534823,106906.0,18492.0,831.0,1.0297850780043518
63104.03317326161,106907.0,18457.0,800.0,1.0397829913854366
63104.043171174984,106911.0,18487.0,837.0,1.0497809047592455
63104.053169088365,106937.0,18478.0,812.0,1.0597788181403303
63104.06316700175,106931.0,18464.0,800.0,1.069776731521415
63104.07316491512,106890.0,18472.0,806.0,1.079774644895224
63104.0831628285,106941.0,18494.0,834.0,1.0897725582763087
63104.09316074188,106949.0,18481.0,821.0,1.0997704716573935
63104.103158655256,106923.0,18478.0,813.0,1.1097683850312023
63104.11315656864,106906.0,18492.0,831.0,1.1197662984122871
63104.12315448202,106907.0,18457.0,800.0,1.129764211793372
63104.13315239539,106911.0,18487.0,837.0,1.1397621251671808
63104.14315030877,106937.0,18478.0,812.0,1.1497600385482656
63104.153148222154,106931.0,18464.0,800.0,1.1597579519293504
63104.16314613553,106947.0,18482.0,799.0,1.1697558653031592
63104.17314404891,106938.0,18446.0,802.0,1.179753778684244
63104.18314196229,106936.0,18480.0,819.0,1.1897516920653288
63104.193139875664,106957.0,18486.0,809.0,1.1997496054391377
63104.203137789045,106947.0,18465.0,833.0,1.2097475188202225
63104.21313570243,106967.0,18482.0,837.0,1.2197454322013073
63104.2231336158,106944.0,18478.0,820.0,1.229743345575116
63104.23313152918,106928.0,18470.0,798.0,1.239741258956201
63104.24312944256,106962.0,18467.0,797.0,1.2497391723372857
63104.253127355936,106955.0,18487.0,848.0,1.2597370857110946
63104.26312526932,106956.0,18472.0,824.0,1.2697349990921794
63104.2731231827,106925.0,18441.0,819.0,1.2797329124732642
63104.28312109607,106962.0,18458.0,837.0,1.289730825847073
63104.29311900945,106976.0,18506.0,823.0,1.2997287392281578
63104.303116922834,106962.0,18475.0,810.0,1.3097266526092426
63104.31311483621,106926.0,18504.0,831.0,1.3197245659830514
63104.32311274959,106940.0,18480.0,805.0,1.3297224793641362
63104.33311066297,106981.0,18500.0,788.0,1.339720392745221
63104.343108576344,106955.0,18471.0,844.0,1.3497183061190299
63104.353106489725,106952.0,18480.0,825.0,1.3597162195001147
63104.363104403106,106951.0,18478.0,800.0,1.3697141328811995
63104.37310231648,106965.0,18466.0,821.0,1.3797120462550083
63104.38310022986,106912.0,18441.0,793.0,1.3897099596360931
63104.39309814324,106959.0,18445.0,816.0,1.399707873017178
63104.403096056616,106942.0,18472.0,826.0,1.4097057863909868
63104.41309397,106972.0,18469.0,834.0,1.4197036997720716
63104.42309188338,106970.0,18481.0,843.0,1.4297016131531564
63104.43308979675,106965.0,18488.0,822.0,1.4396995265269652
63104.44308771013,106966.0,18450.0,817.0,1.44969743990805
63104.453085623514,106991.0,18478.0,827.0,1.4596953532891348
63104.46308353689,106949.0,18456.0,803.0,1.4696932666629436
63104.47308145027,106966.0,18476.0,823.0,1.4796911800440284
63104.48307936365,106923.0,18494.0,823.0,1.4896890934251132
63104.493077277024,106949.0,18495.0,812.0,1.499687006798922
63104.503075190405,106974.0,18472.0,806.0,1.5096849201800069
63104.513073103786,106968.0,18459.0,798.0,1.5196828335610917
63104.52307101716,106945.0,18490.0,821.0,1.5296807469349005
63104.53306893054,106955.0,18465.0,826.0,1.5396786603159853
63104.54306684392,106990.0,18468.0,845.0,1.5496765736970701
63104.5530647573,106970.0,18483.0,819.0,1.559674487078155
63104.56306267068,106995.0,18480.0,806.0,1.5696724004519638
63104.57306058406,106996.0,18464.0,836.0,1.5796703138330486
63104.58305849744,106952.0,18473.0,796.0,1.5896682272141334
63104.59305641081,106982.0,18463.0,819.0,1.5996661405879422
63104.603054324194,107005.0,18471.0,844.0,1.609664053969027
63104.613052237575,107008.0,18479.0,805.0,1.6196619673501118
63104.62305015095,107009.0,18474.0,829.0,1.6296598807239207
63104.63304806433,106988.0,18471.0,823.0,1.6396577941050055
63104.64304597771,106934.0,18472.0,828.0,1.6496557074860903
63104.653043891085,106929.0,18478.0,824.0,1.659653620859899
63104.663041804466,106974.0,18483.0,807.0,1.669651534240984
63104.67303971785,106978.0,18477.0,826.0,1.6796494476220687
63104.68303763122,106962.0,18471.0,799.0,1.6896473609958775
63104.6930355446,106973.0,18483.0,846.0,1.6996452743769623
63104.70303345798,106942.0,18464.0,798.0,1.7096431877580471
63104.71303137136,106943.0,18472.0,828.0,1.719641101131856
63104.72302928474,106916.0,18465.0,818.0,1.7296390145129408
63104.73302719812,106899.0,18453.0,802.0,1.7396369278940256
63104.74302511149,106943.0,18483.0,824.0,1.7496348412678344
63104.753023024874,106929.0,18470.0,817.0,1.7596327546489192
63104.763020938255,106901.0,18457.0,821.0,1.769630668030004
63104.77301885163,106941.0,18501.0,850.0,1.7796285814038129
63104.78301676501,106867.0,18436.0,805.0,1.7896264947848977
63104.79301467839,106910.0,18466.0,813.0,1.7996244081659825
63104.803012591765,106917.0,18439.0,836.0,1.8096223215397913
63104.813010505146,106901.0,18453.0,819.0,1.819620234920876
63104.82300841853,106917.0,18479.0,848.0,1.829618148301961
63104.8330063319,106908.0,18472.0,817.0,1.8396160616757697
63104.84300424528,106941.0,18468.0,821.0,1.8496139750568545
63104.85300215866,106907.0,18469.0,789.0,1.8596118884379393
63104.86300007204,106898.0,18479.0,835.0,1.8696098018117482
63104.87299798542,106903.0,18468.0,822.0,1.879607715192833
63104.8829958988,106905.0,18484.0,797.0,1.8896056285739178
63104.89299381217,106938.0,18504.0,849.0,1.8996035419477266
63104.902991725554,106933.0,18441.0,808.0,1.9096014553288114
63104.912989638935,106916.0,18467.0,813.0,1.9195993687098962
63104.92298755231,106909.0,18448.0,807.0,1.929597282083705
63104.93298546569,106899.0,18453.0,788.0,1.9395951954647899
63104.94298337907,106944.0,18497.0,843.0,1.9495931088458747
63104.952981292445,106932.0,18474.0,814.0,1.9595910222196835
63104.962979205826,106909.0,18461.0,829.0,1.9695889356007683
63104.97297711921,106928.0,18482.0,840.0,1.979586848981853
63104.98297503258,106889.0,18466.0,826.0,1.989584762355662
63104.99297294596,106927.0,18468.0,818.0,1.9995826757367468
63105.00297085934,106882.0,18499.0,840.0,2.0095805891178316
63105.01296877272,106921.0,18470.0,817.0,2.0195785024916404
63105.0229666861,106914.0,18469.0,819.0,2.029576415872725
63105.03296459948,106932.0,18482.0,834.0,2.03957432925381
63105.04296251285,106897.0,18478.0,800.0,2.049572242627619
63105.052960426234,106913.0,18470.0,816.0,2.0595701560087036
63105.062958339615,106943.0,18487.0,837.0,2.0695680693897884
63105.07295625299,106891.0,18478.0,802.0,2.0795659827635973
63105.08295416637,106931.0,18453.0,815.0,2.089563896144682
63105.09295207975,106934.0,18493.0,802.0,2.099561809525767
63105.102949993125,106913.0,18456.0,791.0,2.1095597228995757
63105.112947906506,106973.0,18462.0,836.0,2.1195576362806605
63105.12294581989,106937.0,18486.0,823.0,2.1295555496617453
63105.13294373326,106911.0,18441.0,830.0,2.139553463035554
63105.14294164664,106959.0,18475.0,818.0,2.149551376416639
63105.15293956002,106934.0,18465.0,821.0,2.1595492897977238
63105.162937473404,106949.0,18483.0,824.0,2.1695472031788086
63105.17293538678,106955.0,18469.0,837.0,2.1795451165526174
63105.18293330016,106936.0,18471.0,809.0,2.189543029933702
63105.19293121354,106935.0,18470.0,800.0,2.199540943314787
63105.202929126914,106939.0,18468.0,819.0,2.209538856688596
63105.212927040295,106937.0,18488.0,803.0,2.2195367700696806
63105.222924953676,106956.0,18492.0,817.0,2.2295346834507654
63105.23292286705,106970.0,18489.0,846.0,2.2395325968245743
63105.24292078043,106950.0,18460.0,829.0,2.249530510205659
63105.25291869381,106940.0,18460.0,807.0,2.259528423586744
63105.262916607186,106965.0,18501.0,831.0,2.2695263369605527
63105.27291452057,106952.0,18454.0,822.0,2.2795242503416375
63105.28291243395,106947.0,18476.0,811.0,2.2895221637227223
63105.29291034732,106953.0,18480.0,848.0,2.299520077096531
63105.3029082607,106931.0,18461.0,809.0,2.309517990477616
63105.312906174084,106962.0,18467.0,825.0,2.3195159038587008
63105.32290408746,106946.0,18480.0,822.0,2.3295138172325096
63105.33290200084,106928.0,18480.0,807.0,2.3395117306135944
63105.34289991422,106950.0,18496.0,808.0,2.349509643994679
63105.35289782759,106997.0,18477.0,839.0,2.359507557368488
63105.362895740975,106965.0,18474.0,821.0,2.369505470749573
63105.372893654356,106976.0,18470.0,810.0,2.3795033841306577
63105.38289156773,106973.0,18481.0,849.0,2.3895012975044665
63105.39288948111,106943.0,18444.0,813.0,2.3994992108855513
63105.40288739449,106979.0,18487.0,816.0,2.409497124266636
63105.412885307866,106984.0,18478.0,824.0,2.419495037640445
63105.42288322125,106967.0,18458.0,811.0,2.4294929510215297
63105.43288113463,106984.0,18507.0,803.0,2.4394908644026145
63105.442879048,106988.0,18466.0,842.0,2.4494887777764234
63105.45287696138,106948.0,18462.0,849.0,2.459486691157508
63105.462874874764,106977.0,18497.0,854.0,2.469484604538593
63105.47287278814,106987.0,18474.0,814.0,2.479482517912402
63105.48287070152,106991.0,18481.0,827.0,2.4894804312934866
63105.4928686149,106992.0,18450.0,826.0,2.4994783446745714
63105.50286652827,106963.0,18459.0,808.0,2.5094762580483803
63105.512864441655,106925.0,18482.0,835.0,2.519474171429465
63105.522862355036,106981.0,18481.0,822.0,2.52947208481055
63105.53286026841,106998.0,18483.0,802.0,2.5394699981843587
63105.54285818179,106990.0,18483.0,782.0,2.5494679115654435
63105.55285609517,106980.0,18470.0,834.0,2.5594658249465283
63105.562854008545,106977.0,18482.0,817.0,2.569463738320337
63105.57285192193,106989.0,18486.0,809.0,2.579461651701422
63105.58284983531,106999.0,18486.0,835.0,2.5894595650825067
63105.59284774868,106961.0,18469.0,807.0,2.5994574784563156
63105.60284566206,106994.0,18486.0,820.0,2.6094553918374004
63105.61284357544,107014.0,18479.0,814.0,2.619453305218485
63105.62284148882,106957.0,18473.0,798.0,2.629451218592294
63105.6328394022,106985.0,18511.0,819.0,2.639449131973379
63105.64283731558,106975.0,18470.0,829.0,2.6494470453544636
63105.65283522895,106952.0,18461.0,807.0,2.6594449587282725
63105.662833142334,106989.0,18483.0,837.0,2.6694428721093573
63105.672831055716,106960.0,18468.0,836.0,2.679440785490442
63105.68282896909,106943.0,18477.0,778.0,2.689438698864251
63105.69282688247,106909.0,18475.0,825.0,2.6994366122453357
63105.70282479585,106949.0,18465.0,794.0,2.7094345256264205
63105.712822709225,106920.0,18473.0,807.0,2.7194324390002294
63105.72282062261,106914.0,18474.0,815.0,2.729430352381314
63105.73281853599,106918.0,18468.0,847.0,2.739428265762399
63105.74281644937,106906.0,18462.0,803.0,2.7494261791434838
63105.75281436274,106932.0,18488.0,856.0,2.7594240925172926
63105.76281227612,106914.0,18474.0,807.0,2.7694220058983774
63105.772810189505,106919.0,18472.0,821.0,2.779419919279462
63105.78280810288,106953.0,18508.0,834.0,2.789417832653271
63105.79280601626,106927.0,18454.0,813.0,2.799415746034356
63105.80280392964,106927.0,18468.0,834.0,2.8094136594154406
63105.812801843014,106920.0,18482.0,816.0,2.8194115727892495
63105.822799756395,106923.0,18452.0,833.0,2.8294094861703343
63105.83279766978,106941.0,18489.0,824.0,2.839407399551419
63105.84279558315,106915.0,18509.0,855.0,2.849405312925228
63105.85279349653,106919.0,18476.0,818.0,2.8594032263063127
63105.86279140991,106892.0,18475.0,806.0,2.8694011396873975
63105.872789323286,106962.0,18487.0,847.0,2.8793990530612064
63105.88278723667,106927.0,18489.0,788.0,2.889396966442291
63105.89278515005,106918.0,18479.0,821.0,2.899394879823376
63105.90278306342,106937.0,18481.0,842.0,2.909392793197185
63105.9127809768,106937.0,18479.0,811.0,2.9193907065782696
63105.922778890184,106941.0,18465.0,829.0,2.9293886199593544
63105.93277680356,106924.0,18476.0,826.0,2.9393865333331632
63105.94277471694,106930.0,18478.0,801.0,2.949384446714248
63105.95277263032,106970.0,18493.0,809.0,2.959382360095333
63105.962770543694,106925.0,18450.0,829.0,2.9693802734691417
63105.972768457075,106925.0,18474.0,817.0,2.9793781868502265
63105.98276637046,106932.0,18472.0,831.0,2.9893761002313113
63105.99276428383,106926.0,18469.0,836.0,2.99937401360512
63106.00276219721,106956.0,18484.0,821.0,3.009371926986205
63106.01276011059,106944.0,18470.0,809.0,3.0193698403672897
63106.022758023966,106904.0,18479.0,813.0,3.0293677537410986
63106.03275593735,106946.0,18496.0,839.0,3.0393656671221834
63106.04275385073,106947.0,18485.0,813.0,3.049363580503268
63106.0527517641,106942.0,18466.0,820.0,3.059361493877077
63106.06274967748,106931.0,18466.0,802.0,3.069359407258162
63106.072747590864,106974.0,18491.0,834.0,3.0793573206392466
63106.08274550424,106912.0,18460.0,796.0,3.0893552340130555
63106.09274341762,106953.0,18474.0,828.0,3.0993531473941403
63106.102741331,106931.0,18478.0,816.0,3.109351060775225
63106.112739244374,106950.0,18437.0,843.0,3.119348974149034
63106.122737157755,106957.0,18492.0,826.0,3.1293468875301187
63106.132735071136,106942.0,18477.0,820.0,3.1393448009112035
63106.14273298451,106915.0,18476.0,820.0,3.1493427142850123
63106.15273089789,106950.0,18502.0,809.0,3.159340627666097
63106.16272881127,106953.0,18451.0,820.0,3.169338541047182
63106.172726724646,106945.0,18472.0,819.0,3.1793364544209908
63106.18272463803,106953.0,18483.0,834.0,3.1893343678020756
63106.19272255141,106949.0,18467.0,825.0,3.1993322811831604
63106.20272046478,106931.0,18468.0,801.0,3.209330194556969
63106.21271837816,106966.0,18475.0,815.0,3.219328107938054
63106.222716291544,106941.0,18452.0,805.0,3.229326021319139
63106.23271420492,106983.0,18483.0,790.0,3.2393239346929477
63106.2427121183,106946.0,18484.0,835.0,3.2493218480740325
63106.25271003168,106968.0,18477.0,820.0,3.2593197614551173
63106.262707945054,106938.0,18473.0,803.0,3.269317674828926
63106.272705858435,106978.0,18491.0,835.0,3.279315588210011
63106.282703771816,106952.0,18478.0,816.0,3.2893135015910957
63106.29270168519,106976.0,18481.0,822.0,3.2993114149649045
63106.30269959857,107000.0,18487.0,796.0,3.3093093283459893
63106.31269751195,106943.0,18502.0,824.0,3.319307241727074
63106.32269542533,106987.0,18497.0,826.0,3.329305155108159
63106.33269333871,106990.0,18490.0,823.0,3.339303068481968
63106.34269125209,106976.0,18486.0,784.0,3.3493009818630526
63106.35268916547,106993.0,18446.0,820.0,3.3592988952441374
63106.36268707884,106986.0,18502.0,844.0,3.3692968086179462
63106.372684992224,106965.0,18474.0,788.0,3.379294721999031
63106.382682905605,106938.0,18495.0,814.0,3.389292635380116
63106.39268081898,106988.0,18502.0,834.0,3.3992905487539247
63106.40267873236,106955.0,18465.0,810.0,3.4092884621350095
63106.41267664574,106992.0,18479.0,806.0,3.4192863755160943
63106.422674559115,106983.0,18467.0,842.0,3.429284288889903
63106.432672472496,106978.0,18499.0,818.0,3.439282202270988
63106.44267038588,107005.0,18498.0,854.0,3.4492801156520727
63106.45266829925,106983.0,18481.0,799.0,3.4592780290258816
63106.46266621263,107000.0,18489.0,823.0,3.4692759424069664
63106.47266412601,107027.0,18509.0,832.0,3.479273855788051
63106.48266203939,106998.0,18470.0,848.0,3.48927176916186
63106.49265995277,107011.0,18474.0,817.0,3.499269682542945
63106.50265786615,106987.0,18534.0,856.0,3.5092675959240296
63106.51265577952,106991.0,18459.0,826.0,3.5192655092978384
63106.522653692904,107002.0,18468.0,816.0,3.5292634226789232
63106.532651606285,106963.0,18466.0,821.0,3.539261336060008
63106.54264951966,106994.0,18474.0,821.0,3.549259249433817
63106.55264743304,106974.0,18492.0,828.0,3.5592571628149017
63106.56264534642,107029.0,18505.0,834.0,3.5692550761959865
63106.572643259795,107010.0,18472.0,785.0,3.5792529895697953
63106.582641173176,106996.0,18473.0,818.0,3.58925090295088
63106.59263908656,106980.0,18506.0,837.0,3.599248816331965
63106.60263699993,106944.0,18471.0,793.0,3.6092467297057738
63106.61263491331,106962.0,18462.0,816.0,3.6192446430868586
63106.62263282669,106967.0,18481.0,820.0,3.6292425564679434
63106.63263074007,106955.0,18486.0,815.0,3.639240469841752
63106.64262865345,106968.0,18501.0,848.0,3.649238383222837
63106.65262656683,106935.0,18477.0,818.0,3.659236296603922
63106.6626244802,106929.0,18474.0,823.0,3.6692342099777306
63106.672622393584,106936.0,18468.0,823.0,3.6792321233588154
63106.682620306965,106887.0,18495.0,816.0,3.6892300367399002
63106.69261822034,106922.0,18485.0,806.0,3.699227950113709
63106.70261613372,106931.0,18473.0,829.0,3.709225863494794
63106.7126140471,106962.0,18502.0,837.0,3.7192237768758787
63106.722611960475,106939.0,18489.0,836.0,3.7292216902496875
63106.732609873856,106901.0,18447.0,811.0,3.7392196036307723
63106.74260778724,106935.0,18475.0,822.0,3.749217517011857
63106.75260570061,106941.0,18468.0,804.0,3.759215430385666
63106.76260361399,106940.0,18458.0,814.0,3.7692133437667508
63106.77260152737,106892.0,18431.0,782.0,3.7792112571478356
63106.78259944075,106933.0,18478.0,821.0,3.7892091705216444
63106.79259735413,106912.0,18479.0,817.0,3.799207083902729
63106.80259526751,106963.0,18498.0,839.0,3.809204997283814
63106.81259318088,106965.0,18507.0,836.0,3.819202910657623
63106.822591094264,106946.0,18484.0,816.0,3.8292008240387077
63106.832589007645,106933.0,18469.0,829.0,3.8391987374197925
63106.84258692102,106967.0,18505.0,829.0,3.8491966507936013
63106.8525848344,106969.0,18475.0,837.0,3.859194564174686
63106.86258274778,106946.0,18488.0,822.0,3.869192477555771
63106.872580661155,106939.0,18468.0,801.0,3.8791903909295797
63106.882578574536,106935.0,18476.0,834.0,3.8891883043106645
63106.89257648792,106928.0,18471.0,799.0,3.8991862176917493
63106.9025744013,106961.0,18494.0,825.0,3.909184131072834
63106.91257231467,106970.0,18477.0,839.0,3.919182044446643
63106.92257022805,106963.0,18486.0,806.0,3.9291799578277278
63106.932568141434,106958.0,18469.0,824.0,3.9391778712088126
63106.94256605481,106958.0,18482.0,816.0,3.9491757845826214
63106.95256396819,106925.0,18476.0,797.0,3.959173697963706
63106.96256188157,106924.0,18470.0,810.0,3.969171611344791
63106.972559794944,106951.0,18466.0,795.0,3.9791695247186
63106.982557708325,106955.0,18482.0,814.0,3.9891674380996847
63106.992555621706,106967.0,18497.0,806.0,3.9991653514807695
63107.00255353508,106954.0,18460.0,795.0,4.009163264854578
63107.01255144846,106941.0,18470.0,814.0,4.019161178235663
63107.02254936184,106966.0,18478.0,819.0,4.029159091616748
63107.032547275216,106910.0,18448.0,823.0,4.039157004990557
63107.0425451886,106985.0,18490.0,822.0,4.0491549183716415
63107.05254310198,106952.0,18499.0,793.0,4.059152831752726
63107.06254101535,106970.0,18481.0,822.0,4.069150745126535
63107.07253892873,106983.0,18469.0,838.0,4.07914865850762
63107.082536842114,106986.0,18479.0,798.0,4.089146571888705
63107.09253475549,106976.0,18485.0,779.0,4.099144485262514
63107.10253266887,106955.0,18476.0,805.0,4.109142398643598
63107.11253058225,106968.0,18447.0,824.0,4.119140312024683
63107.12252849562,106978.0,18506.0,820.0,4.129138225398492
63107.132526409005,106966.0,18498.0,822.0,4.139136138779577
63107.142524322386,106938.0,18490.0,800.0,4.149134052160662
63107.15252223576,106979.0,18459.0,819.0,4.1591319655344705
63107.16252014914,106986.0,18462.0,843.0,4.169129878915555
63107.17251806252,106960.0,18477.0,803.0,4.17912779229664
63107.182515975896,106959.0,18456.0,807.0,4.189125705670449
63107.19251388928,106984.0,18481.0,816.0,4.199123619051534
63107.20251180266,106941.0,18507.0,809.0,4.2091215324326186
63107.21250971603,107011.0,18483.0,818.0,4.219119445806427
63107.22250762941,106957.0,18452.0,813.0,4.229117359187512
63107.232505542794,106992.0,18487.0,821.0,4.239115272568597
63107.24250345617,107021.0,18505.0,812.0,4.249113185942406
63107.25250136955,107004.0,18487.0,817.0,4.259111099323491
63107.26249928293,107000.0,18466.0,821.0,4.269109012704575
63107.2724971963,106994.0,18486.0,818.0,4.279106926078384
63107.282495109685,107005.0,18464.0,822.0,4.289104839459469
63107.292493023066,107019.0,18464.0,825.0,4.299102752840554
63107.30249093644,106942.0,18502.0,800.0,4.309100666214363
63107.31248884982,107008.0,18472.0,816.0,4.3190985795954475
63107.3224867632,106976.0,18435.0,809.0,4.329096492976532
63107.332484676575,106990.0,18471.0,801.0,4.339094406350341
63107.34248258996,106965.0,18478.0,815.0,4.349092319731426
63107.35248050334,106998.0,18477.0,823.0,4.359090233112511
63107.36247841671,106987.0,18488.0,834.0,4.36908814648632
63107.37247633009,106971.0,18465.0,828.0,4.379086059867404
63107.38247424347,106971.0,18472.0,790.0,4.389083973248489
63107.39247215685,107006.0,18484.0,812.0,4.399081886622298
63107.40247007023,107040.0,18510.0,794.0,4.409079800003383
63107.41246798361,107000.0,18473.0,799.0,4.419077713384468
63107.42246589698,106983.0,18470.0,809.0,4.4290756267582765
63107.432463810364,107008.0,18463.0,854.0,4.439073540139361
63107.442461723746,107033.0,18502.0,840.0,4.449071453520446
63107.45245963712,107032.0,18486.0,834.0,4.459069366894255
63107.4624575505,107039.0,18519.0,840.0,4.46906728027534
63107.47245546388,107023.0,18476.0,815.0,4.4790651936564245
63107.48245337726,106983.0,18491.0,819.0,4.489063107037509
63107.49245129064,106999.0,18485.0,839.0,4.499061020411318
63107.50244920402,106996.0,18479.0,812.0,4.509058933792403
63107.5124471174,107001.0,18489.0,819.0,4.519056847173488
63107.52244503077,107000.0,18464.0,882.0,4.529054760547297
63107.53244294415,107023.0,18492.0,824.0,4.539052673928381
63107.542440857535,106975.0,18473.0,807.0,4.549050587309466
63107.55243877091,106976.0,18492.0,835.0,4.559048500683275
63107.56243668429,106985.0,18500.0,803.0,4.56904641406436
63107.57243459767,106947.0,18472.0,833.0,4.579044327445445
63107.582432511044,106969.0,18472.0,811.0,4.5890422408192535
63107.592430424425,106972.0,18479.0,812.0,4.599040154200338
63107.60242833781,106972.0,18495.0,819.0,4.609038067581423
63107.61242625118,106959.0,18460.0,837.0,4.619035980955232
63107.62242416456,106959.0,18470.0,810.0,4.629033894336317
63107.63242207794,106966.0,18481.0,821.0,4.6390318077174015
63107.642419991316,106943.0,18476.0,833.0,4.64902972109121
63107.6524179047,106961.0,18501.0,850.0,4.659027634472295
63107.66241581808,106971.0,18493.0,839.0,4.66902554785338
63107.67241373145,106954.0,18487.0,812.0,4.679023461227189
63107.68241164483,106934.0,18478.0,829.0,4.689021374608274
63107.692409558214,106940.0,18478.0,829.0,4.699019287989358
63107.70240747159,106925.0,18461.0,801.0,4.709017201363167
63107.71240538497,106949.0,18468.0,820.0,4.719015114744252
63107.72240329835,106949.0,18507.0,816.0,4.729013028125337
63107.732401211724,106950.0,18453.0,795.0,4.739010941499146
63107.742399125105,106931.0,18456.0,811.0,4.7490088548802305
63107.75239703849,106968.0,18471.0,799.0,4.759006768261315
63107.76239495186,106957.0,18470.0,834.0,4.769004681635124
63107.77239286524,106969.0,18496.0,832.0,4.779002595016209
63107.78239077862,106956.0,18442.0,828.0,4.789000508397294
63107.792388691996,106973.0,18482.0,813.0,4.798998421771103
63107.80238660538,106963.0,18450.0,825.0,4.808996335152187
63107.81238451876,106997.0,18473.0,842.0,4.818994248533272
63107.82238243213,106932.0,18484.0,824.0,4.828992161907081
63107.83238034551,106911.0,18462.0,788.0,4.838990075288166
63107.842378258894,106952.0,18492.0,820.0,4.848987988669251
63107.85237617227,106956.0,18511.0,827.0,4.8589859020430595
63107.86237408565,106967.0,18484.0,835.0,4.868983815424144
63107.87237199903,106943.0,18474.0,807.0,4.878981728805229
63107.882369912404,106955.0,18481.0,824.0,4.888979642179038
63107.892367825785,106990.0,18490.0,817.0,4.898977555560123
63107.902365739166,106933.0,18478.0,799.0,4.9089754689412075
63107.91236365254,106991.0,18511.0,785.0,4.918973382315016
63107.92236156592,106966.0,18480.0,822.0,4.928971295696101
63107.9323594793,106927.0,18474.0,824.0,4.938969209077186
63107.942357392676,106977.0,18504.0,823.0,4.948967122450995
63107.95235530606,106991.0,18493.0,809.0,4.95896503583208
63107.96235321944,106943.0,18454.0,800.0,4.968962949213164
63107.97235113281,106972.0,18464.0,824.0,4.978960862586973
63107.98234904619,106981.0,18498.0,846.0,4.988958775968058
63107.992346959574,106932.0,18475.0,820.0,4.998956689349143
63108.00234487295,106974.0,18465.0,817.0,5.008954602722952
63108.01234278633,107004.0,18478.0,842.0,5.0189525161040365
63108.02234069971,106968.0,18466.0,809.0,5.028950429485121
63108.032338613084,106990.0,18485.0,839.0,5.03894834285893
63108.042336526465,106983.0,18481.0,815.0,5.048946256240015
63108.052334439846,106949.0,18498.0,808.0,5.0589441696211
63108.06233235323,107003.0,18507.0,829.0,5.0689420830021845
63108.0723302666,106957.0,18489.0,798.0,5.078939996375993
63108.08232817998,106969.0,18482.0,817.0,5.088937909757078
63108.09232609336,106985.0,18492.0,784.0,5.098935823138163
63108.10232400674,106980.0,18468.0,822.0,5.108933736511972
63108.11232192012,106975.0,18500.0,804.0,5.118931649893057
63108.1223198335,106985.0,18481.0,820.0,5.128929563274141
63108.13231774687,106970.0,18466.0,807.0,5.13892747664795
63108.142315660254,106990.0,18466.0,820.0,5.148925390029035
63108.152313573635,106975.0,18467.0,834.0,5.15892330341012
63108.16231148701,106981.0,18474.0,820.0,5.168921216783929
63108.17230940039,106998.0,18509.0,829.0,5.1789191301650135
63108.18230731377,107016.0,18486.0,845.0,5.188917043546098
63108.192305227145,106984.0,18477.0,803.0,5.198914956919907
63108.202303140526,106997.0,18483.0,821.0,5.208912870300992
63108.21230105391,106972.0,18489.0,840.0,5.218910783682077
63108.22229896728,106981.0,18464.0,807.0,5.228908697055886
63108.23229688066,106989.0,18496.0,841.0,5.23890661043697
63108.24229479404,106985.0,18488.0,829.0,5.248904523818055
63108.25229270742,106993.0,18454.0,809.0,5.258902437191864
63108.2622906208,106982.0,18494.0,825.0,5.268900350572949
63108.27228853418,107001.0,18468.0,795.0,5.278898263954034
63108.28228644755,107000.0,18479.0,822.0,5.2888961773278425
63108.292284360934,107018.0,18487.0,840.0,5.298894090708927
63108.302282274315,106981.0,18464.0,815.0,5.308892004090012
63108.31228018769,107024.0,18462.0,812.0,5.318889917463821
63108.32227810107,107010.0,18482.0,822.0,5.328887830844906
63108.33227601445,106991.0,18497.0,836.0,5.3388857442259905
63108.342273927825,106978.0,18483.0,799.0,5.348883657599799
63108.352271841206,107011.0,18509.0,841.0,5.358881570980884
63108.36226975459,106988.0,18459.0,801.0,5.368879484361969
63108.37226766796,107000.0,18462.0,797.0,5.378877397735778
63108.38226558134,106996.0,18491.0,848.0,5.388875311116863
63108.39226349472,107026.0,18483.0,798.0,5.398873224497947
63108.4022614081,107027.0,18488.0,826.0,5.408871137871756
63108.41225932148,107039.0,18514.0,823.0,5.418869051252841
63108.42225723486,106999.0,18469.0,798.0,5.428866964633926
63108.43225514823,107020.0,18498.0,817.0,5.438864878007735
63108.442253061614,107017.0,18484.0,807.0,5.4488627913888195
63108.452250974995,106995.0,18465.0,846.0,5.458860704769904
63108.46224888837,107007.0,18521.0,834.0,5.468858618143713
63108.47224680175,106985.0,18471.0,829.0,5.478856531524798
63108.48224471513,106970.0,18477.0,815.0,5.488854444905883
63108.492242628505,106946.0,18437.0,806.0,5.4988523582796915
63108.502240541886,106923.0,18465.0,827.0,5.508850271660776
63108.51223845527,106895.0,18472.0,797.0,5.518848185041861
63108.52223636864,106971.0,18477.0,840.0,5.52884609841567
63108.53223428202,106945.0,18498.0,819.0,5.538844011796755
63108.5422321954,106950.0,18481.0,802.0,5.54884192517784
63108.55223010878,106977.0,18488.0,826.0,5.558839838551648
63108.56222802216,106940.0,18457.0,808.0,5.568837751932733
63108.57222593554,106953.0,18486.0,818.0,5.578835665313818
63108.58222384891,106959.0,18501.0,815.0,5.588833578687627
63108.592221762294,106939.0,18449.0,823.0,5.598831492068712
63108.602219675675,106959.0,18487.0,786.0,5.6088294054497965
63108.61221758905,106944.0,18483.0,817.0,5.618827318823605
63108.62221550243,106937.0,18463.0,848.0,5.62882523220469
63108.63221341581,106938.0,18507.0,820.0,5.638823145585775
63108.64221132919,106948.0,18476.0,829.0,5.64882105896686
63108.652209242566,106949.0,18483.0,817.0,5.6588189723406686
63108.66220715595,106941.0,18452.0,816.0,5.668816885721753
63108.67220506933,106930.0,18463.0,832.0,5.678814799102838
63108.6822029827,106906.0,18483.0,807.0,5.688812712476647
63108.69220089608,106964.0,18474.0,823.0,5.698810625857732
63108.702198809464,106964.0,18482.0,810.0,5.708808539238817
63108.71219672284,106929.0,18469.0,831.0,5.718806452612625
63108.72219463622,106986.0,18490.0,814.0,5.72880436599371
63108.7321925496,106951.0,18483.0,815.0,5.738802279374795
63108.742190462974,106924.0,18479.0,815.0,5.748800192748604
63108.752188376355,106911.0,18475.0,811.0,5.758798106129689
63108.762186289736,106976.0,18513.0,837.0,5.7687960195107735
63108.77218420311,106945.0,18478.0,827.0,5.778793932884582
63108.78218211649,106974.0,18520.0,798.0,5.788791846265667
63108.79218002987,106953.0,18467.0,800.0,5.798789759646752
63108.802177943246,106954.0,18488.0,821.0,5.808787673020561
63108.81217585663,106961.0,18488.0,809.0,5.818785586401646
63108.82217377001,106974.0,18482.0,819.0,5.82878349978273
63108.83217168338,106940.0,18454.0,798.0,5.838781413156539
63108.84216959676,106988.0,18498.0,833.0,5.848779326537624
63108.852167510144,106964.0,18488.0,818.0,5.858777239918709
63108.86216542352,106944.0,18466.0,813.0,5.868775153292518
63108.8721633369,106965.0,18495.0,840.0,5.878773066673602
63108.88216125028,106952.0,18475.0,819.0,5.888770980054687
63108.89215916365,106957.0,18462.0,812.0,5.898768893428496
63108.902157077035,106943.0,18484.0,854.0,5.908766806809581
63108.912154990416,106947.0,18473.0,828.0,5.918764720190666
63108.92215290379,106949.0,18495.0,835.0,5.9287626335644745
63108.93215081717,106987.0,18483.0,812.0,5.938760546945559
63108.94214873055,107001.0,18499.0,811.0,5.948758460326644
63108.952146643926,106974.0,18473.0,806.0,5.958756373700453
63108.96214455731,106973.0,18490.0,838.0,5.968754287081538
63108.97214247069,106973.0,18486.0,817.0,5.978752200462623
63108.98214038406,107000.0,18483.0,839.0,5.988750113836431
63108.99213829744,107000.0,18499.0,838.0,5.998748027217516
63109.002136210824,106999.0,18503.0,829.0,6.008745940598601
63109.0121341242,106984.0,18487.0,812.0,6.01874385397241
63109.02213203758,107017.0,18476.0,855.0,6.028741767353495
63109.03212995096,106974.0,18466.0,807.0,6.0387396807345795
63109.04212786433,106989.0,18505.0,821.0,6.048737594108388
63109.052125777715,106983.0,18492.0,821.0,6.058735507489473
63109.062123691096,106989.0,18464.0,815.0,6.068733420870558
63109.07212160447,107005.0,18488.0,825.0,6.078731334244367
63109.08211951785,106962.0,18471.0,822.0,6.0887292476254515
63109.09211743123,106987.0,18478.0,830.0,6.098727161006536
63109.102115344605,106996.0,18496.0,830.0,6.108725074380345
63109.11211325799,107018.0,18498.0,850.0,6.11872298776143
63109.12211117137,106976.0,18481.0,799.0,6.128720901142515
63109.13210908474,107003.0,18481.0,836.0,6.138718814516324
63109.14210699812,106993.0,18504.0,815.0,6.148716727897408
63109.1521049115,106982.0,18483.0,793.0,6.158714641278493
63109.16210282488,107004.0,18503.0,839.0,6.168712554652302
63109.17210073826,106978.0,18475.0,810.0,6.178710468033387
63109.18209865164,106981.0,18445.0,823.0,6.188708381414472
63109.19209656501,107021.0,18493.0,813.0,6.1987062947882805
63109.202094478394,106978.0,18488.0,816.0,6.208704208169365
63109.212092391776,106998.0,18487.0,834.0,6.21870212155045
63109.22209030515,106993.0,18507.0,818.0,6.228700034924259
63109.23208821853,107000.0,18461.0,804.0,6.238697948305344
63109.24208613191,107003.0,18464.0,817.0,6.2486958616864285
63109.25208404529,106997.0,18503.0,837.0,6.258693775067513
63109.26208195867,107011.0,18486.0,821.0,6.268691688441322
63109.27207987205,106966.0,18480.0,830.0,6.278689601822407
63109.28207778543,106989.0,18482.0,793.0,6.288687515203492
63109.2920756988,107003.0,18457.0,781.0,6.298685428577301
63109.30207361218,107004.0,18488.0,825.0,6.308683341958385
63109.312071525565,106994.0,18491.0,843.0,6.31868125533947
63109.32206943894,106986.0,18474.0,805.0,6.328679168713279
63109.33206735232,106998.0,18497.0,827.0,6.338677082094364
63109.3420652657,107006.0,18476.0,826.0,6.348674995475449
63109.352063179074,107019.0,18479.0,812.0,6.3586729088492575
63109.362061092455,107030.0,18503.0,800.0,6.368670822230342
63109.37205900584,107022.0,18489.0,832.0,6.378668735611427
63109.38205691921,107021.0,18485.0,819.0,6.388666648985236
63109.39205483259,107027.0,18484.0,824.0,6.398664562366321
63109.40205274597,107004.0,18486.0,811.0,6.4086624757474056
63109.412050659346,106976.0,18457.0,814.0,6.418660389121214
63109.42204857273,106978.0,18505.0,841.0,6.428658302502299
63109.43204648611,106941.0,18498.0,821.0,6.438656215883384
63109.44204439948,106925.0,18473.0,787.0,6.448654129257193
63109.45204231286,106969.0,18513.0,852.0,6.458652042638278
63109.462040226244,106947.0,18479.0,812.0,6.468649956019362
63109.47203813962,106946.0,18483.0,791.0,6.478647869393171
63109.482036053,106940.0,18501.0,842.0,6.488645782774256
63109.49203396638,106935.0,18465.0,807.0,6.498643696155341
63109.502031879754,106948.0,18480.0,816.0,6.50864160952915
63109.512029793135,106968.0,18508.0,811.0,6.5186395229102345
63109.52202770652,106973.0,18488.0,828.0,6.528637436291319
63109.53202561989,106960.0,18511.0,828.0,6.538635349665128
63109.54202353327,106955.0,18502.0,818.0,6.548633263046213
63109.55202144665,106920.0,18464.0,848.0,6.558631176427298
63109.562019360026,106939.0,18489.0,815.0,6.568629089801107
63109.57201727341,106936.0,18470.0,841.0,6.578627003182191
63109.58201518679,106939.0,18486.0,825.0,6.588624916563276
63109.59201310016,106927.0,18485.0,850.0,6.598622829937085
63109.60201101354,106932.0,18448.0,807.0,6.60862074331817
63109.612008926924,106927.0,18484.0,800.0,6.618618656699255
63109.6220068403,106956.0,18484.0,809.0,6.6286165700730635
63109.63200475368,106978.0,18477.0,838.0,6.638614483454148
63109.64200266706,106935.0,18457.0,824.0,6.648612396835233
63109.652000580434,106973.0,18482.0,819.0,6.658610310209042
63109.661998493815,106945.0,18485.0,820.0,6.668608223590127
63109.671996407196,106940.0,18487.0,827.0,6.6786061369712115
63109.68199432057,106922.0,18506.0,799.0,6.68860405034502
63109.69199223395,106928.0,18482.0,801.0,6.698601963726105
63109.70199014733,106946.0,18479.0,823.0,6.70859987710719
63109.711988060706,106958.0,18499.0,827.0,6.718597790480999
63109.72198597409,106982.0,18505.0,831.0,6.728595703862084
63109.73198388747,106912.0,18458.0,797.0,6.738593617243168
63109.74198180084,106955.0,18481.0,822.0,6.748591530616977
63109.75197971422,106973.0,18491.0,820.0,6.758589443998062
63109.761977627604,106943.0,18486.0,794.0,6.768587357379147
63109.77197554098,106979.0,18515.0,806.0,6.778585270752956
63109.78197345436,106955.0,18482.0,806.0,6.7885831841340405
63109.79197136774,106932.0,18478.0,849.0,6.798581097515125
63109.80196928112,106956.0,18498.0,826.0,6.80857901089621
63109.811967194495,106939.0,18465.0,825.0,6.818576924270019
63109.821965107876,106936.0,18457.0,804.0,6.828574837651104
63109.83196302126,106966.0,18486.0,819.0,6.8385727510321885
63109.84196093463,106952.0,18525.0,843.0,6.848570664405997
63109.85195884801,106967.0,18474.0,808.0,6.858568577787082
63109.86195676139,106971.0,18491.0,808.0,6.868566491168167
63109.87195467477,106986.0,18494.0,827.0,6.878564404541976
63109.88195258815,106964.0,18482.0,820.0,6.888562317923061
63109.89195050153,106969.0,18488.0,809.0,6.898560231304145
63109.9019484149,106991.0,18489.0,812.0,6.908558144677954
63109.911946328284,106979.0,18516.0,808.0,6.918556058059039
63109.921944241665,106982.0,18497.0,828.0,6.928553971440124
63109.93194215504,106954.0,18496.0,817.0,6.938551884813933
63109.94194006842,107006.0,18511.0,808.0,6.9485497981950175
63109.9519379818,107023.0,18474.0,840.0,6.958547711576102
63109.961935895175,106998.0,18472.0,847.0,6.968545624949911
63109.971933808556,106989.0,18494.0,815.0,6.978543538330996
63109.98193172194,106976.0,18468.0,820.0,6.988541451712081
63109.99192963531,106994.0,18488.0,826.0,6.99853936508589
63110.00192754869,106979.0,18469.0,813.0,7.008537278466974
63110.01192546207,106983.0,18459.0,793.0,7.018535191848059
63110.02192337545,107000.0,18520.0,840.0,7.028533105221868
63110.03192128883,107002.0,18480.0,814.0,7.038531018602953
63110.04191920221,106998.0,18488.0,799.0,7.048528931984038
63110.05191711558,107011.0,18464.0,836.0,7.0585268453578465
63110.061915028964,107027.0,18500.0,838.0,7.068524758738931
63110.071912942345,106996.0,18475.0,818.0,7.078522672120016
63110.08191085572,107011.0,18491.0,796.0,7.088520585493825
63110.0919087691,107005.0,18465.0,840.0,7.09851849887491
63110.10190668248,106982.0,18480.0,803.0,7.1085164122559945
63110.111904595855,107003.0,18489.0,818.0,7.118514325629803
63110.121902509236,107029.0,18490.0,795.0,7.128512239010888
63110.13190042262,107023.0,18499.0,839.0,7.138510152391973
63110.14189833599,106981.0,18467.0,799.0,7.148508065765782
63110.15189624937,107015.0,18484.0,822.0,7.158505979146867
63110.16189416275,106968.0,18512.0,831.0,7.168503892527951
63110.17189207613,106982.0,18486.0,796.0,7.17850180590176
63110.18188998951,107011.0,18485.0,776.0,7.188499719282845
63110.19188790289,107035.0,18485.0,826.0,7.19849763266393
63110.20188581626,106996.0,18504.0,814.0,7.208495546037739
63110.211883729644,107013.0,18490.0,824.0,7.2184934594188235
63110.221881643025,106982.0,18464.0,813.0,7.228491372799908
63110.2318795564,107015.0,18491.0,820.0,7.238489286173717
63110.24187746978,106990.0,18461.0,804.0,7.248487199554802
63110.25187538316,107016.0,18485.0,838.0,7.258485112935887
63110.261873296535,107030.0,18466.0,834.0,7.268483026309696
63110.271871209916,107037.0,18492.0,822.0,7.27848093969078
63110.2818691233,107059.0,18494.0,853.0,7.288478853071865
63110.29186703667,107040.0,18514.0,818.0,7.298476766445674
63110.30186495005,107045.0,18482.0,845.0,7.308474679826759
63110.31186286343,107014.0,18477.0,813.0,7.318472593207844
63110.32186077681,107020.0,18473.0,826.0,7.328470506581652
63110.33185869019,106984.0,18489.0,814.0,7.338468419962737
63110.34185660357,106974.0,18483.0,798.0,7.348466333343822
63110.35185451694,107006.0,18491.0,818.0,7.358464246717631
63110.361852430324,106971.0,18482.0,811.0,7.368462160098716
63110.371850343705,107012.0,18502.0,842.0,7.3784600734798005
63110.38184825708,106949.0,18458.0,802.0,7.388457986853609
63110.39184617046,106974.0,18502.0,813.0,7.398455900234694
63110.40184408384,106965.0,18474.0,806.0,7.408453813615779
63110.41184199722,106983.0,18492.0,839.0,7.418451726996864
63110.421839910596,106989.0,18496.0,844.0,7.428449640370673
63110.43183782398,106974.0,18491.0,802.0,7.438447553751757
63110.44183573736,106973.0,18503.0,829.0,7.448445467132842
63110.45183365073,106944.0,18497.0,809.0,7.458443380506651
63110.46183156411,107002.0,18495.0,806.0,7.468441293887736
63110.471829477494,106960.0,18495.0,820.0,7.478439207268821
63110.48182739087,106936.0,18437.0,797.0,7.4884371206426295
63110.49182530425,106961.0,18494.0,815.0,7.498435034023714
63110.50182321763,106931.0,18488.0,817.0,7.508432947404799
63110.511821131004,106944.0,18482.0,810.0,7.518430860778608
63110.521819044385,106977.0,18458.0,822.0,7.528428774159693
63110.531816957766,106974.0,18513.0,834.0,7.5384266875407775
63110.54181487114,106985.0,18506.0,842.0,7.548424600914586
63110.55181278452,106931.0,18462.0,830.0,7.558422514295671
63110.5618106979,106968.0,18490.0,818.0,7.568420427676756
63110.571808611276,106983.0,18481.0,820.0,7.578418341050565
63110.58180652466,106943.0,18487.0,798.0,7.58841625443165
63110.59180443804,106938.0,18480.0,815.0,7.598414167812734
63110.60180235141,106959.0,18490.0,823.0,7.608412081186543
63110.61180026479,106962.0,18502.0,834.0,7.618409994567628
63110.621798178174,106960.0,18508.0,824.0,7.628407907948713
63110.63179609155,106971.0,18466.0,837.0,7.638405821322522
63110.64179400493,106957.0,18481.0,817.0,7.6484037347036065
63110.65179191831,106965.0,18446.0,800.0,7.658401648084691
63110.66178983168,106987.0,18513.0,827.0,7.6683995614585
63110.671787745065,106982.0,18463.0,796.0,7.678397474839585
63110.681785658446,106960.0,18488.0,815.0,7.68839538822067
63110.69178357182,106983.0,18476.0,846.0,7.6983933015944785
63110.7017814852,106971.0,18489.0,801.0,7.708391214975563
63110.71177939858,106970.0,18466.0,807.0,7.718389128356648
63110.721777311956,106971.0,18485.0,817.0,7.728387041730457
63110.73177522534,106935.0,18507.0,809.0,7.738384955111542
63110.74177313872,106952.0,18495.0,822.0,7.748382868492627
63110.75177105209,106968.0,18459.0,798.0,7.758380781866435
63110.76176896547,106979.0,18477.0,819.0,7.76837869524752
63110.771766878854,106965.0,18476.0,800.0,7.778376608628605
63110.78176479223,106982.0,18500.0,841.0,7.788374522002414
63110.79176270561,107003.0,18474.0,827.0,7.798372435383499
63110.80176061899,106978.0,18493.0,822.0,7.8083703487645835
63110.81175853236,106982.0,18496.0,816.0,7.818368262138392
63110.821756445745,106999.0,18499.0,843.0,7.828366175519477
63110.831754359126,106990.0,18509.0,836.0,7.838364088900562
63110.8417522725,106990.0,18488.0,815.0,7.848362002274371
63110.85175018588,106967.0,18478.0,826.0,7.8583599156554556
63110.86174809926,106997.0,18487.0,829.0,7.86835782903654
63110.871746012635,106995.0,18469.0,813.0,7.878355742410349
63110.88174392602,106978.0,18502.0,822.0,7.888353655791434
63110.8917418394,106998.0,18493.0,835.0,7.898351569172519
63110.90173975277,107002.0,18510.0,835.0,7.908349482546328
63110.91173766615,106972.0,18466.0,822.0,7.918347395927412
63110.92173557953,106998.0,18478.0,821.0,7.928345309308497
63110.93173349291,106988.0,18492.0,810.0,7.938343222682306
63110.94173140629,106984.0,18490.0,783.0,7.948341136063391
63110.95172931967,107022.0,18509.0,839.0,7.958339049444476
63110.96172723305,107001.0,18487.0,812.0,7.9683369628255605
63110.971725146424,106978.0,18490.0,804.0,7.978334876199369
63110.981723059806,107017.0,18508.0,833.0,7.988332789580454
63110.99172097319,106984.0,18459.0,815.0,7.998330702961539
63111.00171888656,107011.0,18485.0,823.0,8.008328616335348
63111.01171679994,107008.0,18515.0,812.0,8.018326529716433
63111.02171471332,106971.0,18477.0,786.0,8.028324443097517
63111.0317126267,107017.0,18507.0,835.0,8.038322356471326
63111.04171054008,107001.0,18501.0,809.0,8.048320269852411
63111.05170845346,107013.0,18476.0,819.0,8.058318183233496
63111.06170636683,107030.0,18500.0,851.0,8.068316096607305
63111.07170428021,106984.0,18455.0,831.0,8.07831400998839
63111.081702193595,107009.0,18478.0,819.0,8.088311923369474
63111.09170010697,106970.0,18490.0,830.0,8.098309836743283
63111.10169802035,106996.0,18452.0,811.0,8.108307750124368
63111.11169593373,106991.0,18494.0,813.0,8.118305663505453
63111.121693847104,107011.0,18490.0,837.0,8.128303576879262
63111.131691760485,107009.0,18499.0,817.0,8.138301490260346
63111.14168967387,107035.0,18509.0,799.0,8.148299403641431
63111.15168758724,107013.0,18498.0,836.0,8.15829731701524
63111.16168550062,106980.0,18485.0,811.0,8.168295230396325
63111.171683414,107022.0,18492.0,822.0,8.17829314377741
63111.181681327376,107043.0,18506.0,812.0,8.188291057151218
63111.19167924076,107015.0,18500.0,794.0,8.198288970532303
63111.20167715414,107039.0,18481.0,825.0,8.208286883913388
63111.21167506751,107029.0,18511.0,817.0,8.218284797287197
63111.22167298089,107010.0,18474.0,796.0,8.228282710668282
63111.231670894274,107008.0,18458.0,818.0,8.238280624049366
63111.24166880765,107005.0,18494.0,836.0,8.248278537423175
63111.25166672103,107006.0,18478.0,820.0,8.25827645080426
63111.26166463441,106968.0,18493.0,830.0,8.268274364185345
63111.271662547784,107013.0,18524.0,846.0,8.278272277559154
63111.281660461165,106934.0,18453.0,807.0,8.288270190940239
63111.29165837455,106963.0,18485.0,816.0,8.298268104321323
63111.30165628792,106962.0,18508.0,833.0,8.308266017695132
63111.3116542013,106936.0,18453.0,805.0,8.318263931076217
63111.32165211468,106964.0,18510.0,840.0,8.328261844457302
63111.331650028056,106973.0,18482.0,820.0,8.33825975783111
63111.34164794144,106961.0,18473.0,795.0,8.348257671212195
63111.35164585482,106970.0,18497.0,796.0,8.35825558459328
63111.36164376819,106945.0,18471.0,837.0,8.368253497967089
63111.37164168157,106967.0,18487.0,822.0,8.378251411348174
63111.381639594954,106952.0,18491.0,816.0,8.388249324729259
63111.39163750833,106972.0,18494.0,834.0,8.398247238103068
63111.40163542171,106953.0,18459.0,792.0,8.408245151484152
63111.41163333509,106984.0,18501.0,830.0,8.418243064865237
63111.421631248464,106924.0,18495.0,815.0,8.428240978239046
63111.431629161845,106967.0,18454.0,798.0,8.43823889162013
63111.441627075226,106978.0,18508.0,842.0,8.448236805001216
63111.4516249886,106955.0,18477.0,810.0,8.458234718375024
63111.46162290198,106938.0,18462.0,820.0,8.46823263175611
63111.47162081536,106967.0,18458.0,832.0,8.478230545137194
63111.481618728736,106941.0,18478.0,815.0,8.488228458511003
63111.49161664212,106955.0,18485.0,826.0,8.498226371892088
63111.5016145555,106942.0,18504.0,827.0,8.508224285273172
63111.51161246887,106952.0,18497.0,804.0,8.518222198646981
63111.52161038225,106932.0,18464.0,832.0,8.528220112028066
63111.531608295634,106964.0,18477.0,811.0,8.53821802540915
63111.54160620901,106941.0,18478.0,833.0,8.54821593878296
63111.55160412239,106949.0,18472.0,806.0,8.558213852164045
63111.56160203577,106981.0,18494.0,838.0,8.56821176554513
63111.57159994915,106965.0,18481.0,815.0,8.578209678926214
63111.581597862525,106968.0,18461.0,801.0,8.588207592300023
63111.591595775906,106977.0,18501.0,796.0,8.598205505681108
63111.60159368929,106949.0,18471.0,799.0,8.608203419062193
63111.61159160266,106960.0,18479.0,814.0,8.618201332436001
63111.62158951604,107010.0,18490.0,848.0,8.628199245817086
63111.63158742942,106949.0,18466.0,816.0,8.638197159198171
63111.6415853428,106984.0,18457.0,807.0,8.64819507257198
63111.65158325618,106971.0,18491.0,826.0,8.658192985953065
63111.66158116956,106972.0,18530.0,833.0,8.66819089933415
63111.67157908293,106980.0,18519.0,817.0,8.678188812707958
63111.681576996314,106985.0,18495.0,843.0,8.688186726089043
63111.691574909695,106968.0,18484.0,820.0,8.698184639470128
63111.70157282307,106958.0,18481.0,811.0,8.708182552843937
63111.71157073645,106996.0,18484.0,846.0,8.718180466225022
63111.72156864983,106977.0,18494.0,829.0,8.728178379606106
63111.731566563205,106987.0,18474.0,819.0,8.738176292979915
63111.741564476586,106976.0,18517.0,822.0,8.748174206361
63111.75156238997,106968.0,18476.0,806.0,8.758172119742085
63111.76156030334,106987.0,18485.0,788.0,8.768170033115894
63111.77155821672,106974.0,18484.0,807.0,8.778167946496978
63111.7815561301,106983.0,18465.0,838.0,8.788165859878063
63111.79155404348,106972.0,18498.0,822.0,8.798163773251872
63111.80155195686,106991.0,18482.0,822.0,8.808161686632957
63111.81154987024,106952.0,18477.0,783.0,8.818159600014042
63111.82154778361,106975.0,18457.0,824.0,8.82815751338785
63111.831545696994,106976.0,18469.0,816.0,8.838155426768935
63111.841543610375,106987.0,18474.0,798.0,8.84815334015002
63111.85154152375,107006.0,18481.0,857.0,8.858151253523829
63111.86153943713,106999.0,18492.0,821.0,8.868149166904914
63111.87153735051,106982.0,18489.0,783.0,8.878147080285999
63111.881535263885,107024.0,18506.0,808.0,8.888144993659807
63111.891533177266,106982.0,18464.0,807.0,8.898142907040892
63111.90153109065,107002.0,18482.0,816.0,8.908140820421977
63111.91152900402,106983.0,18519.0,812.0,8.918138733795786
63111.9215269174,106989.0,18468.0,797.0,8.92813664717687
63111.93152483078,106999.0,18490.0,791.0,8.938134560557955
63111.94152274416,107039.0,18489.0,840.0,8.948132473931764
63111.95152065754,106987.0,18496.0,839.0,8.958130387312849
63111.96151857092,107005.0,18463.0,815.0,8.968128300693934
63111.97151648429,107037.0,18517.0,850.0,8.978126214067743
63111.981514397674,107011.0,18486.0,823.0,8.988124127448827
63111.991512311055,107002.0,18484.0,788.0,8.998122040829912
63112.00151022443,107045.0,18513.0,824.0,9.008119954203721
63112.01150813781,106978.0,18485.0,797.0,9.018117867584806
63112.02150605119,107008.0,18484.0,805.0,9.02811578096589
63112.031503964565,107041.0,18484.0,849.0,9.0381136943397
63112.041501877946,107008.0,18468.0,831.0,9.048111607720784
63112.05149979133,107029.0,18482.0,824.0,9.05810952110187
63112.0614977047,107012.0,18476.0,819.0,9.068107434475678
63112.07149561808,106973.0,18478.0,794.0,9.078105347856763
63112.08149353146,106980.0,18503.0,819.0,9.088103261237848
63112.09149144484,107034.0,18480.0,831.0,9.098101174611656
63112.10148935822,107016.0,18486.0,816.0,9.108099087992741
63112.1114872716,107023.0,18489.0,779.0,9.118097001373826
63112.12148518497,106989.0,18480.0,798.0,9.128094914747635
63112.131483098354,107018.0,18478.0,807.0,9.13809282812872
63112.141481011735,107022.0,18482.0,812.0,9.148090741509805
63112.151478925116,107017.0,18491.0,826.0,9.15808865489089
63112.16147683849,106993.0,18460.0,789.0,9.168086568264698
63112.17147475187,107022.0,18509.0,805.0,9.178084481645783
63112.18147266525,106997.0,18487.0,825.0,9.188082395026868
63112.191470578626,106962.0,18480.0,819.0,9.198080308400677
63112.20146849201,106965.0,18485.0,822.0,9.208078221781761
63112.21146640539,106944.0,18452.0,816.0,9.218076135162846
63112.22146431876,106948.0,18489.0,819.0,9.228074048536655
63112.23146223214,106955.0,18470.0,839.0,9.23807196191774
63112.241460145524,106971.0,18503.0,833.0,9.248069875298825
63112.2514580589,106910.0,18487.0,795.0,9.258067788672633
63112.26145597228,106951.0,18479.0,814.0,9.268065702053718
63112.27145388566,106936.0,18474.0,812.0,9.278063615434803
63112.281451799034,106930.0,18465.0,818.0,9.288061528808612
63112.291449712415,106969.0,18498.0,842.0,9.298059442189697
63112.301447625796,106944.0,18480.0,810.0,9.308057355570782
63112.31144553917,106939.0,18467.0,817.0,9.31805526894459
63112.32144345255,106931.0,18492.0,832.0,9.328053182325675
63112.33144136593,106914.0,18466.0,805.0,9.33805109570676
63112.341439279306,106932.0,18472.0,795.0,9.348049009080569
63112.35143719269,106928.0,18473.0,777.0,9.358046922461654
63112.36143510607,106939.0,18487.0,828.0,9.368044835842738
63112.37143301944,106941.0,18482.0,816.0,9.378042749216547
63112.38143093282,106941.0,18474.0,813.0,9.388040662597632
63112.391428846204,106960.0,18480.0,799.0,9.398038575978717
63112.40142675958,106923.0,18459.0,800.0,9.408036489352526
63112.41142467296,106915.0,18458.0,827.0,9.41803440273361
63112.42142258634,106951.0,18481.0,813.0,9.428032316114695
63112.43142049971,106926.0,18500.0,812.0,9.438030229488504
63112.441418413095,106975.0,18496.0,848.0,9.448028142869589
63112.451416326476,106939.0,18455.0,828.0,9.458026056250674
63112.46141423985,106954.0,18482.0,829.0,9.468023969624483
63112.47141215323,106931.0,18500.0,797.0,9.478021883005567
63112.48141006661,106920.0,18473.0,815.0,9.488019796386652
63112.491407979986,106898.0,18492.0,811.0,9.498017709760461
63112.50140589337,106932.0,18464.0,809.0,9.508015623141546
63112.51140380675,106979.0,18476.0,832.0,9.51801353652263
63112.52140172012,106972.0,18489.0,807.0,9.52801144989644
63112.5313996335,106928.0,18473.0,809.0,9.538009363277524
63112.541397546884,106953.0,18490.0,815.0,9.548007276658609
63112.55139546026,106956.0,18482.0,824.0,9.558005190032418
63112.56139337364,106981.0,18516.0,834.0,9.568003103413503
63112.57139128702,106940.0,18475.0,803.0,9.578001016794587
63112.58138920039,106986.0,18493.0,820.0,9.587998930168396
63112.591387113775,106970.0,18487.0,811.0,9.597996843549481
63112.601385027156,106951.0,18464.0,833.0,9.607994756930566
63112.61138294053,106975.0,18493.0,816.0,9.617992670304375
63112.62138085391,106959.0,18470.0,815.0,9.62799058368546
63112.63137876729,106971.0,18475.0,821.0,9.637988497066544
63112.641376680665,106980.0,18490.0,823.0,9.647986410440353
63112.65137459405,106967.0,18479.0,829.0,9.657984323821438
63112.66137250743,106936.0,18478.0,812.0,9.667982237202523
63112.6713704208,106981.0,18485.0,817.0,9.677980150576332
63112.68136833418,107023.0,18488.0,811.0,9.687978063957416
63112.69136624756,106984.0,18489.0,794.0,9.697975977338501
63112.70136416094,107003.0,18508.0,824.0,9.70797389071231
63112.71136207432,106983.0,18490.0,820.0,9.717971804093395
63112.7213599877,106969.0,18491.0,816.0,9.72796971747448
63112.73135790108,106992.0,18450.0,825.0,9.737967630855564
63112.741355814454,106933.0,18457.0,799.0,9.747965544229373
63112.751353727836,106984.0,18486.0,820.0,9.757963457610458
63112.76135164122,107000.0,18495.0,804.0,9.767961370991543
63112.77134955459,106978.0,18478.0,820.0,9.777959284365352
63112.78134746797,106998.0,18512.0,817.0,9.787957197746437
63112.79134538135,106994.0,18486.0,817.0,9.797955111127521
63112.80134329473,106960.0,18460.0,846.0,9.80795302450133
63112.81134120811,107013.0,18502.0,847.0,9.817950937882415
63112.82133912149,106988.0,18468.0,833.0,9.8279488512635
63112.83133703486,106993.0,18487.0,816.0,9.837946764637309
63112.84133494824,106969.0,18504.0,813.0,9.847944678018393
63112.851332861625,106997.0,18500.0,800.0,9.857942591399478
63112.861330775,106984.0,18479.0,803.0,9.867940504773287
63112.87132868838,107007.0,18481.0,838.0,9.877938418154372
63112.88132660176,106980.0,18493.0,852.0,9.887936331535457
63112.891324515134,106970.0,18460.0,816.0,9.897934244909266
63112.901322428515,107002.0,18510.0,845.0,9.90793215829035
63112.9113203419,107000.0,18500.0,818.0,9.917930071671435
63112.92131825527,106990.0,18471.0,800.0,9.927927985045244
63112.93131616865,106995.0,18477.0,837.0,9.937925898426329
63112.94131408203,106992.0,18475.0,799.0,9.947923811807414
63112.951311995406,107006.0,18492.0,821.0,9.957921725181222
63112.96130990879,107017.0,18488.0,812.0,9.967919638562307
63112.97130782217,107028.0,18473.0,834.0,9.977917551943392
63112.98130573554,107000.0,18458.0,803.0,9.9879154653172
63112.99130364892,107008.0,18488.0,825.0,9.997913378698286
63113.001301562304,106980.0,18492.0,784.0,10.00791129207937
63113.01129947568,106967.0,18486.0,802.0,10.01790920545318
63113.02129738906,107022.0,18485.0,842.0,10.027907118834264
63113.03129530244,107018.0,18480.0,830.0,10.037905032215349
63113.041293215814,107019.0,18485.0,789.0,10.047902945589158
63113.051291129195,107023.0,18473.0,819.0,10.057900858970243
63113.06128904258,107035.0,18509.0,808.0,10.067898772351327
63113.07128695595,107015.0,18490.0,802.0,10.077896685725136
63113.08128486933,107006.0,18475.0,842.0,10.087894599106221
63113.09128278271,107018.0,18500.0,845.0,10.097892512487306
63113.101280696086,106971.0,18471.0,805.0,10.107890425861115
63113.11127860947,106985.0,18497.0,822.0,10.1178883392422
63113.12127652285,106987.0,18476.0,811.0,10.127886252623284
63113.13127443622,106968.0,18483.0,818.0,10.137884165997093
63113.1412723496,106970.0,18479.0,838.0,10.147882079378178
63113.151270262984,106947.0,18483.0,815.0,10.157879992759263
63113.16126817636,106945.0,18462.0,814.0,10.167877906133072
63113.17126608974,106974.0,18507.0,796.0,10.177875819514156
63113.18126400312,106921.0,18482.0,808.0,10.187873732895241
63113.191261916494,106956.0,18492.0,834.0,10.19787164626905
63113.201259829875,106944.0,18507.0,802.0,10.207869559650135
63113.211257743256,106949.0,18470.0,801.0,10.21786747303122
63113.22125565663,106949.0,18468.0,813.0,10.227865386405028
63113.23125357001,106914.0,18484.0,802.0,10.237863299786113
63113.24125148339,106950.0,18494.0,811.0,10.247861213167198
63113.251249396766,106931.0,18482.0,805.0,10.257859126541007
63113.26124731015,106936.0,18494.0,815.0,10.267857039922092
63113.27124522353,106961.0,18499.0,848.0,10.277854953303176
63113.2812431369,106937.0,18474.0,823.0,10.287852866676985
63113.29124105028,106947.0,18507.0,834.0,10.29785078005807
63113.301238963664,106918.0,18461.0,813.0,10.307848693439155
63113.311236877045,106933.0,18469.0,805.0,10.31784660682024
63113.32123479042,106954.0,18487.0,813.0,10.327844520194049
63113.3312327038,106947.0,18491.0,792.0,10.337842433575133
63113.34123061718,106956.0,18504.0,839.0,10.347840346956218
63113.351228530555,106907.0,18480.0,812.0,10.357838260330027
63113.361226443936,106947.0,18480.0,818.0,10.367836173711112
63113.37122435732,106933.0,18483.0,804.0,10.377834087092197
63113.38122227069,106927.0,18469.0,819.0,10.387832000466005
63113.39122018407,106931.0,18479.0,793.0,10.39782991384709
63113.40121809745,106968.0,18506.0,841.0,10.407827827228175
63113.41121601083,106975.0,18508.0,832.0,10.417825740601984
63113.42121392421,106933.0,18489.0,833.0,10.427823653983069
63113.43121183759,106951.0,18517.0,812.0,10.437821567364153
63113.44120975096,106954.0,18485.0,812.0,10.447819480737962
63113.451207664344,106947.0,18460.0,822.0,10.457817394119047
63113.461205577725,106970.0,18499.0,846.0,10.467815307500132
63113.4712034911,106941.0,18465.0,807.0,10.47781322087394
63113.48120140448,106959.0,18493.0,810.0,10.487811134255026
63113.49119931786,106935.0,18498.0,822.0,10.49780904763611
63113.501197231235,106938.0,18471.0,811.0,10.50780696100992
63113.511195144616,106996.0,18491.0,797.0,10.517804874391004
63113.521193058,106963.0,18487.0,810.0,10.527802787772089
63113.53119097137,106931.0,18493.0,818.0,10.537800701145898
63113.54118888475,106951.0,18478.0,805.0,10.547798614526982
63113.55118679813,106951.0,18482.0,826.0,10.557796527908067
63113.56118471151,106972.0,18489.0,826.0,10.567794441281876
63113.57118262489,106971.0,18468.0,808.0,10.57779235466296
63113.58118053827,106960.0,18483.0,817.0,10.587790268044046
63113.59117845164,107003.0,18493.0,826.0,10.597788181417855
63113.601176365024,106963.0,18497.0,825.0,10.60778609479894
63113.611174278405,106957.0,18501.0,802.0,10.617784008180024
63113.62117219178,106993.0,18501.0,835.0,10.627781921553833
63113.63117010516,106955.0,18466.0,800.0,10.637779834934918
63113.64116801854,106978.0,18487.0,808.0,10.647777748316003
63113.651165931915,106988.0,18508.0,831.0,10.657775661689811
63113.661163845296,107014.0,18525.0,874.0,10.667773575070896
63113.67116175868,106980.0,18496.0,793.0,10.677771488451981
63113.68115967205,106979.0,18496.0,817.0,10.68776940182579
63113.69115758543,106966.0,18486.0,797.0,10.697767315206875
63113.70115549881,107016.0,18496.0,842.0,10.70776522858796
63113.71115341219,106967.0,18477.0,826.0,10.717763141961768
63113.72115132557,107000.0,18494.0,813.0,10.727761055342853
63113.73114923895,106957.0,18485.0,830.0,10.737758968723938
63113.74114715232,107024.0,18488.0,842.0,10.747756882097747
63113.751145065704,106985.0,18503.0,794.0,10.757754795478832
63113.761142979085,106992.0,18486.0,796.0,10.767752708859916
63113.77114089246,106984.0,18486.0,846.0,10.777750622233725
63113.78113880584,107008.0,18506.0,845.0,10.78774853561481
63113.79113671922,106978.0,18508.0,828.0,10.797746448995895
63113.801134632595,106969.0,18478.0,783.0,10.807744362369704
63113.811132545976,107000.0,18458.0,829.0,10.817742275750788
63113.82113045936,107011.0,18495.0,792.0,10.827740189131873
63113.83112837273,106992.0,18486.0,793.0,10.837738102505682
63113.84112628611,107009.0,18488.0,811.0,10.847736015886767
63113.85112419949,107005.0,18493.0,811.0,10.857733929267852
63113.86112211287,107024.0,18522.0,798.0,10.86773184264166
63113.87112002625,107011.0,18471.0,811.0,10.877729756022745
63113.88111793963,106976.0,18456.0,791.0,10.88772766940383
63113.89111585301,107010.0,18510.0,807.0,10.897725582784915
63113.901113766384,106975.0,18488.0,811.0,10.907723496158724
63113.911111679765,107039.0,18512.0,842.0,10.917721409539809
63113.921109593146,106990.0,18472.0,820.0,10.927719322920893
63113.93110750652,107041.0,18481.0,841.0,10.937717236294702
63113.9411054199,106994.0,18510.0,849.0,10.947715149675787
63113.95110333328,107029.0,18513.0,841.0,10.957713063056872
63113.961101246656,106990.0,18466.0,845.0,10.96771097643068
63113.97109916004,107023.0,18493.0,817.0,10.977708889811765
63113.98109707342,107005.0,18510.0,852.0,10.98770680319285
63113.99109498679,106995.0,18473.0,804.0,10.997704716566659
63114.00109290017,107006.0,18487.0,790.0,11.007702629947744
63114.011090813554,107013.0,18492.0,814.0,11.017700543328829
63114.02108872693,107016.0,18479.0,815.0,11.027698456702637
63114.03108664031,107019.0,18492.0,844.0,11.037696370083722
63114.04108455369,106985.0,18467.0,801.0,11.047694283464807
63114.051082467064,106992.0,18495.0,817.0,11.057692196838616
63114.061080380445,106959.0,18472.0,797.0,11.0676901102197
63114.071078293826,106958.0,18474.0,809.0,11.077688023600786
63114.0810762072,106932.0,18473.0,802.0,11.087685936974594
63114.09107412058,106967.0,18483.0,820.0,11.09768385035568
63114.10107203396,106961.0,18478.0,838.0,11.107681763736764
63114.111069947336,106967.0,18470.0,839.0,11.117679677110573
63114.12106786072,106934.0,18466.0,825.0,11.127677590491658
63114.1310657741,106966.0,18487.0,819.0,11.137675503872742
63114.14106368747,106957.0,18511.0,829.0,11.147673417246551
63114.15106160085,106947.0,18499.0,806.0,11.157671330627636
63114.161059514234,106949.0,18490.0,830.0,11.16766924400872
63114.17105742761,106954.0,18494.0,817.0,11.17766715738253
63114.18105534099,106961.0,18507.0,819.0,11.187665070763614
63114.19105325437,106962.0,18494.0,812.0,11.1976629841447
63114.20105116774,106979.0,18532.0,839.0,11.207660897518508
63114.211049081125,106962.0,18496.0,813.0,11.217658810899593
63114.221046994506,106930.0,18459.0,800.0,11.227656724280678
63114.23104490788,106982.0,18522.0,783.0,11.237654637654487
63114.24104282126,106964.0,18474.0,793.0,11.247652551035571
63114.25104073464,106964.0,18493.0,810.0,11.257650464416656
63114.261038648016,106980.0,18496.0,844.0,11.267648377790465
63114.2710365614,106983.0,18474.0,829.0,11.27764629117155
63114.28103447478,106965.0,18484.0,808.0,11.287644204552635
63114.29103238815,106967.0,18486.0,827.0,11.297642117926443
63114.30103030153,106949.0,18516.0,837.0,11.307640031307528
63114.311028214914,106946.0,18494.0,821.0,11.317637944688613
63114.32102612829,106958.0,18503.0,829.0,11.327635858062422
63114.33102404167,106965.0,18472.0,804.0,11.337633771443507
63114.34102195505,106935.0,18492.0,796.0,11.347631684824592
63114.35101986842,106924.0,18491.0,794.0,11.3576295981984
63114.361017781805,106987.0,18498.0,835.0,11.367627511579485
63114.371015695186,106953.0,18487.0,825.0,11.37762542496057
63114.38101360856,106957.0,18520.0,834.0,11.387623338334379
63114.39101152194,106935.0,18511.0,791.0,11.397621251715464
63114.40100943532,106985.0,18506.0,818.0,11.407619165096548
63114.411007348695,106958.0,18492.0,816.0,11.417617078470357
63114.42100526208,106944.0,18487.0,835.0,11.427614991851442
63114.43100317546,106982.0,18495.0,820.0,11.437612905232527
63114.44100108883,106961.0,18480.0,791.0,11.447610818606336
63114.45099900221,106972.0,18502.0,822.0,11.45760873198742
63114.46099691559,106937.0,18468.0,808.0,11.467606645368505
63114.47099482897,106948.0,18472.0,843.0,11.477604558742314
63114.48099274235,106951.0,18499.0,822.0,11.487602472123399
63114.49099065573,106997.0,18484.0,848.0,11.497600385504484
63114.50098856911,106986.0,18506.0,815.0,11.507598298885569
63114.510986482484,106950.0,18486.0,829.0,11.517596212259377
63114.520984395866,107001.0,18499.0,824.0,11.527594125640462
63114.53098230925,106966.0,18477.0,800.0,11.537592039021547
63114.54098022262,106986.0,18491.0,823.0,11.547589952395356
63114.550978136,106943.0,18483.0,796.0,11.55758786577644
63114.56097604938,106972.0,18459.0,808.0,11.567585779157525
63114.57097396276,106999.0,18501.0,783.0,11.577583692531334
63114.58097187614,106986.0,18489.0,826.0,11.587581605912419
63114.59096978952,106959.0,18497.0,805.0,11.597579519293504
63114.60096770289,106967.0,18506.0,817.0,11.607577432667313
63114.61096561627,106989.0,18461.0,819.0,11.617575346048397
63114.620963529655,106982.0,18485.0,812.0,11.627573259429482
63114.63096144303,106977.0,18474.0,813.0,11.637571172803291
63114.64095935641,107020.0,18515.0,838.0,11.647569086184376
63114.65095726979,106946.0,18490.0,796.0,11.65756699956546
63114.660955183164,106991.0,18489.0,821.0,11.66756491293927
63114.670953096545,106998.0,18491.0,824.0,11.677562826320354
63114.68095100993,107018.0,18508.0,827.0,11.68756073970144
63114.6909489233,107021.0,18520.0,829.0,11.697558653075248
63114.70094683668,106992.0,18494.0,811.0,11.707556566456333
63114.71094475006,106973.0,18506.0,810.0,11.717554479837418
63114.720942663436,106997.0,18519.0,837.0,11.727552393211226
63114.73094057682,106958.0,18469.0,785.0,11.737550306592311
63114.7409384902,106980.0,18490.0,810.0,11.747548219973396
63114.75093640357,107016.0,18504.0,806.0,11.757546133347205
63114.76093431695,106984.0,18481.0,846.0,11.76754404672829
63114.770932230334,106992.0,18520.0,817.0,11.777541960109374
63114.78093014371,106993.0,18492.0,814.0,11.787539873483183
63114.79092805709,107024.0,18484.0,816.0,11.797537786864268
63114.80092597047,106976.0,18450.0,805.0,11.807535700245353
63114.810923883844,107016.0,18506.0,837.0,11.817533613619162
63114.820921797225,106993.0,18489.0,815.0,11.827531527000247
63114.83091971061,106965.0,18495.0,811.0,11.837529440381331
63114.84091762398,106966.0,18480.0,805.0,11.84752735375514
63114.85091553736,106984.0,18487.0,801.0,11.857525267136225
63114.86091345074,106997.0,18491.0,820.0,11.86752318051731
63114.870911364116,106991.0,18499.0,832.0,11.877521093891119
63114.8809092775,106964.0,18470.0,806.0,11.887519007272203
63114.89090719088,106997.0,18506.0,831.0,11.897516920653288
63114.90090510425,107006.0,18491.0,818.0,11.907514834027097
63114.91090301763,107020.0,18519.0,816.0,11.917512747408182
63114.920900931014,107018.0,18480.0,780.0,11.927510660789267
63114.93089884439,106996.0,18482.0,831.0,11.937508574163076
63114.94089675777,106989.0,18489.0,813.0,11.94750648754416
63114.95089467115,106977.0,18499.0,811.0,11.957504400925245
63114.960892584524,106968.0,18471.0,839.0,11.967502314299054
63114.970890497905,106975.0,18477.0,819.0,11.977500227680139
63114.980888411286,106966.0,18484.0,823.0,11.987498141061224
63114.99088632466,106910.0,18490.0,753.0,11.997496054435032
63115.00088423804,106933.0,18476.0,802.0,12.007493967816117
63115.01088215142,106958.0,18502.0,840.0,12.017491881197202
63115.020880064796,106953.0,18483.0,812.0,12.02748979457101
63115.03087797818,106935.0,18479.0,820.0,12.037487707952096
63115.04087589156,106968.0,18495.0,815.0,12.04748562133318
63115.05087380494,106922.0,18457.0,804.0,12.057483534714265
63115.06087171831,106938.0,18485.0,820.0,12.067481448088074
63115.070869631694,106924.0,18516.0,810.0,12.077479361469159
63115.080867545075,106939.0,18503.0,803.0,12.087477274850244
63115.09086545845,106954.0,18511.0,804.0,12.097475188224053
63115.10086337183,106956.0,18482.0,823.0,12.107473101605137
63115.11086128521,106908.0,18481.0,820.0,12.117471014986222
63115.120859198585,106948.0,18505.0,824.0,12.127468928360031
63115.130857111966,106945.0,18474.0,829.0,12.137466841741116
63115.14085502535,106907.0,18487.0,800.0,12.1474647551222
63115.15085293872,106921.0,18450.0,811.0,12.15746266849601
63115.1608508521,106959.0,18519.0,834.0,12.167460581877094
63115.17084876548,106920.0,18495.0,815.0,12.177458495258179
63115.18084667886,106933.0,18480.0,813.0,12.187456408631988
63115.19084459224,106929.0,18492.0,813.0,12.197454322013073
63115.20084250562,106929.0,18464.0,817.0,12.207452235394157
63115.21084041899,106974.0,18489.0,835.0,12.217450148767966
63115.220838332374,106920.0,18461.0,805.0,12.227448062149051
63115.230836245755,106944.0,18481.0,821.0,12.237445975530136
63115.24083415913,106957.0,18511.0,817.0,12.247443888903945
63115.25083207251,106923.0,18482.0,799.0,12.25744180228503
63115.26082998589,106961.0,18502.0,790.0,12.267439715666114
63115.270827899265,106939.0,18479.0,824.0,12.277437629039923
63115.280825812646,106938.0,18454.0,821.0,12.287435542421008
63115.29082372603,106944.0,18461.0,799.0,12.297433455802093
63115.3008216394,106964.0,18512.0,842.0,12.307431369175902
63115.31081955278,106946.0,18482.0,821.0,12.317429282556986
63115.32081746616,106925.0,18448.0,813.0,12.327427195938071
63115.33081537954,106966.0,18525.0,835.0,12.33742510931188
63115.34081329292,106931.0,18490.0,810.0,12.347423022692965
63115.3508112063,106947.0,18494.0,813.0,12.35742093607405
63115.36080911967,106978.0,18487.0,840.0,12.367418849447859
63115.370807033054,106964.0,18480.0,780.0,12.377416762828943
63115.380804946435,106984.0,18486.0,834.0,12.387414676210028
63115.39080285981,106945.0,18471.0,808.0,12.397412589583837
63115.40080077319,106931.0,18479.0,806.0,12.407410502964922
63115.41079868657,106946.0,18499.0,852.0,12.417408416346007
63115.420796599945,106967.0,18493.0,814.0,12.427406329719815
63115.430794513326,106963.0,18491.0,819.0,12.4374042431009
63115.44079242671,106968.0,18489.0,793.0,12.447402156481985
63115.45079034008,106961.0,18482.0,836.0,12.457400069855794
63115.46078825346,106961.0,18490.0,810.0,12.467397983236879
63115.47078616684,106967.0,18488.0,813.0,12.477395896617963
63115.48078408022,106942.0,18474.0,841.0,12.487393809991772
63115.4907819936,106977.0,18476.0,822.0,12.497391723372857
63115.50077990698,106953.0,18483.0,835.0,12.507389636753942
63115.51077782035,106967.0,18490.0,823.0,12.51738755012775
63115.520775733734,106939.0,18476.0,821.0,12.527385463508836
63115.530773647115,106986.0,18489.0,823.0,12.53738337688992
63115.54077156049,106965.0,18479.0,796.0,12.54738129026373
63115.55076947387,106971.0,18486.0,813.0,12.557379203644814
63115.56076738725,106966.0,18507.0,849.0,12.567377117025899
63115.570765300625,106965.0,18485.0,823.0,12.577375030399708
63115.580763214006,106956.0,18506.0,798.0,12.587372943780792
63115.59076112739,106978.0,18483.0,821.0,12.597370857161877
63115.60075904076,106979.0,18474.0,797.0,12.607368770535686
63115.61075695414,107004.0,18484.0,800.0,12.61736668391677
63115.62075486752,106982.0,18502.0,836.0,12.627364597297856
63115.6307527809,106975.0,18485.0,820.0,12.637362510671664
63115.64075069428,106977.0,18477.0,808.0,12.64736042405275
63115.65074860766,106983.0,18479.0,805.0,12.657358337433834
63115.66074652104,106951.0,18456.0,800.0,12.667356250814919
63115.670744434414,106983.0,18485.0,824.0,12.677354164188728
63115.680742347795,106960.0,18503.0,825.0,12.687352077569813
63115.690740261176,106970.0,18515.0,818.0,12.697349990950897
63115.70073817455,107020.0,18517.0,833.0,12.707347904324706
63115.71073608793,106997.0,18497.0,819.0,12.717345817705791
63115.72073400131,106987.0,18467.0,813.0,12.727343731086876
63115.730731914686,107021.0,18495.0,831.0,12.737341644460685
63115.74072982807,106967.0,18469.0,808.0,12.74733955784177
63115.75072774145,106994.0,18498.0,809.0,12.757337471222854
63115.76072565482,107003.0,18525.0,838.0,12.767335384596663
63115.7707235682,107002.0,18493.0,811.0,12.777333297977748
63115.780721481584,107026.0,18517.0,802.0,12.787331211358833
63115.79071939496,107012.0,18494.0,859.0,12.797329124732642
63115.80071730834,106991.0,18478.0,838.0,12.807327038113726
63115.81071522172,106993.0,18485.0,811.0,12.817324951494811
63115.820713135094,107019.0,18494.0,828.0,12.82732286486862
63115.830711048475,107006.0,18492.0,820.0,12.837320778249705
63115.840708961856,107012.0,18452.0,810.0,12.84731869163079
63115.85070687523,107027.0,18508.0,828.0,12.857316605004598
63115.86070478861,106943.0,18485.0,808.0,12.867314518385683
63115.87070270199,106989.0,18478.0,840.0,12.877312431766768
63115.880700615366,106983.0,18492.0,819.0,12.887310345140577
63115.89069852875,106960.0,18472.0,814.0,12.897308258521662
63115.90069644213,106971.0,18480.0,838.0,12.907306171902746
63115.9106943555,106943.0,18475.0,816.0,12.917304085276555
63115.92069226888,106936.0,18486.0,805.0,12.92730199865764
63115.930690182264,106934.0,18509.0,821.0,12.937299912038725
63115.94068809564,106922.0,18497.0,807.0,12.947297825412534
63115.95068600902,106960.0,18493.0,793.0,12.957295738793619
63115.9606839224,106940.0,18491.0,810.0,12.967293652174703
63115.97068183577,106931.0,18484.0,850.0,12.977291565548512
63115.980679749155,106940.0,18493.0,813.0,12.987289478929597
63115.990677662536,106912.0,18475.0,842.0,12.997287392310682
63116.00067557591,106933.0,18486.0,823.0,13.00728530568449
63116.01067348929,106950.0,18492.0,827.0,13.017283219065575
63116.02067140267,106948.0,18496.0,840.0,13.02728113244666
63116.030669316046,106896.0,18482.0,786.0,13.037279045820469
63116.04066722943,106925.0,18487.0,809.0,13.047276959201554
63116.05066514281,106920.0,18457.0,849.0,13.057274872582639
63116.06066305618,106918.0,18475.0,798.0,13.067272785956447
63116.07066096956,106930.0,18493.0,836.0,13.077270699337532
63116.080658882944,106924.0,18485.0,821.0,13.087268612718617
63116.09065679632,106916.0,18470.0,807.0,13.097266526092426
63116.1006547097,106932.0,18479.0,826.0,13.10726443947351
63116.11065262308,106927.0,18492.0,805.0,13.117262352854596
63116.12065053645,106934.0,18479.0,813.0,13.127260266228404
63116.130648449835,106921.0,18490.0,782.0,13.13725817960949
63116.140646363216,106925.0,18472.0,843.0,13.147256092990574
63116.15064427659,106929.0,18496.0,822.0,13.157254006364383
63116.16064218997,106945.0,18481.0,806.0,13.167251919745468
63116.17064010335,106909.0,18463.0,825.0,13.177249833126552
63116.180638016725,106960.0,18488.0,823.0,13.187247746500361
63116.19063593011,106904.0,18476.0,805.0,13.197245659881446
63116.20063384349,106931.0,18486.0,817.0,13.20724357326253
63116.21063175687,106902.0,18463.0,811.0,13.217241486643616
63116.22062967024,106942.0,18510.0,839.0,13.227239400017424
63116.23062758362,106903.0,18466.0,842.0,13.23723731339851
63116.240625497005,106939.0,18487.0,804.0,13.247235226779594
63116.25062341038,106928.0,18471.0,810.0,13.257233140153403
63116.26062132376,106918.0,18460.0,797.0,13.267231053534488
63116.27061923714,106897.0,18509.0,816.0,13.277228966915573
63116.280617150514,106930.0,18487.0,812.0,13.287226880289381
63116.290615063896,106924.0,18474.0,808.0,13.297224793670466
63116.30061297728,106964.0,18512.0,833.0,13.307222707051551
63116.31061089065,106948.0,18495.0,838.0,13.31722062042536
63116.32060880403,106920.0,18469.0,810.0,13.327218533806445
63116.33060671741,106922.0,18485.0,809.0,13.33721644718753
63116.34060463079,106941.0,18500.0,831.0,13.347214360561338
63116.35060254417,106920.0,18470.0,811.0,13.357212273942423
63116.36060045755,106940.0,18484.0,812.0,13.367210187323508
63116.37059837092,106962.0,18512.0,826.0,13.377208100697317
63116.3805962843,106924.0,18506.0,843.0,13.387206014078401
63116.390594197685,106968.0,18512.0,833.0,13.397203927459486
63116.40059211106,106954.0,18481.0,821.0,13.407201840833295
63116.41059002444,106926.0,18473.0,812.0,13.41719975421438
63116.42058793782,106979.0,18495.0,825.0,13.427197667595465
63116.430585851194,106929.0,18475.0,811.0,13.437195580969274
63116.440583764575,106963.0,18491.0,810.0,13.447193494350358
63116.45058167796,106945.0,18535.0,819.0,13.457191407731443
63116.46057959133,106932.0,18463.0,790.0,13.467189321105252
63116.47057750471,106961.0,18490.0,786.0,13.477187234486337
63116.48057541809,106954.0,18486.0,793.0,13.487185147867422
63116.490573331466,106935.0,18480.0,834.0,13.49718306124123
63116.50057124485,106932.0,18508.0,790.0,13.507180974622315
63116.51056915823,106962.0,18473.0,817.0,13.5171788880034
63116.5205670716,106957.0,18482.0,811.0,13.527176801377209
63116.53056498498,106974.0,18459.0,812.0,13.537174714758294
63116.540562898364,106992.0,18502.0,831.0,13.547172628139379
63116.55056081174,106937.0,18493.0,795.0,13.557170541513187
63116.56055872512,106977.0,18481.0,801.0,13.567168454894272
63116.5705566385,106978.0,18490.0,812.0,13.577166368275357
63116.580554551874,106955.0,18478.0,791.0,13.587164281649166
63116.590552465255,106987.0,18499.0,825.0,13.59716219503025
63116.60055037864,106951.0,18460.0,815.0,13.607160108411335
63116.61054829201,106975.0,18495.0,810.0,13.617158021785144
63116.62054620539,106955.0,18507.0,823.0,13.627155935166229
63116.63054411877,107002.0,18509.0,843.0,13.637153848547314
63116.640542032146,106957.0,18482.0,835.0,13.647151761921123
63116.65053994553,106990.0,18486.0,805.0,13.657149675302207
63116.66053785891,106960.0,18474.0,850.0,13.667147588683292
63116.67053577228,106961.0,18465.0,828.0,13.677145502057101
63116.68053368566,106953.0,18475.0,824.0,13.687143415438186
63116.690531599044,106988.0,18494.0,818.0,13.69714132881927
63116.70052951242,106986.0,18498.0,814.0,13.70713924219308
63116.7105274258,107002.0,18501.0,840.0,13.717137155574164
63116.72052533918,106940.0,18472.0,795.0,13.72713506895525
63116.730523252554,106985.0,18492.0,817.0,13.737132982329058
63116.740521165935,106989.0,18497.0,809.0,13.747130895710143
63116.750519079316,106991.0,18490.0,800.0,13.757128809091228
63116.76051699269,107016.0,18449.0,824.0,13.767126722465036
63116.77051490607,106996.0,18486.0,823.0,13.777124635846121
63116.78051281945,106971.0,18483.0,794.0,13.787122549227206
63116.790510732826,107019.0,18524.0,844.0,13.797120462601015
63116.80050864621,107036.0,18487.0,820.0,13.8071183759821
63116.81050655959,106995.0,18492.0,815.0,13.817116289363184
63116.82050447297,106989.0,18483.0,812.0,13.82711420274427
63116.83050238634,107007.0,18482.0,834.0,13.837112116118078
63116.840500299724,106970.0,18475.0,805.0,13.847110029499163
63116.850498213105,107017.0,18506.0,820.0,13.857107942880248
63116.86049612648,106986.0,18513.0,823.0,13.867105856254057
63116.87049403986,106944.0,18489.0,804.0,13.877103769635141
63116.88049195324,106950.0,18466.0,804.0,13.887101683016226
63116.890489866615,106964.0,18484.0,818.0,13.897099596390035
63116.900487779996,106940.0,18488.0,822.0,13.90709750977112
63116.91048569338,106977.0,18510.0,836.0,13.917095423152205
63116.92048360675,106913.0,18464.0,811.0,13.927093336526013
63116.93048152013,106931.0,18491.0,823.0,13.937091249907098
63116.94047943351,106927.0,18467.0,810.0,13.947089163288183
63116.95047734689,106925.0,18472.0,807.0,13.957087076661992
63116.96047526027,106921.0,18496.0,812.0,13.967084990043077
63116.97047317365,106928.0,18487.0,821.0,13.977082903424161
63116.98047108702,106929.0,18469.0,805.0,13.98708081679797
63116.990469000404,106930.0,18511.0,829.0,13.997078730179055
63117.000466913785,106944.0,18493.0,832.0,14.00707664356014
63117.01046482716,106931.0,18487.0,818.0,14.017074556933949
63117.02046274054,106889.0,18496.0,796.0,14.027072470315034
63117.03046065392,106900.0,18504.0,810.0,14.037070383696118
63117.040458567295,106911.0,18489.0,832.0,14.047068297069927
63117.050456480676,106925.0,18482.0,822.0,14.057066210451012
63117.06045439406,106916.0,18483.0,784.0,14.067064123832097
63117.07045230743,106969.0,18492.0,847.0,14.077062037205906
63117.08045022081,106914.0,18492.0,816.0,14.08705995058699
63117.09044813419,106936.0,18487.0,807.0,14.097057863968075
63117.10044604757,106924.0,18492.0,789.0,14.107055777341884
63117.11044396095,106934.0,18477.0,815.0,14.117053690722969
63117.12044187433,106938.0,18485.0,826.0,14.127051604104054
63117.1304397877,106929.0,18481.0,799.0,14.137049517477863
63117.140437701084,106909.0,18467.0,845.0,14.147047430858947
63117.150435614465,106916.0,18454.0,815.0,14.157045344240032
63117.16043352784,106951.0,18522.0,800.0,14.167043257613841
63117.17043144122,106936.0,18488.0,814.0,14.177041170994926
63117.1804293546,106933.0,18508.0,827.0,14.18703908437601
63117.190427267975,106950.0,18515.0,833.0,14.19703699774982
63117.200425181356,106895.0,18504.0,828.0,14.207034911130904
63117.21042309474,106921.0,18484.0,800.0,14.217032824511989
63117.22042100811,106939.0,18463.0,809.0,14.227030737885798
63117.23041892149,106910.0,18486.0,810.0,14.237028651266883
63117.24041683487,106949.0,18494.0,810.0,14.247026564647967
63117.25041474825,106934.0,18475.0,805.0,14.257024478021776
63117.26041266163,106946.0,18489.0,817.0,14.267022391402861
63117.27041057501,106936.0,18466.0,815.0,14.277020304783946
63117.28040848838,106937.0,18464.0,795.0,14.287018218157755
63117.290406401764,106945.0,18475.0,806.0,14.29701613153884
63117.300404315145,106955.0,18496.0,817.0,14.307014044919924
63117.31040222852,106921.0,18473.0,835.0,14.317011958293733
63117.3204001419,106976.0,18522.0,835.0,14.327009871674818
63117.33039805528,106954.0,18461.0,813.0,14.337007785055903
63117.340395968655,106955.0,18480.0,810.0,14.347005698429712
63117.350393882036,106961.0,18450.0,817.0,14.357003611810796
63117.36039179542,106928.0,18471.0,798.0,14.367001525191881
63117.37038970879,106947.0,18521.0,821.0,14.37699943856569
63117.38038762217,106949.0,18482.0,800.0,14.386997351946775
63117.39038553555,106960.0,18472.0,816.0,14.39699526532786
63117.400383448934,106976.0,18505.0,822.0,14.406993178708944
63117.41038136231,106950.0,18519.0,828.0,14.416991092082753
63117.42037927569,106977.0,18493.0,817.0,14.426989005463838
63117.43037718907,106968.0,18491.0,806.0,14.436986918844923
63117.440375102444,106989.0,18509.0,827.0,14.446984832218732
63117.450373015825,106939.0,18467.0,797.0,14.456982745599817
63117.460370929206,106976.0,18488.0,819.0,14.466980658980901
63117.47036884258,107003.0,18519.0,823.0,14.47697857235471
63117.48036675596,106967.0,18478.0,802.0,14.486976485735795
63117.49036466934,106987.0,18462.0,807.0,14.49697439911688
63117.500362582716,106967.0,18489.0,819.0,14.506972312490689
63117.5103604961,107011.0,18489.0,806.0,14.516970225871773
63117.52035840948,106991.0,18499.0,835.0,14.526968139252858
63117.53035632285,106958.0,18482.0,819.0,14.536966052626667
63117.54035423623,106969.0,18502.0,814.0,14.546963966007752
63117.550352149614,106936.0,18499.0,824.0,14.556961879388837
63117.56035006299,106961.0,18511.0,800.0,14.566959792762646
63117.57034797637,106991.0,18497.0,784.0,14.57695770614373
63117.58034588975,106985.0,18480.0,814.0,14.586955619524815
63117.590343803124,106974.0,18500.0,817.0,14.596953532898624
63117.600341716505,107009.0,18515.0,838.0,14.606951446279709
63117.610339629886,107012.0,18518.0,825.0,14.616949359660794
63117.62033754326,107000.0,18492.0,821.0,14.626947273034602
63117.63033545664,107003.0,18476.0,814.0,14.636945186415687
63117.64033337002,106990.0,18529.0,795.0,14.646943099796772
63117.650331283396,106975.0,18457.0,795.0,14.65694101317058
63117.66032919678,106994.0,18491.0,820.0,14.666938926551666
63117.67032711016,106994.0,18493.0,828.0,14.67693683993275
63117.68032502353,106990.0,18471.0,810.0,14.68693475330656
63117.69032293691,106990.0,18479.0,801.0,14.696932666687644
63117.700320850294,107007.0,18499.0,816.0,14.706930580068729
63117.71031876367,106984.0,18495.0,829.0,14.716928493442538
63117.72031667705,106991.0,18500.0,827.0,14.726926406823623
63117.73031459043,106999.0,18494.0,811.0,14.736924320204707
63117.7403125038,107015.0,18493.0,815.0,14.746922233578516
63117.750310417185,107021.0,18526.0,839.0,14.756920146959601
63117.760308330566,107014.0,18494.0,818.0,14.766918060340686
63117.77030624394,107011.0,18512.0,818.0,14.776915973714495
63117.78030415732,106981.0,18525.0,846.0,14.78691388709558
63117.7903020707,107019.0,18460.0,815.0,14.796911800476664
63117.800299984076,107020.0,18456.0,802.0,14.806909713850473
63117.81029789746,107026.0,18513.0,838.0,14.816907627231558
63117.82029581084,107008.0,18493.0,787.0,14.826905540612643
63117.83029372421,107006.0,18473.0,845.0,14.836903453986451
63117.84029163759,107004.0,18510.0,835.0,14.846901367367536
63117.850289550974,106977.0,18487.0,800.0,14.856899280748621
63117.86028746435,106983.0,18502.0,841.0,14.86689719412243
63117.87028537773,106976.0,18477.0,817.0,14.876895107503515
63117.88028329111,106945.0,18468.0,807.0,14.8868930208846
63117.89028120448,106962.0,18504.0,829.0,14.896890934258408
63117.900279117865,106930.0,18490.0,800.0,14.906888847639493
63117.910277031246,106978.0,18518.0,842.0,14.916886761020578
63117.92027494462,106965.0,18511.0,818.0,14.926884674394387
63117.930272858,106947.0,18488.0,837.0,14.936882587775472
63117.94027077138,106947.0,18472.0,799.0,14.946880501156556
63117.950268684755,106960.0,18485.0,814.0,14.956878414530365
63117.96026659814,106967.0,18515.0,825.0,14.96687632791145
63117.97026451152,106949.0,18463.0,813.0,14.976874241292535
63117.9802624249,106937.0,18476.0,823.0,14.98687215467362
63117.99026033827,106957.0,18491.0,816.0,14.996870068047429
63118.00025825165,106926.0,18522.0,818.0,15.006867981428513
63118.010256165035,106934.0,18496.0,803.0,15.016865894809598
63118.02025407841,106963.0,18479.0,821.0,15.026863808183407
63118.03025199179,106949.0,18482.0,823.0,15.036861721564492
63118.04024990517,106927.0,18473.0,798.0,15.046859634945577
63118.050247818544,106932.0,18470.0,798.0,15.056857548319385
63118.060245731926,106913.0,18504.0,813.0,15.06685546170047
63118.07024364531,106959.0,18495.0,813.0,15.076853375081555
63118.08024155868,106995.0,18489.0,815.0,15.086851288455364
63118.09023947206,106961.0,18485.0,792.0,15.096849201836449
63118.10023738544,106971.0,18512.0,797.0,15.106847115217533
63118.11023529882,106957.0,18504.0,811.0,15.116845028591342
63118.1202332122,106979.0,18507.0,817.0,15.126842941972427
63118.13023112558,106981.0,18506.0,834.0,15.136840855353512
63118.14022903895,106946.0,18499.0,798.0,15.14683876872732
63118.15022695233,106959.0,18499.0,813.0,15.156836682108406
63118.160224865715,106988.0,18526.0,816.0,15.16683459548949
63118.17022277909,106957.0,18486.0,816.0,15.1768325088633
63118.18022069247,106931.0,18505.0,806.0,15.186830422244384
63118.19021860585,106960.0,18493.0,806.0,15.196828335625469
63118.200216519224,106950.0,18493.0,817.0,15.206826248999278
63118.210214432605,106966.0,18468.0,810.0,15.216824162380362
63118.22021234599,106942.0,18469.0,799.0,15.226822075761447
63118.23021025936,106984.0,18495.0,815.0,15.236819989135256
63118.24020817274,106929.0,18509.0,815.0,15.24681790251634
63118.25020608612,106962.0,18496.0,801.0,15.256815815897426
63118.260203999496,106994.0,18506.0,792.0,15.266813729271234
63118.27020191288,106973.0,18502.0,815.0,15.27681164265232
63118.28019982626,106965.0,18494.0,830.0,15.286809556033404
63118.29019773963,106964.0,18481.0,801.0,15.296807469407213
63118.30019565301,107005.0,18511.0,846.0,15.306805382788298
63118.310193566394,107001.0,18474.0,838.0,15.316803296169383
63118.32019147977,106959.0,18474.0,806.0,15.326801209543191
63118.33018939315,107005.0,18520.0,826.0,15.336799122924276
63118.34018730653,106991.0,18469.0,801.0,15.346797036305361
63118.350185219904,106981.0,18506.0,822.0,15.35679494967917
63118.360183133285,107004.0,18476.0,840.0,15.366792863060255
63118.37018104667,106969.0,18478.0,817.0,15.37679077644134
63118.38017896004,107016.0,18500.0,814.0,15.386788689815148
63118.39017687342,106995.0,18508.0,823.0,15.396786603196233
63118.4001747868,106959.0,18494.0,796.0,15.406784516577318
63118.410172700176,106970.0,18511.0,812.0,15.416782429951127
63118.42017061356,107006.0,18486.0,825.0,15.426780343332211
63118.43016852694,107008.0,18513.0,817.0,15.436778256713296
63118.44016644031,107014.0,18537.0,801.0,15.446776170087105
63118.45016435369,107001.0,18498.0,844.0,15.45677408346819
63118.460162267074,106985.0,18495.0,801.0,15.466771996849275
63118.47016018045,107001.0,18502.0,821.0,15.476769910223084
63118.48015809383,107036.0,18526.0,810.0,15.486767823604168
63118.49015600721,107007.0,18478.0,819.0,15.496765736985253
63118.500153920584,107031.0,18520.0,795.0,15.506763650359062
63118.510151833965,107006.0,18491.0,838.0,15.516761563740147
63118.520149747346,106994.0,18485.0,839.0,15.526759477121232
63118.53014766072,107025.0,18529.0,828.0,15.53675739049504
63118.5401455741,107008.0,18497.0,827.0,15.546755303876125
63118.55014348748,107009.0,18494.0,842.0,15.55675321725721
63118.56014140086,107001.0,18505.0,820.0,15.566751130638295
63118.57013931424,106968.0,18489.0,785.0,15.576749044012104
63118.58013722762,106965.0,18499.0,799.0,15.586746957393188
63118.590135141,106999.0,18497.0,812.0,15.596744870774273
63118.60013305437,107002.0,18485.0,822.0,15.606742784148082
63118.610130967754,106999.0,18483.0,780.0,15.616740697529167
63118.620128881135,107025.0,18512.0,834.0,15.626738610910252
63118.63012679451,107008.0,18495.0,813.0,15.63673652428406
63118.64012470789,107014.0,18502.0,813.0,15.646734437665145
63118.65012262127,107038.0,18484.0,824.0,15.65673235104623
63118.660120534645,107014.0,18492.0,803.0,15.666730264420039
63118.670118448026,107037.0,18523.0,820.0,15.676728177801124
63118.68011636141,107031.0,18499.0,810.0,15.686726091182209
63118.69011427478,107017.0,18469.0,821.0,15.696724004556017
63118.70011218816,107014.0,18488.0,810.0,15.706721917937102
63118.71011010154,107002.0,18497.0,843.0,15.716719831318187
63118.72010801492,107014.0,18504.0,816.0,15.726717744691996
63118.7301059283,107003.0,18480.0,822.0,15.73671565807308
63118.74010384168,107017.0,18488.0,820.0,15.746713571454166
63118.75010175505,106991.0,18500.0,820.0,15.756711484827974
63118.760099668434,107022.0,18504.0,826.0,15.76670939820906
63118.770097581815,107041.0,18506.0,809.0,15.776707311590144
63118.78009549519,106990.0,18479.0,802.0,15.786705224963953
63118.79009340857,107022.0,18512.0,838.0,15.796703138345038
63118.80009132195,106991.0,18502.0,820.0,15.806701051726122
63118.810089235325,106962.0,18491.0,802.0,15.816698965099931
63118.820087148706,107000.0,18498.0,832.0,15.826696878481016
63118.83008506209,106961.0,18481.0,797.0,15.8366947918621
63118.84008297546,106989.0,18510.0,809.0,15.84669270523591
63118.85008088884,106997.0,18539.0,829.0,15.856690618616994
63118.86007880222,106956.0,18482.0,798.0,15.86668853199808
63118.8700767156,106976.0,18510.0,814.0,15.876686445371888
63118.88007462898,106971.0,18492.0,809.0,15.886684358752973
63118.89007254236,106969.0,18469.0,809.0,15.896682272134058
63118.90007045573,106970.0,18449.0,809.0,15.906680185507867
63118.910068369114,106950.0,18530.0,826.0,15.916678098888951
63118.920066282495,106986.0,18496.0,809.0,15.926676012270036
63118.93006419587,106934.0,18493.0,803.0,15.936673925643845
63118.94006210925,106947.0,18497.0,794.0,15.94667183902493
63118.95006002263,106982.0,18495.0,801.0,15.956669752406015
63118.960057936005,106970.0,18499.0,815.0,15.966667665779823
63118.970055849386,106938.0,18489.0,839.0,15.976665579160908
63118.98005376277,106979.0,18491.0,811.0,15.986663492541993
63118.99005167614,106979.0,18516.0,821.0,15.996661405915802
63119.00004958952,106986.0,18490.0,822.0,16.006659319296887
63119.0100475029,106989.0,18505.0,810.0,16.01665723267797
63119.02004541628,107007.0,18520.0,796.0,16.02665514605178
63119.03004332966,106996.0,18480.0,816.0,16.036653059432865
63119.04004124304,106982.0,18497.0,822.0,16.04665097281395
63119.05003915641,107005.0,18491.0,829.0,16.05664888618776
63119.060037069794,106971.0,18480.0,809.0,16.066646799568844
63119.070034983175,106974.0,18454.0,808.0,16.07664471294993
63119.08003289655,106983.0,18497.0,813.0,16.086642626323737
63119.09003080993,106994.0,18523.0,839.0,16.096640539704822
63119.10002872331,106972.0,18504.0,812.0,16.106638453085907
63119.110026636685,107003.0,18517.0,842.0,16.116636366459716
63119.120024550066,106981.0,18507.0,814.0,16.1266342798408
63119.13002246345,106955.0,18480.0,822.0,16.136632193221885
63119.14002037683,106984.0,18480.0,832.0,16.14663010660297
63119.1500182902,106981.0,18484.0,811.0,16.15662801997678
63119.16001620358,106989.0,18500.0,821.0,16.166625933357864
63119.170014116964,107008.0,18489.0,807.0,16.17662384673895
63119.18001203034,106963.0,18493.0,798.0,16.186621760112757
63119.19000994372,106998.0,18504.0,783.0,16.196619673493842
63119.2000078571,106996.0,18497.0,847.0,16.206617586874927
63119.210005770474,106997.0,18502.0,840.0,16.216615500248736
63119.220003683855,106985.0,18506.0,814.0,16.22661341362982
63119.230001597236,106986.0,18478.0,819.0,16.236611327010905
63119.23999951061,106970.0,18484.0,805.0,16.246609240384714
63119.24999742399,106985.0,18509.0,818.0,16.2566071537658
63119.25999533737,107007.0,18512.0,829.0,16.266605067146884
63119.269993250746,106976.0,18489.0,797.0,16.276602980520693
63119.27999116413,107033.0,18503.0,826.0,16.286600893901777
63119.28998907751,107006.0,18537.0,815.0,16.296598807282862
63119.29998699088,106985.0,18470.0,817.0,16.30659672065667
63119.30998490426,107035.0,18506.0,819.0,16.316594634037756
63119.319982817644,106984.0,18489.0,831.0,16.32659254741884
63119.32998073102,107008.0,18498.0,823.0,16.33659046079265
63119.3399786444,106979.0,18516.0,793.0,16.346588374173734
63119.34997655778,106966.0,18466.0,805.0,16.35658628755482
63119.359974471154,107019.0,18523.0,807.0,16.366584200928628
63119.369972384535,107032.0,18486.0,839.0,16.376582114309713
63119.379970297916,107013.0,18480.0,816.0,16.386580027690798
63119.38996821129,107004.0,18487.0,804.0,16.396577941064606
63119.39996612467,107031.0,18506.0,848.0,16.40657585444569
63119.40996403805,107025.0,18496.0,812.0,16.416573767826776
63119.419961951426,107013.0,18480.0,804.0,16.426571681200585
63119.42995986481,107023.0,18526.0,834.0,16.43656959458167
63119.43995777819,106987.0,18518.0,847.0,16.446567507962754
63119.44995569156,107015.0,18502.0,809.0,16.456565421336563
63119.45995360494,107029.0,18491.0,834.0,16.466563334717648
63119.469951518324,107006.0,18480.0,810.0,16.476561248098733
63119.4799494317,107027.0,18510.0,841.0,16.48655916147254
63119.48994734508,107024.0,18490.0,807.0,16.496557074853627
63119.49994525846,106959.0,18494.0,794.0,16.50655498823471
63119.50994317183,106990.0,18508.0,819.0,16.51655290160852
63119.519941085215,107002.0,18467.0,788.0,16.526550814989605
63119.529938998596,107009.0,18492.0,820.0,16.53654872837069
63119.53993691197,107029.0,18492.0,776.0,16.5465466417445
63119.54993482535,107023.0,18478.0,807.0,16.556544555125583
63119.55993273873,107032.0,18525.0,847.0,16.56654246850667
63119.569930652106,107011.0,18505.0,811.0,16.576540381880477
63119.57992856549,107022.0,18491.0,806.0,16.586538295261562
63119.58992647887,107007.0,18486.0,791.0,16.596536208642647
63119.59992439224,107063.0,18521.0,819.0,16.606534122016456
63119.60992230562,107036.0,18491.0,822.0,16.61653203539754
63119.619920219004,107027.0,18490.0,824.0,16.626529948778625
63119.62991813238,107051.0,18502.0,838.0,16.636527862152434
63119.63991604576,107022.0,18483.0,798.0,16.64652577553352
63119.64991395914,107030.0,18493.0,815.0,16.656523688914604
63119.65991187251,107016.0,18489.0,831.0,16.666521602288412
63119.669909785895,107005.0,18482.0,828.0,16.676519515669497
63119.679907699276,106981.0,18510.0,806.0,16.686517429050582
63119.68990561265,106997.0,18489.0,813.0,16.69651534242439
63119.69990352603,107015.0,18484.0,820.0,16.706513255805476
63119.70990143941,106988.0,18502.0,793.0,16.71651116918656
63119.71989935279,107011.0,18515.0,836.0,16.726509082567645
63119.72989726617,106990.0,18496.0,817.0,16.736506995941454
63119.73989517955,106958.0,18477.0,811.0,16.74650490932254
63119.74989309293,106979.0,18475.0,827.0,16.756502822703624
63119.7598910063,107000.0,18501.0,820.0,16.766500736077433
63119.76988891968,106983.0,18501.0,826.0,16.776498649458517
63119.779886833065,106991.0,18531.0,840.0,16.786496562839602
63119.78988474644,106961.0,18463.0,802.0,16.79649447621341
63119.79988265982,106983.0,18490.0,787.0,16.806492389594496
63119.8098805732,106972.0,18489.0,817.0,16.81649030297558
63119.819878486574,106965.0,18480.0,818.0,16.82648821634939
63119.829876399956,106986.0,18509.0,825.0,16.836486129730474
63119.83987431334,106964.0,18499.0,822.0,16.84648404311156
63119.84987222671,106985.0,18497.0,817.0,16.856481956485368
63119.85987014009,106982.0,18506.0,814.0,16.866479869866453
63119.86986805347,106968.0,18467.0,787.0,16.876477783247537
63119.87986596685,106988.0,18477.0,826.0,16.886475696621346
63119.88986388023,106987.0,18497.0,839.0,16.89647361000243
63119.89986179361,106953.0,18484.0,800.0,16.906471523383516
63119.90985970698,106977.0,18478.0,807.0,16.916469436757325
63119.91985762036,106952.0,18501.0,825.0,16.92646735013841
63119.929855533745,106953.0,18500.0,810.0,16.936465263519494
63119.93985344712,106987.0,18486.0,825.0,16.946463176893303
63119.9498513605,106992.0,18534.0,827.0,16.956461090274388
63119.95984927388,106984.0,18485.0,817.0,16.966459003655473
63119.969847187254,107005.0,18488.0,810.0,16.97645691702928
63119.979845100635,106973.0,18503.0,812.0,16.986454830410366
63119.98984301402,106964.0,18490.0,808.0,16.99645274379145
63119.99984092739,106962.0,18500.0,818.0,17.00645065716526
63120.00983884077,107021.0,18514.0,799.0,17.016448570546345
63120.01983675415,106984.0,18490.0,818.0,17.02644648392743
63120.029834667526,107013.0,18563.0,830.0,17.03644439730124
63120.03983258091,107008.0,18516.0,841.0,17.046442310682323
63120.04983049429,107008.0,18517.0,797.0,17.056440224063408
63120.05982840766,106979.0,18485.0,816.0,17.066438137437217
63120.06982632104,106977.0,18493.0,853.0,17.0764360508183
63120.079824234424,106965.0,18476.0,827.0,17.086433964199387
63120.0898221478,106963.0,18495.0,798.0,17.096431877573195
63120.09982006118,107016.0,18504.0,813.0,17.10642979095428
63120.10981797456,107018.0,18482.0,838.0,17.116427704335365
63120.119815887934,107006.0,18488.0,776.0,17.126425617709174
63120.129813801315,107013.0,18516.0,832.0,17.13642353109026
63120.1398117147,106989.0,18503.0,817.0,17.146421444471343
63120.14980962807,106996.0,18504.0,834.0,17.156419357845152
63120.15980754145,106990.0,18474.0,814.0,17.166417271226237
63120.16980545483,106974.0,18464.0,824.0,17.176415184607322
63120.179803368206,106988.0,18497.0,812.0,17.18641309798113
63120.18980128159,107013.0,18518.0,780.0,17.196411011362216
63120.19979919497,106997.0,18483.0,784.0,17.2064089247433
63120.20979710834,107015.0,18515.0,810.0,17.21640683811711
63120.21979502172,107013.0,18493.0,818.0,17.226404751498194
63120.229792935104,107033.0,18477.0,810.0,17.23640266487928
63120.23979084848,107039.0,18502.0,811.0,17.246400578253088
63120.24978876186,107023.0,18517.0,816.0,17.256398491634172
63120.25978667524,107017.0,18498.0,816.0,17.266396405015257
63120.269784588614,106991.0,18479.0,850.0,17.276394318389066
63120.279782501995,106994.0,18484.0,785.0,17.28639223177015
63120.289780415376,106992.0,18479.0,805.0,17.296390145151236
63120.29977832876,107035.0,18479.0,841.0,17.30638805853232
63120.30977624213,107006.0,18487.0,813.0,17.31638597190613
63120.31977415551,107005.0,18484.0,803.0,17.326383885287214
63120.32977206889,107007.0,18462.0,823.0,17.3363817986683
63120.33976998227,107025.0,18493.0,811.0,17.346379712042108
63120.34976789565,107012.0,18498.0,807.0,17.356377625423193
63120.35976580903,107001.0,18479.0,830.0,17.366375538804277
63120.3697637224,107042.0,18495.0,837.0,17.376373452178086
63120.379761635784,107035.0,18504.0,812.0,17.38637136555917
63120.389759549165,107024.0,18495.0,805.0,17.396369278940256
63120.39975746254,107051.0,18521.0,842.0,17.406367192314065
63120.40975537592,106999.0,18473.0,795.0,17.41636510569515
63120.4197532893,107026.0,18489.0,814.0,17.426363019076234
63120.429751202675,107050.0,18522.0,792.0,17.436360932450043
63120.439749116056,107013.0,18511.0,827.0,17.446358845831128
63120.44974702944,107002.0,18466.0,808.0,17.456356759212213
63120.45974494281,107035.0,18495.0,814.0,17.46635467258602
63120.46974285619,107047.0,18480.0,808.0,17.476352585967106
63120.47974076957,107026.0,18531.0,827.0,17.48635049934819
63120.48973868295,107016.0,18489.0,810.0,17.496348412722
63120.49973659633,107054.0,18499.0,822.0,17.506346326103085
63120.50973450971,107003.0,18511.0,817.0,17.51634423948417
63120.51973242308,107045.0,18512.0,843.0,17.52634215285798
63120.529730336464,107040.0,18500.0,783.0,17.536340066239063
63120.539728249845,107056.0,18505.0,834.0,17.546337979620148
63120.54972616322,107047.0,18515.0,833.0,17.556335892993957
63120.5597240766,107046.0,18492.0,865.0,17.56633380637504
63120.56972198998,107017.0,18478.0,833.0,17.576331719756126
63120.579719903355,107032.0,18492.0,819.0,17.586329633129935
63120.589717816736,107033.0,18477.0,808.0,17.59632754651102
63120.59971573012,107039.0,18515.0,829.0,17.606325459892105
63120.60971364349,106986.0,18491.0,796.0,17.616323373265914
63120.61971155687,107016.0,18491.0,831.0,17.626321286647
63120.62970947025,106999.0,18513.0,822.0,17.636319200028083
63120.63970738363,106974.0,18496.0,796.0,17.646317113401892
63120.64970529701,106980.0,18481.0,816.0,17.656315026782977
63120.65970321039,106980.0,18493.0,822.0,17.66631294016406
63120.66970112376,106979.0,18522.0,810.0,17.67631085353787
63120.679699037144,106952.0,18479.0,812.0,17.686308766918955
63120.689696950525,106988.0,18491.0,817.0,17.69630668030004
63120.6996948639,106985.0,18498.0,811.0,17.70630459367385
63120.70969277728,106962.0,18496.0,806.0,17.716302507054934
63120.71969069066,106963.0,18503.0,806.0,17.72630042043602
63120.729688604035,106962.0,18484.0,803.0,17.736298333809827
63120.739686517416,106997.0,18521.0,839.0,17.746296247190912
63120.7496844308,106970.0,18493.0,808.0,17.756294160571997
63120.75968234417,106963.0,18513.0,835.0,17.766292073945806
63120.76968025755,106982.0,18529.0,822.0,17.77628998732689
63120.77967817093,106960.0,18471.0,791.0,17.786287900707975
63120.78967608431,106971.0,18499.0,811.0,17.796285814081784
63120.79967399769,106993.0,18495.0,829.0,17.80628372746287
63120.80967191107,106980.0,18497.0,788.0,17.816281640843954
63120.81966982444,106982.0,18488.0,836.0,17.826279554217763
63120.829667737824,106980.0,18482.0,814.0,17.836277467598848
63120.839665651205,107008.0,18507.0,832.0,17.846275380979932
63120.84966356458,106951.0,18514.0,831.0,17.85627329435374
63120.85966147796,106966.0,18507.0,797.0,17.866271207734826
63120.86965939134,106984.0,18487.0,815.0,17.87626912111591
63120.879657304715,106985.0,18489.0,810.0,17.88626703448972
63120.889655218096,106980.0,18500.0,834.0,17.896264947870804
63120.89965313148,106983.0,18494.0,800.0,17.90626286125189
63120.90965104486,106977.0,18488.0,814.0,17.916260774632974
63120.91964895823,107003.0,18510.0,828.0,17.926258688006783
63120.92964687161,106949.0,18462.0,799.0,17.936256601387868
63120.939644784994,106999.0,18513.0,802.0,17.946254514768953
63120.94964269837,106969.0,18489.0,811.0,17.95625242814276
63120.95964061175,107013.0,18538.0,829.0,17.966250341523846
63120.96963852513,106995.0,18514.0,835.0,17.97624825490493
63120.979636438504,106981.0,18492.0,795.0,17.98624616827874
63120.989634351885,106980.0,18489.0,814.0,17.996244081659825
63120.999632265266,106960.0,18499.0,846.0,18.00624199504091
63121.00963017864,106967.0,18476.0,810.0,18.01623990841472
63121.01962809202,106940.0,18512.0,819.0,18.026237821795803
63121.0296260054,107001.0,18490.0,813.0,18.036235735176888
63121.039623918776,106973.0,18489.0,797.0,18.046233648550697
63121.04962183216,107009.0,18514.0,794.0,18.05623156193178
63121.05961974554,106974.0,18487.0,792.0,18.066229475312866
63121.06961765891,107001.0,18494.0,810.0,18.076227388686675
63121.07961557229,107010.0,18476.0,838.0,18.08622530206776
63121.089613485674,106997.0,18459.0,809.0,18.096223215448845
63121.09961139905,106998.0,18467.0,815.0,18.106221128822654
63121.10960931243,106995.0,18499.0,821.0,18.11621904220374
63121.11960722581,107017.0,18519.0,836.0,18.126216955584823
63121.129605139184,106957.0,18500.0,804.0,18.136214868958632
63121.139603052565,107021.0,18506.0,836.0,18.146212782339717
63121.149600965946,107009.0,18497.0,816.0,18.1562106957208
63121.15959887932,106989.0,18475.0,800.0,18.16620860909461
63121.1695967927,107033.0,18510.0,846.0,18.176206522475695
63121.17959470608,106995.0,18475.0,828.0,18.18620443585678
63121.189592619456,107008.0,18490.0,819.0,18.19620234923059
63121.19959053284,106989.0,18511.0,810.0,18.206200262611674
63121.20958844622,106992.0,18493.0,803.0,18.21619817599276
63121.21958635959,107029.0,18506.0,789.0,18.226196089366567
63121.22958427297,107032.0,18505.0,824.0,18.236194002747652
63121.239582186354,106972.0,18490.0,834.0,18.246191916128737
63121.24958009973,107009.0,18496.0,816.0,18.256189829502546
63121.25957801311,107032.0,18469.0,834.0,18.26618774288363
63121.26957592649,107007.0,18493.0,810.0,18.276185656264715
63121.27957383986,107022.0,18460.0,811.0,18.286183569638524
63121.289571753245,107005.0,18494.0,823.0,18.29618148301961
63121.299569666626,107005.0,18500.0,803.0,18.306179396400694
63121.30956758,107057.0,18494.0,833.0,18.316177309774503
63121.31956549338,107022.0,18504.0,820.0,18.326175223155587
63121.32956340676,107003.0,18492.0,805.0,18.336173136536672
63121.339561320136,107049.0,18508.0,839.0,18.34617104991048
63121.34955923352,107013.0,18479.0,794.0,18.356168963291566
63121.3595571469,107017.0,18513.0,836.0,18.36616687667265
63121.36955506027,107052.0,18512.0,827.0,18.37616479004646
63121.37955297365,107045.0,18516.0,826.0,18.386162703427544
63121.389550887034,107064.0,18516.0,798.0,18.39616061680863
63121.39954880041,107049.0,18488.0,822.0,18.406158530182438
63121.40954671379,107029.0,18500.0,856.0,18.416156443563523
63121.41954462717,107038.0,18511.0,814.0,18.426154356944608
63121.42954254054,107064.0,18501.0,845.0,18.436152270318416
63121.439540453925,107032.0,18494.0,825.0,18.4461501836995
63121.449538367306,107000.0,18464.0,814.0,18.456148097080586
63121.45953628069,107028.0,18484.0,818.0,18.46614601046167
63121.46953419406,107016.0,18489.0,815.0,18.47614392383548
63121.47953210744,107053.0,18495.0,820.0,18.486141837216564
63121.48953002082,107052.0,18494.0,824.0,18.49613975059765
63121.4995279342,107035.0,18482.0,795.0,18.506137663971458
63121.50952584758,107073.0,18507.0,835.0,18.516135577352543
63121.51952376096,107053.0,18503.0,816.0,18.526133490733628
63121.52952167433,107026.0,18490.0,794.0,18.536131404107437
63121.53951958771,107042.0,18528.0,849.0,18.54612931748852
63121.549517501095,107001.0,18523.0,808.0,18.556127230869606
63121.55951541447,107020.0,18482.0,812.0,18.566125144243415
63121.56951332785,107035.0,18518.0,820.0,18.5761230576245
63121.57951124123,106976.0,18494.0,787.0,18.586120971005585
63121.589509154604,106997.0,18507.0,807.0,18.596118884379393
63121.599507067986,107001.0,18489.0,811.0,18.606116797760478
63121.60950498137,107003.0,18489.0,817.0,18.616114711141563
63121.61950289474,106990.0,18455.0,810.0,18.626112624515372
63121.62950080812,106970.0,18485.0,809.0,18.636110537896457
63121.6394987215,106985.0,18500.0,816.0,18.64610845127754
63121.64949663488,106942.0,18494.0,804.0,18.65610636465135
63121.65949454826,106990.0,18515.0,833.0,18.666104278032435
63121.66949246164,106965.0,18483.0,812.0,18.67610219141352
63121.67949037501,106974.0,18490.0,813.0,18.68610010478733
63121.68948828839,106956.0,18513.0,837.0,18.696098018168414
63121.699486201775,106947.0,18477.0,788.0,18.7060959315495
63121.70948411515,106947.0,18506.0,827.0,18.716093844923307
63121.71948202853,106979.0,18488.0,813.0,18.726091758304392
63121.72947994191,106972.0,18495.0,793.0,18.736089671685477
63121.739477855284,106987.0,18513.0,793.0,18.746087585059286
63121.749475768665,106973.0,18491.0,846.0,18.75608549844037
63121.75947368205,106946.0,18475.0,807.0,18.766083411821455
63121.76947159542,106991.0,18495.0,833.0,18.776081325195264
63121.7794695088,106970.0,18479.0,820.0,18.78607923857635
63121.78946742218,106981.0,18462.0,817.0,18.796077151957434
63121.799465335556,106988.0,18491.0,820.0,18.806075065331243
63121.80946324894,106957.0,18513.0,799.0,18.816072978712327
63121.81946116232,106952.0,18490.0,793.0,18.826070892093412
63121.82945907569,106954.0,18486.0,828.0,18.83606880546722
63121.83945698907,106987.0,18497.0,822.0,18.846066718848306
63121.849454902454,106964.0,18485.0,802.0,18.85606463222939
63121.85945281583,107008.0,18508.0,821.0,18.8660625456032
63121.86945072921,106970.0,18495.0,813.0,18.876060458984284
63121.87944864259,106984.0,18494.0,806.0,18.88605837236537
63121.889446555964,106979.0,18486.0,840.0,18.896056285739178
63121.899444469345,106959.0,18489.0,791.0,18.906054199120263
63121.90944238273,106978.0,18495.0,776.0,18.916052112501347
63121.9194402961,106975.0,18490.0,835.0,18.926050025875156
63121.92943820948,106963.0,18510.0,831.0,18.93604793925624
63121.93943612286,106988.0,18519.0,813.0,18.946045852637326
63121.949434036236,106991.0,18489.0,824.0,18.956043766011135
63121.95943194962,107009.0,18495.0,817.0,18.96604167939222
63121.969429863,106985.0,18501.0,821.0,18.976039592773304
63121.97942777637,107017.0,18518.0,830.0,18.986037506147113
63121.98942568975,106972.0,18475.0,808.0,18.996035419528198
63121.999423603134,107010.0,18499.0,836.0,19.006033332909283
63122.00942151651,106997.0,18510.0,810.0,19.01603124628309
63122.01941942989,106981.0,18470.0,798.0,19.026029159664176
63122.02941734327,107015.0,18505.0,832.0,19.03602707304526
63122.039415256644,106975.0,18480.0,821.0,19.04602498641907
63122.049413170025,107007.0,18497.0,811.0,19.056022899800155
63122.059411083406,106965.0,18488.0,810.0,19.06602081318124
63122.06940899679,106990.0,18514.0,806.0,19.076018726562324
63122.07940691016,107014.0,18494.0,796.0,19.086016639936133
63122.08940482354,106998.0,18500.0,822.0,19.096014553317218
63122.09940273692,107007.0,18513.0,843.0,19.106012466698303
63122.1094006503,107002.0,18474.0,802.0,19.11601038007211
63122.11939856368,107042.0,18513.0,846.0,19.126008293453197
63122.12939647706,107008.0,18491.0,814.0,19.13600620683428
63122.13939439043,107003.0,18462.0,805.0,19.14600412020809
63122.149392303814,107025.0,18498.0,781.0,19.156002033589175
63122.159390217195,107015.0,18461.0,822.0,19.16599994697026
63122.16938813057,107023.0,18500.0,813.0,19.17599786034407
63122.17938604395,107049.0,18505.0,835.0,19.185995773725153
63122.18938395733,107009.0,18474.0,802.0,19.195993687106238
63122.199381870705,107057.0,18484.0,810.0,19.205991600480047
63122.209379784086,107035.0,18499.0,813.0,19.215989513861132
63122.21937769747,107003.0,18494.0,823.0,19.225987427242217
63122.22937561084,106990.0,18502.0,797.0,19.235985340616025
63122.23937352422,107045.0,18497.0,812.0,19.24598325399711
63122.2493714376,107041.0,18505.0,809.0,19.255981167378195
63122.25936935098,107024.0,18477.0,807.0,19.265979080752004
63122.26936726436,107019.0,18481.0,827.0,19.27597699413309
63122.27936517774,107022.0,18488.0,805.0,19.285974907514174
63122.28936309111,107053.0,18521.0,812.0,19.295972820887982
63122.299361004494,107045.0,18492.0,812.0,19.305970734269067
63122.309358917875,107020.0,18495.0,810.0,19.315968647650152
63122.31935683125,107054.0,18501.0,778.0,19.32596656102396
63122.32935474463,107049.0,18491.0,814.0,19.335964474405046
63122.33935265801,107052.0,18477.0,816.0,19.34596238778613
63122.349350571385,107053.0,18509.0,816.0,19.35596030115994
63122.359348484766,107066.0,18479.0,831.0,19.365958214541024
63122.36934639815,107047.0,18501.0,816.0,19.37595612792211
63122.37934431152,107038.0,18506.0,846.0,19.385954041295918
63122.3893422249,107024.0,18475.0,792.0,19.395951954677003
63122.39934013828,107029.0,18495.0,796.0,19.405949868058087
63122.40933805166,107061.0,18505.0,820.0,19.415947781431896
63122.41933596504,107057.0,18458.0,867.0,19.42594569481298
63122.42933387842,107046.0,18476.0,806.0,19.435943608194066
63122.43933179179,107054.0,18509.0,828.0,19.445941521567875
63122.449329705174,107069.0,18500.0,818.0,19.45593943494896
63122.459327618555,107031.0,18503.0,800.0,19.465937348330044
63122.46932553193,107084.0,18512.0,840.0,19.475935261703853
63122.47932344531,107033.0,18476.0,797.0,19.485933175084938
63122.48932135869,107055.0,18506.0,816.0,19.495931088466023
63122.499319272065,107053.0,18503.0,815.0,19.50592900183983
63122.509317185446,107061.0,18499.0,824.0,19.515926915220916
63122.51931509883,107030.0,18488.0,798.0,19.525924828602
63122.5293130122,107027.0,18497.0,810.0,19.53592274197581
63122.53931092558,107044.0,18514.0,811.0,19.545920655356895
63122.54930883896,107004.0,18493.0,803.0,19.55591856873798
63122.55930675234,107032.0,18515.0,819.0,19.56591648211179
63122.56930466572,107001.0,18494.0,816.0,19.575914395492873
63122.5793025791,106974.0,18522.0,815.0,19.585912308873958
63122.58930049247,107027.0,18515.0,848.0,19.595910222247767
63122.599298405854,106963.0,18474.0,818.0,19.60590813562885
63122.609296319235,106994.0,18498.0,825.0,19.615906049009936
63122.61929423261,106999.0,18487.0,830.0,19.625903962383745
63122.62929214599,106977.0,18488.0,820.0,19.63590187576483
63122.63929005937,106960.0,18520.0,814.0,19.645899789145915
63122.64928797275,107008.0,18501.0,845.0,19.655897702527
63122.659285886126,106988.0,18498.0,816.0,19.66589561590081
63122.66928379951,106984.0,18483.0,789.0,19.675893529281893
63122.67928171289,106985.0,18502.0,839.0,19.685891442662978
63122.68927962626,106982.0,18477.0,814.0,19.695889356036787
63122.69927753964,106983.0,18519.0,815.0,19.70588726941787
63122.709275453024,107011.0,18506.0,822.0,19.715885182798957
63122.7192733664,106974.0,18487.0,797.0,19.725883096172765
63122.72927127978,107013.0,18514.0,801.0,19.73588100955385
63122.73926919316,107012.0,18503.0,823.0,19.745878922934935
63122.749267106534,106985.0,18489.0,851.0,19.755876836308744
63122.759265019915,107017.0,18530.0,840.0,19.76587474968983
63122.769262933296,106996.0,18489.0,797.0,19.775872663070913
63122.77926084667,107006.0,18496.0,817.0,19.785870576444722
63122.78925876005,106989.0,18478.0,811.0,19.795868489825807
63122.79925667343,106978.0,18481.0,791.0,19.805866403206892
63122.809254586806,106964.0,18508.0,805.0,19.8158643165807
63122.81925250019,107013.0,18510.0,844.0,19.825862229961785
63122.82925041357,107001.0,18501.0,833.0,19.83586014334287
63122.83924832694,106991.0,18492.0,779.0,19.84585805671668
63122.84924624032,107018.0,18508.0,830.0,19.855855970097764
63122.859244153704,107010.0,18491.0,815.0,19.86585388347885
63122.86924206708,106978.0,18507.0,809.0,19.875851796852658
63122.87923998046,107009.0,18475.0,810.0,19.885849710233742
63122.88923789384,107006.0,18474.0,815.0,19.895847623614827
63122.899235807214,107004.0,18504.0,812.0,19.905845536988636
63122.909233720595,107020.0,18519.0,811.0,19.91584345036972
63122.919231633976,107026.0,18512.0,839.0,19.925841363750806
63122.92922954735,107001.0,18508.0,812.0,19.935839277124614
63122.93922746073,107016.0,18503.0,814.0,19.9458371905057
63122.94922537411,107016.0,18499.0,778.0,19.955835103886784
63122.959223287486,107008.0,18463.0,815.0,19.965833017260593
63122.96922120087,107029.0,18510.0,841.0,19.975830930641678
63122.97921911425,107012.0,18504.0,810.0,19.985828844022762
63122.98921702762,106984.0,18505.0,799.0,19.99582675739657
63122.999214941,107015.0,18500.0,808.0,20.005824670777656
63123.009212854384,107022.0,18494.0,796.0,20.01582258415874
63123.01921076776,107026.0,18509.0,808.0,20.02582049753255
63123.02920868114,107030.0,18506.0,809.0,20.035818410913635
63123.03920659452,107001.0,18482.0,823.0,20.04581632429472
63123.04920450789,107018.0,18522.0,809.0,20.055814237668528
63123.059202421275,107029.0,18501.0,812.0,20.065812151049613
63123.069200334656,107079.0,18501.0,821.0,20.075810064430698
