timestamp,time_from_segment_start_sec,selected_channel_name,backup_channel_name,selected_channel_raw,selected_channel_clipped,selected_channel_detrended,selected_channel_filtered,selected_channel_filtered_z
62858.8778719006,0.0,PPG_1,PPG_2,171316.0,171316.0,532.7081452592683,-4.863730143083529,-0.06041741690562981
62858.887971702345,0.0100998017442179,PPG_1,PPG_2,171315.0,171315.0,531.8922358671844,-6.603531565062952,-0.08195122632058621
62858.89807150408,0.02019960348116,PPG_1,PPG_2,171313.0,171313.0,530.0763264750713,-8.103557568836862,-0.10051729580108817
62858.908171305826,0.0302994052253779,PPG_1,PPG_2,171309.0,171309.0,526.2604170829873,-9.172613058980478,-0.11374917208762089
62858.91827110757,0.0403992069695959,PPG_1,PPG_2,171309.0,171309.0,526.4445076908742,-9.652573383256321,-0.11968972025543297
62858.928370909314,0.0504990087138139,PPG_1,PPG_2,171335.0,171335.0,552.6285982987611,-9.429813121047841,-0.1169325797157008
62858.93847071106,0.0605988104580319,PPG_1,PPG_2,171322.0,171322.0,539.8126889066771,-8.443276476477896,-0.10472205280345699
62858.948570512795,0.0706986121949739,PPG_1,PPG_2,171302.0,171302.0,519.996779514564,-6.690247397060018,-0.08302452248869699
62858.95867031454,0.0807984139391919,PPG_1,PPG_2,171336.0,171336.0,554.1808701224509,-4.2305164586620485,-0.052580026599464286
62858.96877011629,0.0908982156834099,PPG_1,PPG_2,171323.0,171323.0,541.3649607303669,-1.1875215436785485,-0.014916376183899113
62858.97886991803,0.1009980174276279,PPG_1,PPG_2,171323.0,171323.0,541.5490513382538,2.255481713333516,0.027698243516330597
62858.988969719765,0.1110978191645699,PPG_1,PPG_2,171332.0,171332.0,550.7331419461698,5.865007878703918,0.07237394474374571
62858.99906952151,0.1211976209087879,PPG_1,PPG_2,171321.0,171321.0,539.9172325540567,9.373356911338865,0.11579735989646718
62859.00916932325,0.1312974226530059,PPG_1,PPG_2,171371.0,171371.0,590.1013231619436,12.50207231822979,0.1545219869915379
62859.019269125,0.1413972243972239,PPG_1,PPG_2,171374.0,171374.0,593.2854137698596,14.992073102360441,0.1853411377585015
62859.02936892674,0.1514970261414419,PPG_1,PPG_2,171376.0,171376.0,595.4695043777465,16.63573138894838,0.20568496771492806
62859.03946872848,0.1615968278783839,PPG_1,PPG_2,171363.0,171363.0,582.6535949856334,17.303518921470722,0.21395028424666165
62859.04956853022,0.1716966296226019,PPG_1,PPG_2,171378.0,171378.0,597.8376855935494,16.959651208098016,0.20969417679084634
62859.05966833197,0.1817964313668199,PPG_1,PPG_2,171384.0,171384.0,604.0217762014363,15.66520627735996,0.1936726181896605
62859.06976813371,0.1918962331110378,PPG_1,PPG_2,171352.0,171352.0,572.2058668093523,13.569154887615793,0.16772944411215404
62859.079867935456,0.2019960348552558,PPG_1,PPG_2,171370.0,171370.0,590.3899574172392,10.888086515482696,0.1345454182660915
62859.08996773719,0.2120958365921978,PPG_1,PPG_2,171360.0,171360.0,580.5740480251261,7.876799950467122,0.0972742273326523
62859.10006753894,0.2221956383364158,PPG_1,PPG_2,171341.0,171341.0,561.7581386330421,4.793460311901739,0.05911122361300548
62859.11016734068,0.2322954400806338,PPG_1,PPG_2,171319.0,171319.0,539.942229240929,1.8636358653178526,0.022848302767569058
62859.120267142425,0.2423952418248518,PPG_1,PPG_2,171318.0,171318.0,539.1263198488159,-0.7510088239134898,-0.009513586189664804
62859.13036694416,0.2524950435617938,PPG_1,PPG_2,171353.0,171353.0,574.3104104567319,-2.971922712596874,-0.03700220402946752
62859.14046674591,0.2625948453060118,PPG_1,PPG_2,171355.0,171355.0,576.4945010646188,-4.8055539447195885,-0.05969736049446163
62859.15056654765,0.2726946470502298,PPG_1,PPG_2,171332.0,171332.0,553.6785916725348,-6.328857225466767,-0.07855153667479098
62859.160666349395,0.2827944487944478,PPG_1,PPG_2,171373.0,171373.0,594.8626822804217,-7.663824097089456,-0.0950746420278705
62859.17076615114,0.2928942505386658,PPG_1,PPG_2,171362.0,171362.0,584.0467728883086,-8.946462205566359,-0.1109500656408008
62859.18086595288,0.3029940522756078,PPG_1,PPG_2,171366.0,171366.0,588.2308634962246,-10.294930286990448,-0.12764027769643946
62859.19096575462,0.3130938540198258,PPG_1,PPG_2,171394.0,171394.0,616.4149541041115,-11.782150260763935,-0.14604784482954272
62859.201065556364,0.3231936557640438,PPG_1,PPG_2,171352.0,171352.0,574.5990447119984,-13.418257502440438,-0.16629821425653618
62859.21116535811,0.3332934575082618,PPG_1,PPG_2,171369.0,171369.0,591.7831353199144,-15.146665134573878,-0.18769100085362506
62859.22126515985,0.3433932592524797,PPG_1,PPG_2,171357.0,171357.0,579.9672259278013,-16.854474516260957,-0.20882883950447714
62859.23136496159,0.3534930609894218,PPG_1,PPG_2,171320.0,171320.0,543.1513165357173,-18.39446241006336,-0.22788952389497033
62859.241464763334,0.3635928627336398,PPG_1,PPG_2,171342.0,171342.0,565.3354071436042,-19.613196766307844,-0.24297400021696908
62859.25156456508,0.3736926644778577,PPG_1,PPG_2,171338.0,171338.0,561.5194977514911,-20.378273157984932,-0.25244347701939224
62859.26166436682,0.3837924662220757,PPG_1,PPG_2,171345.0,171345.0,568.7035883594071,-20.59842168177752,-0.25516829164159205
62859.27176416856,0.3938922679590177,PPG_1,PPG_2,171329.0,171329.0,552.887678967294,-20.23349960919875,-0.2506515909061244
62859.281863970304,0.4039920697032357,PPG_1,PPG_2,171385.0,171385.0,609.071769575181,-19.294225321589202,-0.23902603798828562
62859.29196377205,0.4140918714474537,PPG_1,PPG_2,171359.0,171359.0,583.255860183097,-17.83322937199307,-0.2209430499316185
62859.30206357379,0.4241916731916717,PPG_1,PPG_2,171356.0,171356.0,580.4399507909839,-15.931087536613253,-0.19739992642003834
62859.312163375536,0.4342914749358897,PPG_1,PPG_2,171375.0,171375.0,599.6240413988999,-13.681524170402799,-0.16955670926728408
62859.32226317727,0.4443912766728317,PPG_1,PPG_2,171382.0,171382.0,606.8081320067868,-11.177754706629855,-0.13856714127938538
62859.33236297902,0.4544910784170497,PPG_1,PPG_2,171378.0,171378.0,602.9922226146737,-8.50061152334573,-0.10543169814369636
62859.34246278076,0.4645908801612677,PPG_1,PPG_2,171393.0,171393.0,618.1763132225897,-5.710025126882913,-0.07089214963072187
62859.352562582506,0.4746906819054857,PPG_1,PPG_2,171375.0,171375.0,600.3604038304766,-2.8416586852659225,-0.03538990465855543
62859.36266238425,0.4847904836497037,PPG_1,PPG_2,171397.0,171397.0,622.5444944383635,0.09092386451518998,0.000907153685474518
62859.37276218599,0.4948902853866457,PPG_1,PPG_2,171372.0,171372.0,597.7285850462795,3.089747446666856,0.03802408822255562
62859.38286198773,0.5049900871308637,PPG_1,PPG_2,171397.0,171397.0,622.9126756541664,6.163787053236811,0.07607198391089924
62859.392961789476,0.5150898888750817,PPG_1,PPG_2,171412.0,171412.0,638.0967662620824,9.320613200072335,0.11514454227492578
62859.40306159122,0.5251896906192997,PPG_1,PPG_2,171372.0,171372.0,598.2808568699693,12.559710989203582,0.15523539033746053
62859.41316139296,0.5352894923562417,PPG_1,PPG_2,171429.0,171429.0,655.4649474778562,15.867741531526224,0.1961794304660087
62859.4232611947,0.5453892941004597,PPG_1,PPG_2,171419.0,171419.0,645.6490380857722,19.215956569099024,0.23762084072612547
62859.433360996445,0.5554890958446776,PPG_1,PPG_2,171409.0,171409.0,635.8331286936591,22.559398688509784,0.2790031757902135
62859.44346079819,0.5655888975888956,PPG_1,PPG_2,171434.0,171434.0,661.017219301546,25.836260852765303,0.31956143975799317
62859.45356059993,0.5756886993331136,PPG_1,PPG_2,171429.0,171429.0,656.201309909462,28.96619244074583,0.35830111972718315
62859.46366040167,0.5857885010700556,PPG_1,PPG_2,171433.0,171433.0,660.3854005173489,31.847498883501608,0.39396352522964445
62859.473760203415,0.5958883028142736,PPG_1,PPG_2,171376.0,171376.0,603.5694911252649,34.353765258433015,0.42498399789915403
62859.48386000516,0.6059881045584916,PPG_1,PPG_2,171457.0,171457.0,684.7535817331518,36.33247112055096,0.4494747670092444
62859.4939598069,0.6160879063027096,PPG_1,PPG_2,171445.0,171445.0,672.9376723410387,37.610036837951554,0.46528740880044744
62859.50405960865,0.6261877080469276,PPG_1,PPG_2,171421.0,171421.0,649.1217629489547,38.00477522553969,0.47017315098901236
62859.514159410384,0.6362875097838696,PPG_1,PPG_2,171428.0,171428.0,656.3058535568416,37.34463817701257,0.4620025257606678
62859.52425921213,0.6463873115280876,PPG_1,PPG_2,171445.0,171445.0,673.4899441647285,35.487121903306154,0.43901174019293016
62859.53435901387,0.6564871132723056,PPG_1,PPG_2,171446.0,171446.0,674.6740347726445,32.34122177894214,0.4000744150127559
62859.54445881562,0.6665869150165236,PPG_1,PPG_2,171450.0,171450.0,678.8581253805314,27.889896726617888,0.3449796299931441
62859.554558617354,0.6766867167534656,PPG_1,PPG_2,171452.0,171452.0,681.0422159884474,22.20830646009589,0.2746576493190743
62859.5646584191,0.6867865184976836,PPG_1,PPG_2,171419.0,171419.0,648.2263065963343,15.472519809989434,0.19128770597337008
62859.57475822084,0.6968863202419016,PPG_1,PPG_2,171417.0,171417.0,646.4103972042212,7.955767733099716,0.09825162461469228
62859.58485802259,0.7069861219861195,PPG_1,PPG_2,171411.0,171411.0,640.5944878121372,0.013011332406121233,-5.7182586629759644e-05
62859.59495782433,0.7170859237303375,PPG_1,PPG_2,171420.0,171420.0,649.7785784200241,-7.942996074837221,-0.09852999968356042
62859.60505762607,0.7271857254672796,PPG_1,PPG_2,171391.0,171391.0,620.962669027911,-15.47168104658293,-0.1917137764518128
62859.61515742781,0.7372855272114975,PPG_1,PPG_2,171363.0,171363.0,593.146759635827,-22.13964195573331,-0.27424422940469123
62859.62525722955,0.7473853289557155,PPG_1,PPG_2,171374.0,171374.0,604.3308502437139,-27.55821410980101,-0.34131079148056914
62859.6353570313,0.7574851306999335,PPG_1,PPG_2,171340.0,171340.0,570.51494085163,-31.41792049383384,-0.3890830145753704
62859.645456833045,0.7675849324441515,PPG_1,PPG_2,171393.0,171393.0,623.6990314595168,-33.5132589785137,-0.41501736490920604
62859.65555663478,0.7776847341810935,PPG_1,PPG_2,171364.0,171364.0,594.8831220674037,-33.75417239040587,-0.41799918997938595
62859.665656436526,0.7877845359253115,PPG_1,PPG_2,171380.0,171380.0,611.0672126753198,-32.16491615130247,-0.39832870314563756
62859.67575623827,0.7978843376695295,PPG_1,PPG_2,171379.0,171379.0,610.2513032832067,-28.873578558867386,-0.3575912744136033
62859.685856040014,0.8079841394137475,PPG_1,PPG_2,171421.0,171421.0,652.4353938910936,-24.09539386222018,-0.29845089361658195
62859.69595584175,0.8180839411506895,PPG_1,PPG_2,171382.0,171382.0,613.6194844990096,-18.112875633641043,-0.22440427787743847
62859.706055643495,0.8281837428949075,PPG_1,PPG_2,171390.0,171390.0,621.8035751068965,-11.25618179564666,-0.13953784630728233
62859.71615544524,0.8382835446391255,PPG_1,PPG_2,171412.0,171412.0,643.9876657148125,-3.885126635593853,-0.04830507974067042
62859.726255246984,0.8483833463833435,PPG_1,PPG_2,171413.0,171413.0,645.1717563226994,3.6288684940488523,0.04469687842680049
62859.73635504873,0.8584831481275614,PPG_1,PPG_2,171437.0,171437.0,669.3558469305863,10.922438431265736,0.13497059759872418
62859.746454850465,0.8685829498645035,PPG_1,PPG_2,171422.0,171422.0,654.5399375385023,17.660403752481795,0.2183675067164179
62859.75655465221,0.8786827516087214,PPG_1,PPG_2,171452.0,171452.0,684.7240281463892,23.553943200469295,0.29131281739911674
62859.76665445395,0.8887825533529394,PPG_1,PPG_2,171430.0,171430.0,662.9081187542761,28.375136469832974,0.35098552240072006
62859.7767542557,0.8988823550971574,PPG_1,PPG_2,171460.0,171460.0,693.0922093621921,31.967215315672735,0.3954452752740137
62859.78685405744,0.9089821568413754,PPG_1,PPG_2,171449.0,171449.0,682.276299970079,34.25025164807861,0.4237027928552532
62859.79695385918,0.9190819585783174,PPG_1,PPG_2,171445.0,171445.0,678.460390577995,35.22191130453081,0.43572918482959616
62859.80705366092,0.9291817603225354,PPG_1,PPG_2,171441.0,171441.0,674.6444811858819,34.95314726176737,0.4324026479034011
62859.81715346267,0.9392815620667534,PPG_1,PPG_2,171475.0,171475.0,708.8285717937688,33.57963777011851,0.41540249417944924
62859.82725326441,0.9493813638109714,PPG_1,PPG_2,171447.0,171447.0,681.0126624016848,31.289645758363832,0.38705888500663127
62859.83735306615,0.9594811655479134,PPG_1,PPG_2,171428.0,171428.0,662.1967530095717,28.30737948657588,0.3501468830332854
62859.84745286789,0.9695809672921314,PPG_1,PPG_2,171434.0,171434.0,668.3808436174586,24.87131745032771,0.30761817596834184
62859.85755266964,0.9796807690363494,PPG_1,PPG_2,171397.0,171397.0,631.5649342253746,21.210419334574457,0.2623066356302998
62859.86765247138,0.9897805707805674,PPG_1,PPG_2,171428.0,171428.0,662.7490248332615,17.52383137688965,0.21667712787766333
62859.877752273125,0.9998803725247852,PPG_1,PPG_2,171410.0,171410.0,644.9331154411775,13.969090256430158,0.17267951019529965
62859.88785207486,1.0099801742617274,PPG_1,PPG_2,171439.0,171439.0,674.1172060490644,10.660730236118253,0.1317313920632865
62859.89795187661,1.0200799760059454,PPG_1,PPG_2,171406.0,171406.0,641.3012966569513,7.677408058192681,0.09480632096536108
62859.90805167835,1.0301797777501631,PPG_1,PPG_2,171441.0,171441.0,676.4853872648673,5.07340508969521,0.0625761463424388
62859.918151480095,1.040279579494381,PPG_1,PPG_2,171415.0,171415.0,650.6694778727542,2.890368254653778,0.035556339048495915
62859.92825128184,1.0503793812385993,PPG_1,PPG_2,171407.0,171407.0,642.8535684806411,1.1661057963155252,0.014214857951776074
62859.938351083576,1.0604791829755411,PPG_1,PPG_2,171445.0,171445.0,681.0376590885571,-0.06150204691658297,-0.0009794469835480671
62859.94845088532,1.070578984719759,PPG_1,PPG_2,171387.0,171387.0,623.221749696444,-0.756245388671117,-0.009578400016148247
62859.958550687064,1.0806787864639773,PPG_1,PPG_2,171391.0,171391.0,627.40584030436,-0.8908836014549308,-0.011244839402522818
62859.96865048881,1.0907785882081953,PPG_1,PPG_2,171390.0,171390.0,626.5899309122469,-0.4577163885647167,-0.00588345729917146
62859.978750290546,1.100878389945137,PPG_1,PPG_2,171420.0,171420.0,656.7740215201338,0.5225615985466702,0.006249605176497308
62859.98885009229,1.1109781916893553,PPG_1,PPG_2,171398.0,171398.0,634.9581121280498,1.9975644010585063,0.0245059583640234
62859.998949894034,1.1210779934335733,PPG_1,PPG_2,171406.0,171406.0,643.1422027359367,3.885039625094153,0.047867550805759246
62860.00904969578,1.1311777951777913,PPG_1,PPG_2,171405.0,171405.0,642.3262933438236,6.077509967477865,0.0750041181774081
62860.01914949752,1.1412775969220093,PPG_1,PPG_2,171420.0,171420.0,657.5103839517396,8.448696402735187,0.10435268413389974
62860.02924929926,1.1513773986589513,PPG_1,PPG_2,171377.0,171377.0,614.6944745596265,10.861661416122441,0.1342183504489221
62860.039349101,1.1614772004031693,PPG_1,PPG_2,171427.0,171427.0,664.8785651675425,13.178904052551804,0.1628992451020081
62860.04944890275,1.1715770021473872,PPG_1,PPG_2,171432.0,171432.0,670.0626557754294,15.274998799135423,0.188842955814274
62860.05954870449,1.1816768038916052,PPG_1,PPG_2,171394.0,171394.0,632.2467463833163,17.051002040960952,0.2108248411298431
62860.06964850624,1.1917766056358232,PPG_1,PPG_2,171442.0,171442.0,680.4308369912324,18.44762738210324,0.2281111035390551
62860.07974830797,1.2018764073727652,PPG_1,PPG_2,171427.0,171427.0,665.6149275991193,19.45435247396649,0.24057150619625797
62860.08984810972,1.2119762091169832,PPG_1,PPG_2,171433.0,171433.0,671.7990182070062,20.112529224187742,0.24871786848885497
62860.09994791146,1.2220760108612012,PPG_1,PPG_2,171397.0,171397.0,635.9831088149222,20.510325913436887,0.25364146378195795
62860.110047713206,1.2321758126054192,PPG_1,PPG_2,171418.0,171418.0,657.1671994228091,20.768886186782943,0.2568417069695847
62860.12014751494,1.2422756143423612,PPG_1,PPG_2,171404.0,171404.0,643.3512900307251,21.022671578917457,0.25998285066419496
62860.13024731669,1.2523754160865792,PPG_1,PPG_2,171399.0,171399.0,638.535380638612,21.39854800438701,0.2646351352337912
62860.14034711843,1.2624752178307972,PPG_1,PPG_2,171423.0,171423.0,662.7194712464989,21.996986411547027,0.2720421061924149
62860.150446920175,1.2725750195750152,PPG_1,PPG_2,171396.0,171396.0,635.9035618544149,22.87699956659703,0.2829341742894401
62860.16054672192,1.2826748213192332,PPG_1,PPG_2,171413.0,171413.0,653.0876524623018,24.045157172605172,0.2973926538243009
62860.17064652366,1.2927746230561752,PPG_1,PPG_2,171383.0,171383.0,623.2717430701887,25.44879898376505,0.3147657602412346
62860.1807463254,1.3028744248003932,PPG_1,PPG_2,171427.0,171427.0,667.4558336781047,26.97451018957345,0.33364973970755896
62860.190846127145,1.3129742265446112,PPG_1,PPG_2,171399.0,171399.0,639.6399242859916,28.453117212184804,0.35195070292225944
62860.20094592889,1.3230740282888291,PPG_1,PPG_2,171406.0,171406.0,646.8240148939076,29.67086657024682,0.3670229877591453
62860.21104573063,1.3331738300330471,PPG_1,PPG_2,171406.0,171406.0,647.0081055017945,30.38520436489559,0.37586446456996775
62860.22114553237,1.3432736317699892,PPG_1,PPG_2,171401.0,171401.0,642.1921961096814,30.3440946283374,0.3753556425739861
62860.231245334115,1.3533734335142071,PPG_1,PPG_2,171388.0,171388.0,629.3762867175974,29.308583695112876,0.36253895280614423
62860.24134513586,1.3634732352584251,PPG_1,PPG_2,171421.0,171421.0,662.5603773254843,27.07827997614536,0.3349341154867947
62860.2514449376,1.373573037002643,PPG_1,PPG_2,171407.0,171407.0,648.7444679333712,23.51842637421714,0.2908732197772985
62860.26154473934,1.3836728387395851,PPG_1,PPG_2,171414.0,171414.0,655.9285585412872,18.584892370885804,0.22981005496560752
62860.27164454109,1.3937726404838031,PPG_1,PPG_2,171399.0,171399.0,641.1126491491741,12.341367173612841,0.1525329128866052
62860.28174434283,1.403872442228021,PPG_1,PPG_2,171383.0,171383.0,625.2967397570901,4.963734094102164,0.061218730324947415
62860.29184414457,1.413972243972239,PPG_1,PPG_2,171348.0,171348.0,590.480830364977,-3.2702171298279894,-0.0406942432754708
62860.30194394632,1.424072045716457,PPG_1,PPG_2,171341.0,171341.0,583.6649209728639,-12.003469840605806,-0.1487871538057883
62860.312043748054,1.434171847453399,PPG_1,PPG_2,171355.0,171355.0,597.8490115807799,-20.82933613773977,-0.25802635798354967
62860.3221435498,1.444271649197617,PPG_1,PPG_2,171336.0,171336.0,579.0331021886668,-29.322586082919678,-0.3631487146632054
62860.33224335154,1.454371450941835,PPG_1,PPG_2,171285.0,171285.0,528.2171927965537,-37.07002285573502,-0.4590400185859377
62860.34234315329,1.464471252686053,PPG_1,PPG_2,171329.0,171329.0,572.4012834044697,-43.699666201827156,-0.5410962087351894
62860.35244295503,1.474571054430271,PPG_1,PPG_2,171289.0,171289.0,532.5853740123566,-48.905928907514266,-0.6055349817193555
62860.36254275677,1.484670856167213,PPG_1,PPG_2,171309.0,171309.0,552.7694646202726,-52.46797048550307,-0.6496229583697556
62860.37264255851,1.494770657911431,PPG_1,PPG_2,171302.0,171302.0,545.9535552281595,-54.26094021818185,-0.6718148407435284
62860.382742360256,1.504870459655649,PPG_1,PPG_2,171278.0,171278.0,522.1376458360464,-54.26151708340052,-0.6718219806995717
62860.392842162,1.514970261399867,PPG_1,PPG_2,171285.0,171285.0,529.3217364439624,-52.54852053717446,-0.6506199396568976
62860.40294196374,1.525070063136809,PPG_1,PPG_2,171305.0,171305.0,549.5058270518493,-49.297666164285445,-0.6103835784163573
62860.41304176548,1.535169864881027,PPG_1,PPG_2,171297.0,171297.0,541.6899176597362,-44.769215499476886,-0.5543341969587454
62860.423141567226,1.545269666625245,PPG_1,PPG_2,171287.0,171287.0,531.8740082676522,-39.28920525126211,-0.4865072054491014
62860.43324136897,1.555369468369463,PPG_1,PPG_2,171300.0,171300.0,545.0580988755391,-33.226053277678965,-0.41146257253662155
62860.443341170714,1.565469270113681,PPG_1,PPG_2,171347.0,171347.0,592.2421894834551,-26.963377006663272,-0.33394839445635044
62860.45344097245,1.575569071850623,PPG_1,PPG_2,171310.0,171310.0,555.426280091342,-20.870534554328543,-0.25853627758690956
62860.463540774195,1.585668873594841,PPG_1,PPG_2,171324.0,171324.0,569.610370699229,-15.275137449085083,-0.18928112389918222
62860.47364057594,1.595768675339059,PPG_1,PPG_2,171348.0,171348.0,593.794461307145,-10.441938063973318,-0.12945981722093525
62860.48374037768,1.605868477083277,PPG_1,PPG_2,171313.0,171313.0,558.9785519150319,-6.5598863981036075,-0.08141102288396804
62860.49384017943,1.615968278827495,PPG_1,PPG_2,171332.0,171332.0,578.1626425229188,-3.7375627721683573,-0.04647865744247272
62860.503939981165,1.626068080564437,PPG_1,PPG_2,171301.0,171301.0,547.3467331308348,-2.006166240159564,-0.02504887673820405
62860.51403978291,1.636167882308655,PPG_1,PPG_2,171347.0,171347.0,593.5308237387217,-1.3274428300685497,-0.01664820504445367
62860.52413958465,1.646267684052873,PPG_1,PPG_2,171305.0,171305.0,551.7149143466377,-1.603689621806662,-0.020067357189997796
62860.5342393864,1.656367485797091,PPG_1,PPG_2,171323.0,171323.0,569.8990049545246,-2.6888730118623845,-0.03349885115621701
62860.544339188134,1.666467287534033,PPG_1,PPG_2,171322.0,171322.0,569.0830955624115,-4.401148308628701,-0.05469196517526043
62860.55443898988,1.676567089278251,PPG_1,PPG_2,171300.0,171300.0,547.2671861703275,-6.536803183235317,-0.08112531812285068
62860.56453879162,1.686666891022469,PPG_1,PPG_2,171276.0,171276.0,523.4512767782144,-8.884978629074672,-0.11018907326454698
62860.57463859337,1.696766692766687,PPG_1,PPG_2,171325.0,171325.0,572.6353673861013,-11.241211332169888,-0.13935255440943137
62860.58473839511,1.7068664945109049,PPG_1,PPG_2,171301.0,171301.0,548.8194579940173,-13.41729029826484,-0.1662862430107839
62860.59483819685,1.716966296247847,PPG_1,PPG_2,171273.0,171273.0,521.0035486019042,-15.247410074889773,-0.18893793761139333
62860.60493799859,1.727066097992065,PPG_1,PPG_2,171314.0,171314.0,562.1876392098202,-16.592890961184818,-0.2055911766597787
62860.61503780034,1.7371658997362829,PPG_1,PPG_2,171296.0,171296.0,544.3717298177071,-17.34679307217463,-0.2149223475454293
62860.62513760208,1.7472657014805009,PPG_1,PPG_2,171274.0,171274.0,522.555820425594,-17.43899277182128,-0.21606351844874325
62860.635237403825,1.7573655032247189,PPG_1,PPG_2,171247.0,171247.0,495.73991103351,-16.84232506357379,-0.20867846372287568
62860.64533720556,1.7674653049616609,PPG_1,PPG_2,171295.0,171295.0,543.9240016413969,-15.577698820468981,-0.19302597594114462
62860.655437007306,1.7775651067058789,PPG_1,PPG_2,171275.0,171275.0,524.1080922492838,-13.713555879308336,-0.1699531710163626
62860.66553680905,1.7876649084500968,PPG_1,PPG_2,171293.0,171293.0,542.2921828571998,-11.35769487897893,-0.14079429049797315
62860.675636610795,1.7977647101943148,PPG_1,PPG_2,171278.0,171278.0,527.4762734650867,-8.644089590130656,-0.10720754986237001
62860.68573641253,1.8078645119312569,PPG_1,PPG_2,171278.0,171278.0,527.6603640730027,-5.718304665997662,-0.07099462685317283
62860.69583621427,1.8179643136754748,PPG_1,PPG_2,171289.0,171289.0,538.8444546808896,-2.7230528891611683,-0.033921901140129086
62860.70593601602,1.8280641154196928,PPG_1,PPG_2,171284.0,171284.0,534.0285452887765,0.21608697611487482,0.002456318180296049
62860.71603581776,1.8381639171639108,PPG_1,PPG_2,171311.0,171311.0,561.2126358966925,3.0043143401053887,0.036966668558919974
62860.72613561951,1.8482637189081288,PPG_1,PPG_2,171281.0,171281.0,531.3967265045794,5.588606318061981,0.06895287699792892
62860.736235421246,1.8583635206450708,PPG_1,PPG_2,171291.0,171291.0,541.5808171124663,7.963457700919145,0.0983468046158917
62860.74633522299,1.8684633223892888,PPG_1,PPG_2,171310.0,171310.0,560.7649077203823,10.17004259589738,0.12565807013510386
62860.756435024734,1.8785631241335068,PPG_1,PPG_2,171281.0,171281.0,531.9489983282692,12.288943491599637,0.15188405631996427
62860.76653482648,1.8886629258777248,PPG_1,PPG_2,171273.0,171273.0,524.1330889361852,14.426917231746735,0.17834611024915897
62860.77663462822,1.8987627276219428,PPG_1,PPG_2,171289.0,171289.0,540.3171795440721,16.699278889455467,0.20647150561944339
62860.78673442996,1.9088625293588848,PPG_1,PPG_2,171296.0,171296.0,547.501270151959,19.211370987809815,0.23756408422949826
62860.7968342317,1.9189623311031028,PPG_1,PPG_2,171280.0,171280.0,531.685360759875,22.041964806869686,0.2725988112165818
62860.80693403345,1.9290621328473208,PPG_1,PPG_2,171303.0,171303.0,554.8694513677619,25.228920941891737,0.3120442934184021
62860.81703383519,1.9391619345915387,PPG_1,PPG_2,171282.0,171282.0,534.0535419756488,28.756552900675484,0.35570637653138915
62860.82713363693,1.9492617363284808,PPG_1,PPG_2,171274.0,171274.0,526.2376325835648,32.54510346128207,0.4025978922528846
62860.83723343867,1.9593615380726987,PPG_1,PPG_2,171267.0,171267.0,519.4217231914517,36.444425433887076,0.45086044402738323
62860.84733324042,1.9694613398169167,PPG_1,PPG_2,171309.0,171309.0,561.6058137993678,40.23565780974441,0.49778515301896475
62860.85743304216,1.9795611415611347,PPG_1,PPG_2,171286.0,171286.0,538.7899044072547,43.64394063549155,0.5399700322096062
62860.867532843906,1.9896609433053527,PPG_1,PPG_2,171319.0,171319.0,571.9739950151416,46.361229728103154,0.5736023678925288
62860.87763264564,1.9997607450422947,PPG_1,PPG_2,171306.0,171306.0,559.1580856230576,48.0746283861015,0.5948093859389911
62860.88773244739,2.0098605467865127,PPG_1,PPG_2,171282.0,171282.0,535.3421762309445,48.4950868992053,0.6000134703670703
62860.89783224913,2.0199603485307307,PPG_1,PPG_2,171297.0,171297.0,550.5262668388314,47.383374221485376,0.5862536190278438
62860.907932050875,2.0300601502749487,PPG_1,PPG_2,171276.0,171276.0,529.7103574467474,44.57324491140176,0.5514721846467429
62860.91803185262,2.0401599520191667,PPG_1,PPG_2,171306.0,171306.0,559.8944480546343,39.993069617264844,0.4947825989129735
62860.92813165436,2.0502597537561087,PPG_1,PPG_2,171302.0,171302.0,556.0785386625503,33.685255300584515,0.416709739789897
62860.9382314561,2.0603595555003267,PPG_1,PPG_2,171281.0,171281.0,535.2626292704372,25.819265169275745,0.3193510813777105
62860.948331257845,2.0704593572445447,PPG_1,PPG_2,171277.0,171277.0,531.4467198783241,16.692394575146373,0.2063862973247427
62860.95843105959,2.080559158988762,PPG_1,PPG_2,171250.0,171250.0,504.6308104862401,6.714488455624644,0.08288810608079426
62860.968530861326,2.0906589607257047,PPG_1,PPG_2,171236.0,171236.0,490.814901094127,-3.6232543744149543,-0.04506384353287705
62860.97863066307,2.1007587624699227,PPG_1,PPG_2,171185.0,171185.0,439.9989917020139,-13.791802371593317,-0.17092164076869593
62860.988730464815,2.1108585642141406,PPG_1,PPG_2,171200.0,171200.0,455.1830823099299,-23.273684101013334,-0.2882804562501692
62860.99883026656,2.120958365958358,PPG_1,PPG_2,171177.0,171177.0,432.3671729178168,-31.60993402537865,-0.3914595977538543
62861.0089300683,2.1310581677025766,PPG_1,PPG_2,171200.0,171200.0,455.5512635257328,-38.437560225406656,-0.4759662543702697
62861.01902987004,2.141157969439518,PPG_1,PPG_2,171148.0,171148.0,403.7353541336197,-43.51460954780971,-0.5388057319783378
62861.029129671784,2.1512577711837366,PPG_1,PPG_2,171166.0,171166.0,421.9194447415066,-46.732837311872586,-0.5786382682952732
62861.03922947353,2.1613575729279546,PPG_1,PPG_2,171168.0,171168.0,424.1035353494226,-48.11766526984476,-0.5957785125454177
62861.04932927527,2.1714573746721726,PPG_1,PPG_2,171171.0,171171.0,427.2876259573095,-47.814616310804986,-0.5920276255505451
62861.05942907701,2.1815571764091146,PPG_1,PPG_2,171206.0,171206.0,462.4717165651964,-46.063804286447954,-0.5703575360922758
62861.069528878754,2.1916569781533326,PPG_1,PPG_2,171176.0,171176.0,432.6558071731124,-43.16776589950632,-0.5345127908846031
62861.0796286805,2.2017567798975506,PPG_1,PPG_2,171166.0,171166.0,422.8398977809993,-39.45936000092184,-0.4886132388756367
62861.08972848224,2.211856581641769,PPG_1,PPG_2,171210.0,171210.0,467.0239883889153,-35.27406375788815,-0.43681113634597996
62861.09982828399,2.2219563833859866,PPG_1,PPG_2,171165.0,171165.0,422.2080789968022,-30.92745149519488,-0.3830123988101416
62861.10992808572,2.2320561851229286,PPG_1,PPG_2,171202.0,171202.0,459.3921696046891,-26.697655422958494,-0.3306595145481888
62861.12002788747,2.2421559868671466,PPG_1,PPG_2,171184.0,171184.0,441.5762602126051,-22.81314774554195,-0.2825803217508558
62861.13012768921,2.252255788611365,PPG_1,PPG_2,171182.0,171182.0,439.760350820492,-19.44580939280983,-0.24090221906203968
62861.14022749096,2.2623555903555825,PPG_1,PPG_2,171195.0,171195.0,452.9444414283789,-16.708461414455083,-0.207021611238853
62861.1503272927,2.2724553920998005,PPG_1,PPG_2,171194.0,171194.0,452.1285320362949,-14.655702148429084,-0.18161427092348656
62861.16042709444,2.2825551938367425,PPG_1,PPG_2,171182.0,171182.0,440.31262264418183,-13.287274639164849,-0.16467701773446827
62861.17052689618,2.2926549955809605,PPG_1,PPG_2,171220.0,171220.0,478.49671325209783,-12.554013530871533,-0.1556013239467121
62861.180626697926,2.3027547973251785,PPG_1,PPG_2,171174.0,171174.0,432.68080385998474,-12.36701270253461,-0.15328678382335437
62861.19072649967,2.3128545990693965,PPG_1,PPG_2,171176.0,171176.0,434.86489446787164,-12.610610042142667,-0.15630182830994999
62861.20082630141,2.3229544008063385,PPG_1,PPG_2,171186.0,171186.0,445.04898507578764,-13.158184789912491,-0.16307925135947413
62861.21092610315,2.3330542025505565,PPG_1,PPG_2,171193.0,171193.0,452.23307568367454,-13.88774510615124,-0.17210913983302564
62861.221025904895,2.3431540042947745,PPG_1,PPG_2,171153.0,171153.0,412.41716629156144,-14.694919672930327,-0.18209967269846347
62861.23112570664,2.3532538060389925,PPG_1,PPG_2,171185.0,171185.0,444.60125689947745,-15.502782747144085,-0.19209872733408245
62861.241225508384,2.3633536077832105,PPG_1,PPG_2,171175.0,171175.0,434.78534750736435,-16.267751505971113,-0.2015668719469518
62861.25132531012,2.3734534095201525,PPG_1,PPG_2,171127.0,171127.0,386.96943811528035,-16.980158439687163,-0.21038445017325375
62861.261425111865,2.3835532112643705,PPG_1,PPG_2,171194.0,171194.0,454.15352872316726,-17.65821661711193,-0.21877688817247404
62861.27152491361,2.3936530130085885,PPG_1,PPG_2,171184.0,171184.0,444.33761933105416,-18.33440517828712,-0.22714618562272776
62861.28162471535,2.4037528147528064,PPG_1,PPG_2,171158.0,171158.0,418.52170993897016,-19.03582616798109,-0.2358277890062538
62861.2917245171,2.4138526164970244,PPG_1,PPG_2,171206.0,171206.0,466.70580054685706,-19.76369481543545,-0.24483673941599185
62861.301824318834,2.4239524182339665,PPG_1,PPG_2,171183.0,171183.0,443.88989115474396,-20.47759359439449,-0.2536727824571475
62861.31192412058,2.4340522199781844,PPG_1,PPG_2,171167.0,171167.0,428.07398176265997,-21.088695515350693,-0.26123649181658287
62861.32202392232,2.4441520217224024,PPG_1,PPG_2,171171.0,171171.0,432.25807237054687,-21.46469433858143,-0.2658902913234753
62861.33212372407,2.4542518234666204,PPG_1,PPG_2,171149.0,171149.0,410.4421629784629,-21.445994897835707,-0.2656588452583683
62861.34222352581,2.4643516252035624,PPG_1,PPG_2,171142.0,171142.0,403.6262535863498,-20.869028598473044,-0.2585176381226753
62861.35232332755,2.4744514269477804,PPG_1,PPG_2,171164.0,171164.0,425.8103441942367,-19.590973720855303,-0.24269894191471153
62861.36242312929,2.4845512286919984,PPG_1,PPG_2,171129.0,171129.0,390.9944348021527,-17.510671385519682,-0.2169506964835523
62861.37252293104,2.4946510304362164,PPG_1,PPG_2,171182.0,171182.0,444.1785254100396,-14.582342054786196,-0.1807062809338175
62861.38262273278,2.5047508321804344,PPG_1,PPG_2,171150.0,171150.0,412.3626160179265,-10.820970644472126,-0.1341511660423624
62861.39272253452,2.5148506339173764,PPG_1,PPG_2,171176.0,171176.0,438.5467066258425,-6.300225100391679,-0.07819715213600226
62861.40282233626,2.5249504356615944,PPG_1,PPG_2,171171.0,171171.0,433.7307972337294,-1.144883584579832,-0.014388639125246837
62861.412922138006,2.5350502374058124,PPG_1,PPG_2,171179.0,171179.0,441.9148878416454,4.480418551434025,0.05523665406519768
62861.42302193975,2.5451500391500304,PPG_1,PPG_2,171208.0,171208.0,471.0989784495323,10.384659252246903,0.12831441592073253
62861.433121741495,2.5552498408942483,PPG_1,PPG_2,171180.0,171180.0,443.2830690574192,16.364110641687518,0.20232307288556942
62861.44322154323,2.5653496426311904,PPG_1,PPG_2,171181.0,171181.0,444.4671596653352,22.213977871461466,0.274727845313811
62861.453321344976,2.5754494443754083,PPG_1,PPG_2,171223.0,171223.0,486.6512502732221,27.7373950963517,0.3430920921396079
62861.46342114672,2.5855492461196263,PPG_1,PPG_2,171194.0,171194.0,457.835340881109,32.752873528320656,0.4051694966723427
62861.473520948464,2.5956490478638443,PPG_1,PPG_2,171209.0,171209.0,473.019431489025,37.100464226064126,0.4589803444603223
62861.4836207502,2.6057488496007863,PPG_1,PPG_2,171214.0,171214.0,478.2035220969119,40.64570425152015,0.5028603655213398
62861.493720551945,2.6158486513450043,PPG_1,PPG_2,171229.0,171229.0,493.3876127048279,43.28094522765679,0.5354771781217385
62861.50382035369,2.6259484530892223,PPG_1,PPG_2,171216.0,171216.0,480.5717033127148,44.92368448595028,0.5558096331132469
62861.513920155434,2.6360482548334403,PPG_1,PPG_2,171176.0,171176.0,440.7557939206017,45.510975862339826,0.5630786354318169
62861.52401995718,2.6461480565776583,PPG_1,PPG_2,171197.0,171197.0,461.9398845285177,44.991171709884426,0.5566449336250081
62861.534119758915,2.6562478583146003,PPG_1,PPG_2,171219.0,171219.0,484.1239751364046,43.317949123943265,0.5359351814548644
62861.54421956066,2.6663476600588183,PPG_1,PPG_2,171194.0,171194.0,459.3080657442915,40.451170717330875,0.5004525918541107
62861.5543193624,2.6764474618030363,PPG_1,PPG_2,171178.0,171178.0,443.49215635220753,36.36458990960706,0.44987230656372196
62861.56441916415,2.6865472635472543,PPG_1,PPG_2,171194.0,171194.0,459.67624696009443,31.058253475588405,0.3841949045233249
62861.57451896589,2.696647065291472,PPG_1,PPG_2,171180.0,171180.0,445.86033756801044,24.5750603178713,0.3039513525323203
62861.58461876763,2.7067468670284143,PPG_1,PPG_2,171226.0,171226.0,492.04442817589734,17.02086054198998,0.21045177482117003
62861.59471856937,2.7168466687726323,PPG_1,PPG_2,171212.0,171212.0,478.22851878378424,8.583521550597226,0.10602143724659767
62861.60481837112,2.7269464705168502,PPG_1,PPG_2,171184.0,171184.0,450.41260939170024,-0.45789962514109117,-0.005885725248526857
62861.61491817286,2.737046272261068,PPG_1,PPG_2,171138.0,171138.0,404.59669999958714,-9.742355339746926,-0.12080096635257143
62861.6250179746,2.7471460739980103,PPG_1,PPG_2,171131.0,171131.0,397.78079060747405,-18.85589733555428,-0.23360078014375596
62861.63511777634,2.757245875742228,PPG_1,PPG_2,171131.0,171131.0,397.96488121539005,-27.37362226351955,-0.33902606772579863
62861.64521757809,2.767345677486446,PPG_1,PPG_2,171098.0,171098.0,365.14897182327695,-34.90440198046889,-0.4322357715012474
62861.65531737983,2.777445479230664,PPG_1,PPG_2,171077.0,171077.0,344.33306243119296,-41.13058265202054,-0.509298237522076
62861.665417181575,2.787545280974882,PPG_1,PPG_2,171076.0,171076.0,343.51715303907986,-45.83653298381762,-0.5675445616605372
62861.67551698331,2.797645082711824,PPG_1,PPG_2,171134.0,171134.0,401.70124364696676,-48.92014225808331,-0.6057109027057596
62861.68561678506,2.807744884456042,PPG_1,PPG_2,171114.0,171114.0,381.88533425488276,-50.3851136269084,-0.6238430951825056
62861.6957165868,2.81784468620026,PPG_1,PPG_2,171100.0,171100.0,368.06942486276967,-50.31926203006776,-0.6230280390972981
62861.705816388545,2.827944487944478,PPG_1,PPG_2,171132.0,171132.0,400.25351547065657,-48.86766313746833,-0.6050613599663923
62861.71591619029,2.838044289688696,PPG_1,PPG_2,171110.0,171110.0,378.43760607857257,-46.20678206229568,-0.5721271956274291
62861.726015992026,2.848144091425638,PPG_1,PPG_2,171127.0,171127.0,395.6216966864595,-42.52234568301131,-0.5265243183158482
62861.73611579377,2.858243893169856,PPG_1,PPG_2,171138.0,171138.0,406.8057872943755,-37.9928577973567,-0.4704620990045952
62861.746215595515,2.868343694914074,PPG_1,PPG_2,171135.0,171135.0,403.9898779022624,-32.78053904812346,-0.40594836936969664
62861.75631539726,2.878443496658292,PPG_1,PPG_2,171112.0,171112.0,381.1739685101493,-27.030970858781696,-0.3347850147227512
62861.76641519899,2.888543298395234,PPG_1,PPG_2,171128.0,171128.0,397.3580591180653,-20.880820074674375,-0.25866358317021504
62861.77651500074,2.898643100139452,PPG_1,PPG_2,171139.0,171139.0,408.5421497259522,-14.46985971540134,-0.17931406845010417
62861.78661480248,2.90874290188367,PPG_1,PPG_2,171119.0,171119.0,388.7262403338682,-7.952212279052679,-0.09864407016459223
62861.79671460423,2.918842703627888,PPG_1,PPG_2,171125.0,171125.0,394.9103309417551,-1.502923675809562,-0.018820160441445532
62861.80681440597,2.928942505372106,PPG_1,PPG_2,171165.0,171165.0,435.094421549642,4.6832393545855275,0.057747000628476035
62861.81691420771,2.939042307109048,PPG_1,PPG_2,171156.0,171156.0,426.278512157558,10.402930679261587,0.12854056438923178
62861.827014009454,2.949142108853266,PPG_1,PPG_2,171164.0,171164.0,434.4626027654449,15.464237026762966,0.19118518859801284
62861.8371138112,2.959241910597484,PPG_1,PPG_2,171198.0,171198.0,468.6466933733318,19.711428801275478,0.2437533823388067
62861.84721361294,2.969341712341702,PPG_1,PPG_2,171192.0,171192.0,462.8307839812478,23.049541419968705,0.2850697532926932
62861.857313414686,2.97944151408592,PPG_1,PPG_2,171224.0,171224.0,495.0148745891347,25.463294744812647,0.3149451766687534
62861.86741321642,2.989541315822862,PPG_1,PPG_2,171179.0,171179.0,450.1989651970507,27.024114532086312,0.3342637008437735
62861.87751301817,2.99964111756708,PPG_1,PPG_2,171198.0,171198.0,469.3830558049376,27.880796879491744,0.34486699968301554
62861.88761281991,3.009740919311298,PPG_1,PPG_2,171172.0,171172.0,443.5671464128245,28.23401827846968,0.34923887924971997
62861.897712621656,3.019840721055516,PPG_1,PPG_2,171148.0,171148.0,419.7512370207405,28.299671642364988,0.35005148177303774
62861.90781242339,3.029940522792458,PPG_1,PPG_2,171149.0,171149.0,420.9353276286274,28.269119310743555,0.3496733305208276
62861.91791222514,3.040040324536676,PPG_1,PPG_2,171133.0,171133.0,405.1194182365143,28.276129209668447,0.3497600931970502
62861.92801202688,3.050140126280894,PPG_1,PPG_2,171171.0,171171.0,443.3035088444303,28.37973933696724,0.35104249284710515
62861.938111828626,3.060239928025112,PPG_1,PPG_2,171199.0,171199.0,471.4875994523172,28.56796508280254,0.3533721939765559
62861.94821163037,3.07033972976933,PPG_1,PPG_2,171202.0,171202.0,474.67169006023323,28.779690310725574,0.3559927520752184
62861.95831143211,3.080439531506272,PPG_1,PPG_2,171202.0,171202.0,474.85578066812013,28.93516672493078,0.35791710932066007
62861.96841123385,3.09053933325049,PPG_1,PPG_2,171193.0,171193.0,466.03987127600703,28.963973030590957,0.358273649721305
62861.978511035595,3.100639134994708,PPG_1,PPG_2,171168.0,171168.0,441.22396188392304,28.82352089634308,0.3565352504691785
62861.98861083734,3.110738936738926,PPG_1,PPG_2,171190.0,171190.0,463.40805249180994,28.50724920147847,0.3526207034901266
62861.99871063908,3.120838738483144,PPG_1,PPG_2,171184.0,171184.0,457.59214309969684,28.045453364491344,0.34690498018017135
62862.00881044082,3.130938540220086,PPG_1,PPG_2,171188.0,171188.0,461.77623370761285,27.501583118058743,0.3401734083552556
62862.018910242565,3.141038341964304,PPG_1,PPG_2,171176.0,171176.0,449.96032431549975,26.964627830260657,0.33352742411491526
62862.02901004431,3.151138143708522,PPG_1,PPG_2,171159.0,171159.0,433.14441492341575,26.53754859571887,0.32824139392461626
62862.03910984605,3.16123794545274,PPG_1,PPG_2,171189.0,171189.0,463.32850553130265,26.323450119951826,0.3255914617456008
62862.04920964779,3.171337747189682,PPG_1,PPG_2,171148.0,171148.0,422.51259613918955,26.412683649977705,0.32669591987784835
62862.059309449534,3.1814375489339,PPG_1,PPG_2,171196.0,171196.0,470.69668674710556,26.873550344153173,0.33240014303383614
62862.06940925128,3.191537350678118,PPG_1,PPG_2,171180.0,171180.0,454.88077735499246,27.747566517867334,0.34321798550285604
62862.07950905302,3.201637152422336,PPG_1,PPG_2,171201.0,171201.0,476.06486796287936,29.0481658067011,0.35931571761018466
62862.08960885477,3.211736954166554,PPG_1,PPG_2,171154.0,171154.0,429.24895857079537,30.760099407662857,0.3805046024038462
62862.099708656504,3.221836755903496,PPG_1,PPG_2,171194.0,171194.0,469.43304917868227,32.83780813071522,0.40622074626760896
62862.10980845825,3.231936557647714,PPG_1,PPG_2,171180.0,171180.0,455.6171397865983,35.204098278072195,0.4355087100604544
62862.11990825999,3.242036359391932,PPG_1,PPG_2,171213.0,171213.0,488.8012303944852,37.7513318712304,0.46703624075303024
62862.13000806174,3.25213616113615,PPG_1,PPG_2,171179.0,171179.0,454.9853210023721,40.344928595307785,0.49913761557085023
62862.14010786348,3.262235962880368,PPG_1,PPG_2,171206.0,171206.0,482.1694116102881,42.82710596373383,0.5298599346301093
62862.15020766522,3.27233576461731,PPG_1,PPG_2,171210.0,171210.0,486.353502218175,45.01958911200335,0.5569966605023209
62862.16030746696,3.282435566361528,PPG_1,PPG_2,171170.0,171170.0,446.5375928260619,46.7253639978288,0.5781093178620289
62862.170407268706,3.292535368105746,PPG_1,PPG_2,171198.0,171198.0,474.7216834339779,47.730434257004575,0.5905492383818708
62862.18050707045,3.302635169849964,PPG_1,PPG_2,171170.0,171170.0,446.9057740418648,47.80824166048549,0.5915122734595893
62862.19060687219,3.312734971586906,PPG_1,PPG_2,171197.0,171197.0,474.0898646497808,46.73065332386636,0.5781747847235842
62862.20070667393,3.322834773331124,PPG_1,PPG_2,171197.0,171197.0,474.2739552576677,44.28789338035523,0.5479403416397225
62862.21080647568,3.332934575075342,PPG_1,PPG_2,171216.0,171216.0,493.4580458655546,40.316146181816286,0.4987813708875213
62862.22090627742,3.34303437681956,PPG_1,PPG_2,171207.0,171207.0,484.6421364734706,34.72774970288877,0.4296128651074048
62862.23100607917,3.353134178563778,PPG_1,PPG_2,171200.0,171200.0,477.8262270813575,27.536744470304537,0.34060860621661365
62862.2411058809,3.36323398030072,PPG_1,PPG_2,171175.0,171175.0,453.0103176892444,18.87346915409902,0.23338181745113565
62862.251205682645,3.373333782044938,PPG_1,PPG_2,171161.0,171161.0,439.1944082971604,8.98552767768144,0.11099713344670033
62862.26130548439,3.383433583789156,PPG_1,PPG_2,171178.0,171178.0,456.3784989050473,-1.773609376999714,-0.022170482051224922
62862.271405286134,3.393533385533374,PPG_1,PPG_2,171145.0,171145.0,423.5625895129633,-12.965716794178485,-0.16069704320269534
62862.28150508788,3.403633187277592,PPG_1,PPG_2,171153.0,171153.0,431.7466801208502,-24.09741813021789,-0.2984759483157659
62862.291604889615,3.413732989014534,PPG_1,PPG_2,171106.0,171106.0,384.9307707287371,-34.65816925495433,-0.4291881084082243
62862.30170469136,3.423832790758752,PPG_1,PPG_2,171088.0,171088.0,367.1148613366531,-44.16476909315392,-0.5468528640026513
62862.3118044931,3.43393259250297,PPG_1,PPG_2,171076.0,171076.0,355.29895194454,-52.20679351925791,-0.6463903279421397
62862.32190429485,3.444032394247188,PPG_1,PPG_2,171074.0,171074.0,353.4830425524269,-58.48453535094306,-0.7240909749539148
62862.332004096585,3.45413219598413,PPG_1,PPG_2,171080.0,171080.0,359.6671331603429,-62.83178833193262,-0.7778976427658794
62862.34210389833,3.464231997728348,PPG_1,PPG_2,171088.0,171088.0,367.85122376822983,-65.21991751135803,-0.8074559118639323
62862.35220370007,3.4743317994725658,PPG_1,PPG_2,171079.0,171079.0,359.03531437614583,-65.7443013985144,-0.8139462978031804
62862.36230350182,3.4844316012167837,PPG_1,PPG_2,171117.0,171117.0,397.21940498403274,-64.59717678113533,-0.7997481470408128
62862.37240330356,3.4945314029610017,PPG_1,PPG_2,171138.0,171138.0,418.40349559191964,-62.032610915942854,-0.7680060919559706
62862.3825031053,3.504631204697944,PPG_1,PPG_2,171113.0,171113.0,393.58758619983564,-58.33136357460082,-0.7221951425917643
62862.39260290704,3.5147310064421617,PPG_1,PPG_2,171105.0,171105.0,385.77167680772254,-53.77410581730259,-0.6657892109947889
62862.40270270879,3.5248308081863797,PPG_1,PPG_2,171109.0,171109.0,389.95576741560944,-48.627399491879906,-0.6020875771610206
62862.41280251053,3.5349306099305977,PPG_1,PPG_2,171105.0,171105.0,386.13985802352545,-43.14022293516972,-0.5341718870680787
62862.422902312275,3.5450304116748157,PPG_1,PPG_2,171125.0,171125.0,406.32394863141235,-37.54553239004506,-0.46492547859158434
62862.43300211401,3.5551302134117577,PPG_1,PPG_2,171135.0,171135.0,416.50803923932835,-32.062641667735036,-0.39706283497854034
62862.44310191576,3.5652300151559757,PPG_1,PPG_2,171111.0,171111.0,392.69212984721526,-26.8989984365887,-0.3331515702666012
62862.4532017175,3.5753298169001937,PPG_1,PPG_2,171109.0,171109.0,390.87622045510216,-22.250956478363975,-0.2756219876276489
62862.463301519245,3.5854296186444117,PPG_1,PPG_2,171129.0,171129.0,411.06031106301816,-18.301226000417962,-0.22673552146085663
62862.47340132098,3.5955294203813537,PPG_1,PPG_2,171163.0,171163.0,445.24440167090506,-15.209144020756593,-0.18846431234223543
62862.483501122726,3.605629222125572,PPG_1,PPG_2,171180.0,171180.0,462.42849227879196,-13.093204698152157,-0.16227498203651805
62862.49360092447,3.6157290238697897,PPG_1,PPG_2,171151.0,171151.0,433.61258288670797,-12.011619054556961,-0.14888801797217474
62862.503700726214,3.625828825614008,PPG_1,PPG_2,171155.0,171155.0,437.79667349459487,-11.949158295350975,-0.14811493084414784
62862.51380052796,3.6359286273582256,PPG_1,PPG_2,171147.0,171147.0,429.9807641025109,-12.81451456374232,-0.15882558823536674
62862.523900329696,3.646028429095168,PPG_1,PPG_2,171157.0,171157.0,440.1648547103978,-14.446876007345322,-0.17902959530122942
62862.53400013144,3.6561282308393857,PPG_1,PPG_2,171165.0,171165.0,448.3489453182847,-16.62879890215811,-0.20603561517306754
62862.544099933184,3.666228032583603,PPG_1,PPG_2,171147.0,171147.0,430.5330359262007,-19.104372971543192,-0.23667620410999102
62862.55419973493,3.6763278343278216,PPG_1,PPG_2,171123.0,171123.0,406.7171265340876,-21.603071705493427,-0.2676030108377726
62862.56429953667,3.68642763607204,PPG_1,PPG_2,171113.0,171113.0,396.9012171419745,-23.867725818828756,-0.2956330086589474
62862.57439933841,3.6965274378089816,PPG_1,PPG_2,171148.0,171148.0,432.0853077498905,-25.68132037040118,-0.3180801678210152
62862.584499140154,3.7066272395532,PPG_1,PPG_2,171084.0,171084.0,368.2693983577774,-26.88629890000671,-0.33299438600582293
62862.5945989419,3.7167270412974176,PPG_1,PPG_2,171167.0,171167.0,451.4534889656934,-27.39263482554533,-0.33926138934468053
62862.60469874364,3.726826843041635,PPG_1,PPG_2,171152.0,171152.0,436.6375795735803,-27.174362197262457,-0.3365597929908867
62862.61479854538,3.7369266447785776,PPG_1,PPG_2,171130.0,171130.0,414.8216701814672,-26.25793127596845,-0.3252169761890324
62862.62489834712,3.747026446522795,PPG_1,PPG_2,171132.0,171132.0,417.0057607893832,-24.708013102034347,-0.30603338308200884
62862.63499814887,3.7571262482670136,PPG_1,PPG_2,171151.0,171151.0,436.1898513972701,-22.61388854359185,-0.28011405771361414
62862.64509795061,3.767226050011232,PPG_1,PPG_2,171176.0,171176.0,461.373942005157,-20.07592885016703,-0.24870131160902012
62862.65519775235,3.7773258517554495,PPG_1,PPG_2,171137.0,171137.0,422.558032613073,-17.19271713581916,-0.21301532424553174
62862.66529755409,3.787425653492392,PPG_1,PPG_2,171176.0,171176.0,461.7421232209599,-14.052048684570329,-0.17414275234717488
62862.67539735584,3.7975254552366096,PPG_1,PPG_2,171146.0,171146.0,431.9262138288759,-10.728140061296216,-0.13300218658945737
62862.68549715758,3.807625256980827,PPG_1,PPG_2,171134.0,171134.0,420.1103044367628,-7.284264376206995,-0.09037676870289191
62862.695596959325,3.8177250587250455,PPG_1,PPG_2,171161.0,171161.0,447.2943950446497,-3.7775017682378467,-0.04697298899015394
62862.70569676107,3.827824860469263,PPG_1,PPG_2,171188.0,171188.0,474.4784856525657,-0.2613376717663747,-0.003452845502177992
62862.71579656281,3.8379246622062055,PPG_1,PPG_2,171174.0,171174.0,460.6625762604526,3.215675044219416,0.03958271488622105
62862.72589636455,3.848024463950423,PPG_1,PPG_2,171145.0,171145.0,431.8466668683395,6.612764539275922,0.08162905237505344
62862.735996166295,3.8581242656946415,PPG_1,PPG_2,171208.0,171208.0,495.03075747625553,9.898681940038802,0.12229939449996846
62862.74609596804,3.868224067438859,PPG_1,PPG_2,171168.0,171168.0,455.21484808414243,13.052790468853697,0.16133831645711572
62862.756195769776,3.8783238691758015,PPG_1,PPG_2,171187.0,171187.0,474.39893869205844,16.066422904619117,0.19863854262009384
62862.76629557152,3.888423670920019,PPG_1,PPG_2,171190.0,171190.0,477.58302929994534,18.943905687201845,0.23425362204936434
62862.776395373265,3.8985234726642375,PPG_1,PPG_2,171222.0,171222.0,509.76711990783224,21.702516659044743,0.26839740545315516
62862.78649517501,3.908623274408455,PPG_1,PPG_2,171191.0,171191.0,478.95121051574824,24.370232404525346,0.30141616363482143
62862.79659497675,3.9187230761526735,PPG_1,PPG_2,171196.0,171196.0,484.13530112363514,26.97899573683508,0.33370525806651274
62862.80669477849,3.928822877889615,PPG_1,PPG_2,171213.0,171213.0,501.31939173152205,29.552535099551285,0.36555837961159593
62862.816794580234,3.9389226796338335,PPG_1,PPG_2,171182.0,171182.0,470.50348233943805,32.09066819960125,0.3969732719986161
62862.82689438198,3.949022481378051,PPG_1,PPG_2,171187.0,171187.0,475.68757294732495,34.553432376178606,0.42745531077753723
62862.83699418372,3.9591222831222694,PPG_1,PPG_2,171203.0,171203.0,491.87166355524096,36.84894180472067,0.4558672099287755
62862.84709398547,3.9692220848664874,PPG_1,PPG_2,171183.0,171183.0,472.05575416312786,38.82916557477347,0.48037676643595933
62862.8571937872,3.9793218866034294,PPG_1,PPG_2,171216.0,171216.0,505.23984477101476,40.296377229386835,0.49853668729974443
62862.86729358895,3.989421688347647,PPG_1,PPG_2,171221.0,171221.0,510.42393537893076,41.020275570923445,0.5074964965777005
62862.87739339069,3.9995214900918654,PPG_1,PPG_2,171218.0,171218.0,507.60802598681767,40.762955138069785,0.5043115991005271
62862.88749319244,4.009621291836083,PPG_1,PPG_2,171203.0,171203.0,492.79211659470457,39.30692181889084,0.48629003433978946
62862.89759299417,4.019721093573025,PPG_1,PPG_2,171203.0,171203.0,492.97620720262057,36.482055167304964,0.4513261934500009
62862.90769279592,4.029820895317243,PPG_1,PPG_2,171225.0,171225.0,515.1602978105075,32.190145921252196,0.39820452418176955
62862.91779259766,4.039920697061461,PPG_1,PPG_2,171202.0,171202.0,492.3443884184235,26.426506677407648,0.32686700977032324
62862.927892399406,4.050020498805679,PPG_1,PPG_2,171203.0,171203.0,493.5284790263104,19.296364726362974,0.238616065762762
62862.93799220115,4.060120300549897,PPG_1,PPG_2,171220.0,171220.0,510.7125696341973,11.022530674839144,0.13620945582116026
62862.94809200289,4.070220102286839,PPG_1,PPG_2,171190.0,171190.0,480.8966602421133,1.9411639592980363,0.023807880785487158
62862.95819180463,4.080319904031057,PPG_1,PPG_2,171165.0,171165.0,456.0807508500002,-7.516956405720881,-0.09325683636614888
62862.968291606376,4.090419705775275,PPG_1,PPG_2,171185.0,171185.0,476.2648414578871,-16.860378789968863,-0.2089019176748669
62862.97839140812,4.100519507519493,PPG_1,PPG_2,171105.0,171105.0,396.4489320658031,-25.583354483221957,-0.3168676278626995
62862.988491209864,4.110619309263711,PPG_1,PPG_2,171109.0,171109.0,400.63302267369,-33.21850129453129,-0.41136910039448366
62862.9985910116,4.120719111000653,PPG_1,PPG_2,171118.0,171118.0,409.817113281606,-39.38670400081539,-0.4877139635679034
62863.008690813345,4.130818912744871,PPG_1,PPG_2,171112.0,171112.0,404.0012038894929,-43.83440172507853,-0.5427638525492854
62863.01879061509,4.140918714489089,PPG_1,PPG_2,171090.0,171090.0,382.1852944973798,-46.45223456215793,-0.5751652017387501
62863.028890416834,4.151018516233307,PPG_1,PPG_2,171137.0,171137.0,429.3693851052958,-47.27409970584926,-0.5853375622998246
62863.03899021857,4.161118317970249,PPG_1,PPG_2,171127.0,171127.0,419.5534757131827,-46.458374748654556,-0.5752411998406715
62863.049090020315,4.171218119714467,PPG_1,PPG_2,171120.0,171120.0,412.7375663210696,-44.25533410737914,-0.5479738021346422
62863.05918982206,4.181317921458685,PPG_1,PPG_2,171173.0,171173.0,465.9216569289856,-40.9669625956619,-0.5072730850733081
62863.0692896238,4.191417723202903,PPG_1,PPG_2,171168.0,171168.0,461.1057475368725,-36.90599684658943,-0.45700984159250907
62863.07938942555,4.201517524947121,PPG_1,PPG_2,171152.0,171152.0,445.2898381447885,-32.36153371554499,-0.4007622711968777
62863.089489227285,4.211617326684063,PPG_1,PPG_2,171130.0,171130.0,423.4739287526754,-27.57781219448059,-0.3415533602099981
62863.09958902903,4.221717128428281,PPG_1,PPG_2,171170.0,171170.0,463.6580193605623,-22.747719849782182,-0.28177050988387303
62863.10968883077,4.231816930172499,PPG_1,PPG_2,171166.0,171166.0,459.8421099684783,-18.01715673451968,-0.22321954926125892
62863.11978863252,4.241916731916717,PPG_1,PPG_2,171136.0,171136.0,430.0262005763652,-13.496255437150156,-0.16726360757072736
62863.12988843426,4.252016533660935,PPG_1,PPG_2,171138.0,171138.0,432.2102911842521,-9.275210168656564,-0.11501903345132562
62863.139988236,4.262116335397877,PPG_1,PPG_2,171135.0,171135.0,429.39438179216813,-5.440524221139837,-0.06755649242978289
62863.15008803774,4.272216137142095,PPG_1,PPG_2,171161.0,171161.0,455.57847240005503,-2.0846471250872924,-0.026020247606971404
62863.16018783949,4.282315938886313,PPG_1,PPG_2,171193.0,171193.0,487.76256300797104,0.6960991526338413,0.008397508131881275
62863.17028764123,4.292415740630531,PPG_1,PPG_2,171167.0,171167.0,461.94665361585794,2.8142469787809534,0.03461417345053717
62863.18038744297,4.302515542367473,PPG_1,PPG_2,171167.0,171167.0,462.13074422374484,4.208716552145078,0.05187375356607393
62863.19048724471,4.312615344111691,PPG_1,PPG_2,171191.0,171191.0,486.31483483166085,4.861858590946933,0.05995780040427772
62863.200587046456,4.322715145855909,PPG_1,PPG_2,171210.0,171210.0,505.49892543954775,4.813620962870684,0.05936075531826917
62863.2106868482,4.332814947600127,PPG_1,PPG_2,171188.0,171188.0,483.68301604743465,4.1701392072836825,0.051396275400183475
62863.220786649945,4.342914749344345,PPG_1,PPG_2,171176.0,171176.0,471.86710665535065,3.101993969581409,0.03817566545838628
62863.23088645168,4.353014551081287,PPG_1,PPG_2,171180.0,171180.0,476.05119726323755,1.829135500216674,0.02242128605321901
62863.240986253426,4.363114352825505,PPG_1,PPG_2,171161.0,171161.0,457.23528787115356,0.5943078932980435,0.007137620910872097
62863.25108605517,4.373214154569723,PPG_1,PPG_2,171134.0,171134.0,430.41937847904046,-0.36990801095934545,-0.004796638513703796
62863.261185856914,4.383313956313941,PPG_1,PPG_2,171131.0,171131.0,427.60346908692736,-0.8737514079114735,-0.011032791414767281
62863.27128565866,4.393413758058159,PPG_1,PPG_2,171170.0,171170.0,466.78755969484337,-0.7947622908949135,-0.010055130073534965
62863.2813854604,4.403513559795101,PPG_1,PPG_2,171150.0,171150.0,446.97165030273027,-0.08788220653360024,-0.0013059585740965302
62863.29148526214,4.413613361539319,PPG_1,PPG_2,171166.0,171166.0,463.15574091061717,1.2196158960872125,0.014877161290365048
62863.30158506389,4.423713163283537,PPG_1,PPG_2,171194.0,171194.0,491.3398315185332,3.04446514352793,0.03746362168117614
62863.31168486563,4.433812965027755,PPG_1,PPG_2,171163.0,171163.0,460.5239221264201,5.269606824300542,0.06500456760161229
62863.321784667365,4.443912766764697,PPG_1,PPG_2,171207.0,171207.0,504.7080127343361,7.766770982961432,0.09591238063770233
62863.33188446911,4.454012568508915,PPG_1,PPG_2,171181.0,171181.0,478.892103342223,10.414561201245535,0.12868451727985183
62863.34198427085,4.464112370253133,PPG_1,PPG_2,171159.0,171159.0,457.0761939501099,13.108843920179789,0.16203209927776274
62863.3520840726,4.474212171997351,PPG_1,PPG_2,171175.0,171175.0,473.2602845580259,15.765177635229392,0.19490998018978203
62863.36218387434,4.484311973741569,PPG_1,PPG_2,171178.0,171178.0,476.4443751659128,18.316570123145187,0.22648898620934374
62863.37228367608,4.494411775478511,PPG_1,PPG_2,171184.0,171184.0,482.6284657737997,20.7108679808613,0.256123606056957
62863.38238347782,4.504511577222729,PPG_1,PPG_2,171160.0,171160.0,458.8125563817157,22.909686651743925,0.28333874773845075
62863.39248327957,4.514611378966947,PPG_1,PPG_2,171185.0,171185.0,483.9966469896026,24.88903789848511,0.3078375048805662
62863.40258308131,4.524711180711165,PPG_1,PPG_2,171215.0,171215.0,514.1807375975186,26.642071499762608,0.3295350911631292
62863.412682883056,4.534810982455383,PPG_1,PPG_2,171190.0,171190.0,489.3648282054055,28.18306875534649,0.34860826859102223
62863.42278268479,4.544910784192325,PPG_1,PPG_2,171173.0,171173.0,472.5489188132924,29.54905497861297,0.3655153055802266
62863.43288248654,4.555010585936543,PPG_1,PPG_2,171205.0,171205.0,504.7330094212084,30.796000072791443,0.380948950862804
62863.44298228828,4.565110387680761,PPG_1,PPG_2,171155.0,171155.0,454.9171000290953,31.99053702962687,0.39573393197768914
62863.453082090025,4.575210189424979,PPG_1,PPG_2,171193.0,171193.0,493.1011906369822,33.20052076189024,0.4107101003820768
62863.46318189176,4.585309991161921,PPG_1,PPG_2,171194.0,171194.0,494.2852812448982,34.487411433492134,0.4266381586708395
62863.47328169351,4.595409792906139,PPG_1,PPG_2,171200.0,171200.0,500.4693718527851,35.901625580187776,0.44414212063003333
62863.48338149525,4.605509594650357,PPG_1,PPG_2,171175.0,171175.0,475.6534624607011,37.479383066227406,0.4636702854988398
62863.493481296995,4.615609396394575,PPG_1,PPG_2,171190.0,171190.0,490.837553068588,39.238944322448134,0.4854486656442531
62863.50358109874,4.625709198138793,PPG_1,PPG_2,171217.0,171217.0,518.0216436764749,41.17619966039237,0.5094263947737856
62863.51368090048,4.635808999875735,PPG_1,PPG_2,171157.0,171157.0,458.2057342843909,43.26053594590391,0.5352245690722168
62863.52378070222,4.645908801619953,PPG_1,PPG_2,171212.0,171212.0,513.3898248922778,45.43110655562266,0.5620900798373542
62863.533880503965,4.656008603364171,PPG_1,PPG_2,171184.0,171184.0,485.57391550016473,47.59406158305899,0.5888613312833635
62863.54398030571,4.666108405108389,PPG_1,PPG_2,171204.0,171204.0,505.75800610808074,49.622006395104094,0.6139615390053142
62863.55408010745,4.676208206852607,PPG_1,PPG_2,171166.0,171166.0,467.94209671596764,51.356077488236906,0.6354244231941448
62863.56417990919,4.686308008589549,PPG_1,PPG_2,171214.0,171214.0,516.1261873238836,52.61076846029367,0.65095394048595
62863.574279710934,4.696407810333767,PPG_1,PPG_2,171194.0,171194.0,496.31027793177054,53.182335603102274,0.6580283213696537
62863.58437951268,4.706507612077985,PPG_1,PPG_2,171178.0,171178.0,480.49436853965744,52.860692616485096,0.6540472930258605
62863.59447931442,4.716607413822203,PPG_1,PPG_2,171180.0,171180.0,482.67845914757345,51.44355523309679,0.636507149683539
62863.60457911616,4.726707215559145,PPG_1,PPG_2,171198.0,171198.0,500.86254975546035,48.75272032661455,0.6032022418295289
62863.614678917904,4.736807017303363,PPG_1,PPG_2,171189.0,171189.0,492.04664036334725,44.65298503123348,0.5524591412737977
62863.62477871965,4.746906819047581,PPG_1,PPG_2,171159.0,171159.0,462.23073097126326,39.072042780917805,0.48338289771179127
62863.63487852139,4.757006620791799,PPG_1,PPG_2,171171.0,171171.0,474.41482157915016,32.01837262131907,0.39607845769130207
62863.64497832314,4.767106422536017,PPG_1,PPG_2,171169.0,171169.0,472.59891218706616,23.59574566184405,0.29183021336451137
62863.65507812487,4.777206224272959,PPG_1,PPG_2,171182.0,171182.0,485.78300279495306,14.013589564778654,0.17323028548089728
62863.66517792662,4.787306026017177,PPG_1,PPG_2,171166.0,171166.0,469.96709340283996,3.589749691188292,0.044212698545867776
62863.67527772836,4.797405827761395,PPG_1,PPG_2,171118.0,171118.0,422.15118401075597,-7.260137323805046,-0.09007814419229855
62863.685377530106,4.807505629505613,PPG_1,PPG_2,171094.0,171094.0,398.33527461864287,-18.049905511180416,-0.22362488627632063
62863.69547733185,4.817605431249831,PPG_1,PPG_2,171121.0,171121.0,425.51936522652977,-28.263554426109746,-0.3500409050166282
62863.70557713359,4.827705232986773,PPG_1,PPG_2,171074.0,171074.0,378.7034558344458,-37.40208763662305,-0.46315003919790304
62863.71567693533,4.837805034730991,PPG_1,PPG_2,171036.0,171036.0,340.8875464423327,-45.03035199237432,-0.5575663264410549
62863.72577673707,4.847904836475209,PPG_1,PPG_2,171061.0,171061.0,366.0716370502487,-50.818875201977896,-0.6292118338046702
62863.73587653882,4.858004638219427,PPG_1,PPG_2,171047.0,171047.0,352.2557276581356,-54.57421368208739,-0.6756922781230369
62863.74597634056,4.868104439956369,PPG_1,PPG_2,171057.0,171057.0,362.4398182660225,-56.25227640409298,-0.6964619374562839
62863.7560761423,4.878204241700587,PPG_1,PPG_2,171056.0,171056.0,361.6239088739385,-55.95382921238131,-0.6927680072953141
62863.766175944045,4.888304043444805,PPG_1,PPG_2,171061.0,171061.0,366.8079994818254,-53.905123214503334,-0.6674108349489495
62863.77627574579,4.898403845189023,PPG_1,PPG_2,171077.0,171077.0,382.9920900897123,-50.427651276774704,-0.6243695906972287
62863.786375547534,4.908503646933241,PPG_1,PPG_2,171083.0,171083.0,389.1761806976283,-45.901497804628775,-0.5683486419724343
62863.79647534927,4.918603448670183,PPG_1,PPG_2,171085.0,171085.0,391.3602713055152,-40.72750018772983,-0.5043092193186814
62863.806575151015,4.928703250414401,PPG_1,PPG_2,171077.0,171077.0,383.5443619134312,-35.29341325949236,-0.43705062832164776
62863.81667495276,4.938803052158619,PPG_1,PPG_2,171080.0,171080.0,386.7284525213181,-29.94738360923983,-0.3708819367911693
62863.8267747545,4.948902853902837,PPG_1,PPG_2,171091.0,171091.0,397.912543129205,-24.97919671471997,-0.3093898674245654
62863.83687455625,4.959002655647055,PPG_1,PPG_2,171105.0,171105.0,412.096633737121,-20.60837384675913,-0.2552914712305226
62863.846974357984,4.969102457383997,PPG_1,PPG_2,171081.0,171081.0,388.2807243450079,-16.979098249217696,-0.21037132802079161
62863.85707415973,4.979202259128215,PPG_1,PPG_2,171101.0,171101.0,408.4648149528948,-14.162901900262517,-0.17551480089800017
62863.86717396147,4.989302060872433,PPG_1,PPG_2,171079.0,171079.0,386.6489055608108,-12.168999452061085,-0.15083594113322615
62863.87727376322,4.999401862616651,PPG_1,PPG_2,171064.0,171064.0,371.8329961686977,-10.96005524940139,-0.13587263915835388
62863.887373564954,5.009501664353593,PPG_1,PPG_2,171052.0,171052.0,360.0170867766137,-10.469160038841437,-0.12979674809781766
62863.8974733667,5.019601466097811,PPG_1,PPG_2,171104.0,171104.0,412.2011773845006,-10.612302160812769,-0.131568441772074
62863.90757316844,5.029701267842029,PPG_1,PPG_2,171091.0,171091.0,399.3852679923875,-11.292240898713903,-0.13998415577876264
62863.91767297019,5.039801069586247,PPG_1,PPG_2,171071.0,171071.0,379.56935860030353,-12.395218018408064,-0.15363588567419464
62863.92777277193,5.049900871330465,PPG_1,PPG_2,171114.0,171114.0,422.75344920819043,-13.786019199322086,-0.17085006149077991
62863.93787257367,5.060000673067407,PPG_1,PPG_2,171070.0,171070.0,378.93753981607733,-15.306174949604646,-0.18966528016693862
62863.94797237541,5.070100474811625,PPG_1,PPG_2,171078.0,171078.0,387.12163042399334,-16.777926496238283,-0.20788139202372666
62863.95807217715,5.080200276555843,PPG_1,PPG_2,171094.0,171094.0,403.30572103188024,-18.015043001541187,-0.2231933872392385
62863.9681719789,5.090300078300061,PPG_1,PPG_2,171030.0,171030.0,339.48981163979624,-18.839897882848085,-0.23340275227634175
62863.978271780645,5.100399880044279,PPG_1,PPG_2,171046.0,171046.0,355.67390224768315,-19.10428345712105,-0.23667509617521065
62863.98837158238,5.110499681781221,PPG_1,PPG_2,171058.0,171058.0,367.85799285557005,-18.7089374421927,-0.23178183328274574
62863.998471384126,5.120599483525439,PPG_1,PPG_2,171071.0,171071.0,381.04208346348605,-17.615890249473562,-0.2182530077327656
62864.00857118587,5.130699285269657,PPG_1,PPG_2,171041.0,171041.0,351.22617407137295,-15.851378004357763,-0.19641334838046404
62864.018670987614,5.140799087013875,PPG_1,PPG_2,171047.0,171047.0,357.41026467925985,-13.501106305633213,-0.1673236475707478
62864.02877078935,5.150898888750817,PPG_1,PPG_2,171056.0,171056.0,366.59435528717586,-10.69908167025345,-0.1326425260864166
62864.038870591095,5.160998690495035,PPG_1,PPG_2,171095.0,171095.0,405.77844589506276,-7.609413340397547,-0.09440119110989499
62864.04897039284,5.171098492239253,PPG_1,PPG_2,171078.0,171078.0,388.96253650297876,-4.402715069846813,-0.05471135723750578
62864.059070194584,5.181198293983471,PPG_1,PPG_2,171091.0,171091.0,402.14662711086567,-1.2330852634336817,-0.015480325865195056
62864.06916999633,5.191298095727689,PPG_1,PPG_2,171065.0,171065.0,376.33071771875257,1.7775029967280545,0.02178222203378855
62864.079269798065,5.201397897464631,PPG_1,PPG_2,171058.0,171058.0,369.5148083266686,4.544427018561635,0.056028897429673874
62864.08936959981,5.211497699208849,PPG_1,PPG_2,171066.0,171066.0,377.6988989345555,7.017380520973384,0.08663705117655211
62864.09946940155,5.221597500953067,PPG_1,PPG_2,171088.0,171088.0,399.8829895424424,9.173757921994248,0.11332689025454977
62864.1095692033,5.231697302697285,PPG_1,PPG_2,171071.0,171071.0,383.0670801503584,11.011510305801348,0.13607305489428184
62864.11966900504,5.241797104441503,PPG_1,PPG_2,171045.0,171045.0,357.2511707582453,12.541293712578826,0.1550074366642598
62864.12976880678,5.251896906178445,PPG_1,PPG_2,171074.0,171074.0,386.4352613661613,13.77761153416515,0.17030954643956084
62864.13986860852,5.261996707922663,PPG_1,PPG_2,171045.0,171045.0,357.6193519740482,14.73138458900786,0.18211455299297347
62864.14996841027,5.272096509666881,PPG_1,PPG_2,171056.0,171056.0,368.8034425819351,15.407437539819991,0.19048217197137635
62864.16006821201,5.282196311411099,PPG_1,PPG_2,171087.0,171087.0,399.9875331898511,15.808743025355286,0.1954491962153626
62864.17016801375,5.292296113148041,PPG_1,PPG_2,171092.0,171092.0,405.171623797738,15.946358379518223,0.197152484172068
62864.18026781549,5.302395914892259,PPG_1,PPG_2,171085.0,171085.0,398.3557144056249,15.85011319518695,0.1959612416369636
62864.19036761724,5.312495716636477,PPG_1,PPG_2,171049.0,171049.0,362.5398050135409,15.572994171493594,0.192531293732517
62864.20046741898,5.322595518380695,PPG_1,PPG_2,171033.0,171033.0,346.7238956214278,15.185674830926835,0.18773737831370904
62864.210567220725,5.3326953201249125,PPG_1,PPG_2,171045.0,171045.0,358.9079862293438,14.764764667710242,0.18252770373762314
62864.22066702246,5.342795121861855,PPG_1,PPG_2,171047.0,171047.0,361.0920768372307,14.382481661807557,0.1777961238643757
62864.23076682421,5.3528949236060726,PPG_1,PPG_2,171085.0,171085.0,399.2761674451176,14.102977827437938,0.17433665876449256
62864.24086662595,5.3629947253502905,PPG_1,PPG_2,171061.0,171061.0,375.4602580530336,13.984146032245153,0.17286585801804458
62864.250966427695,5.3730945270945085,PPG_1,PPG_2,171037.0,171037.0,351.6443486609205,14.079206451999678,0.1740424365263957
62864.26106622944,5.3831943288387265,PPG_1,PPG_2,171028.0,171028.0,342.8284392688074,14.433834702340619,0.1784317289246701
62864.271166031176,5.3932941305756685,PPG_1,PPG_2,171055.0,171055.0,370.0125298767234,15.080308156815681,0.18643323759377795
62864.28126583292,5.4033939323198865,PPG_1,PPG_2,171065.0,171065.0,380.1966204846103,16.033103040617377,0.19822613716273457
62864.291365634665,5.4134937340641045,PPG_1,PPG_2,171032.0,171032.0,347.3807110925263,17.28727625471175,0.2137492460787652
62864.30146543641,5.4235935358083225,PPG_1,PPG_2,171051.0,171051.0,366.5648017004132,18.817252861323457,0.23268601911498585
62864.311565238146,5.4336933375452645,PPG_1,PPG_2,171043.0,171043.0,358.7488923083001,20.574424520833155,0.25443482282742014
62864.32166503989,5.4437931392894825,PPG_1,PPG_2,171052.0,171052.0,367.93298291621613,22.484424181405906,0.2780752039386223
62864.331764841634,5.4538929410337005,PPG_1,PPG_2,171055.0,171055.0,371.11707352410303,24.44496398365793,0.30234112872680813
62864.34186464338,5.4639927427779185,PPG_1,PPG_2,171017.0,171017.0,333.30116413198994,26.323981956132023,0.3255980443698012
62864.35196444512,5.474092544522136,PPG_1,PPG_2,171027.0,171027.0,343.48525473990594,27.958682886101375,0.3458310076446343
62864.36206424686,5.4841923462590785,PPG_1,PPG_2,171038.0,171038.0,354.66934534779284,29.158724955974744,0.36068412645240167
62864.37216404861,5.4942921480032965,PPG_1,PPG_2,171046.0,171046.0,362.85343595570885,29.71753332810727,0.3676005899251658
62864.38226385035,5.5043919497475144,PPG_1,PPG_2,171060.0,171060.0,377.03752656359575,29.43222464905958,0.3640692773044094
62864.39236365209,5.514491751491732,PPG_1,PPG_2,171039.0,171039.0,356.22161717148265,28.127968380174092,0.3479262821512681
62864.40246345384,5.52459155323595,PPG_1,PPG_2,171050.0,171050.0,367.40570777939865,25.68098446006299,0.3176395582117134
62864.41256325557,5.534691354972892,PPG_1,PPG_2,171022.0,171022.0,339.58979838728555,22.03611621988225,0.27252642228992435
62864.42266305732,5.54479115671711,PPG_1,PPG_2,171023.0,171023.0,340.77388899517246,17.21774481470553,0.21288864396721047
62864.43276285906,5.554890958461328,PPG_1,PPG_2,171054.0,171054.0,371.95797960308846,11.334576442268888,0.1400716977987136
62864.442862660806,5.564990760205546,PPG_1,PPG_2,171017.0,171017.0,335.14207021097536,4.578088202124737,0.056445527455590866
62864.45296246254,5.575090561942488,PPG_1,PPG_2,171007.0,171007.0,325.32616081889137,-2.787876776427459,-0.03472423709427537
62864.46306226429,5.585190363686706,PPG_1,PPG_2,170978.0,170978.0,296.51025142677827,-10.448616304900803,-0.12954247491137214
62864.47316206603,5.595290165430924,PPG_1,PPG_2,170940.0,170940.0,258.69434203466517,-18.068954627279993,-0.22386066033100843
62864.483261867776,5.605389967175142,PPG_1,PPG_2,170965.0,170965.0,283.8784326425812,-25.32529749092283,-0.3136736138676747
62864.49336166952,5.61548976891936,PPG_1,PPG_2,170969.0,170969.0,288.0625232504681,-31.931065853402256,-0.39543429940335023
62864.50346147126,5.625589570656302,PPG_1,PPG_2,170953.0,170953.0,272.246613858355,-37.6513535963661,-0.46623524513171366
62864.513561273,5.63568937240052,PPG_1,PPG_2,170945.0,170945.0,264.430704466271,-42.30845280036962,-0.5238769307968856
62864.523661074745,5.645789174144738,PPG_1,PPG_2,170961.0,170961.0,280.6147950741579,-45.78199887003316,-0.5668695839314628
62864.53376087649,5.655888975888956,PPG_1,PPG_2,170952.0,170952.0,271.7988856820739,-48.006311911564524,-0.5944002736472142
62864.54386067823,5.665988777633174,PPG_1,PPG_2,170924.0,170924.0,243.9829762899608,-48.96691944133455,-0.6062898716250714
62864.55396047997,5.676088579370116,PPG_1,PPG_2,170927.0,170927.0,247.1670668978477,-48.697585227601884,-0.6029562775986637
62864.564060281715,5.686188381114334,PPG_1,PPG_2,170953.0,170953.0,273.3511575057637,-47.276727535169904,-0.5853700873771414
62864.57416008346,5.696288182858552,PPG_1,PPG_2,170942.0,170942.0,262.5352481136506,-44.821064263175046,-0.5549759376664907
62864.5842598852,5.70638798460277,PPG_1,PPG_2,170959.0,170959.0,279.7193387215375,-41.47693460250345,-0.5135850927907145
62864.59435968694,5.716487786339712,PPG_1,PPG_2,170951.0,170951.0,271.9034293294535,-37.4125049850241,-0.4632789764388108
62864.604459488684,5.72658758808393,PPG_1,PPG_2,170942.0,170942.0,263.0875199373404,-32.813764313793676,-0.4063596039678899
62864.61455929043,5.736687389828148,PPG_1,PPG_2,170923.0,170923.0,244.2716105452564,-27.884545472979802,-0.34534984863504603
62864.62465909217,5.746787191572366,PPG_1,PPG_2,170949.0,170949.0,270.4557011531433,-22.847411939446513,-0.283004415335317
62864.63475889392,5.756886993316584,PPG_1,PPG_2,170946.0,170946.0,267.6397917610302,-17.94034412062896,-0.22226882685852314
62864.644858695654,5.766986795053526,PPG_1,PPG_2,170965.0,170965.0,286.8238823689462,-13.405842733153285,-0.1661445546075769
62864.6549584974,5.777086596797744,PPG_1,PPG_2,170969.0,170969.0,291.0079729768331,-9.472977763589979,-0.11746683562227984
62864.66505829914,5.787186398541962,PPG_1,PPG_2,170970.0,170970.0,292.1920635847491,-6.335785344751725,-0.07863728715090948
62864.67515810089,5.79728620028618,PPG_1,PPG_2,170978.0,170978.0,300.376154192636,-4.132098501311403,-0.051361891294006895
62864.68525790263,5.807386002030398,PPG_1,PPG_2,170962.0,170962.0,284.5602448005229,-2.9261144082574857,-0.03643522708439501
62864.69535770437,5.81748580376734,PPG_1,PPG_2,170994.0,170994.0,316.74433540843893,-2.6967318305911823,-0.033596121052996426
62864.70545750611,5.827585605511558,PPG_1,PPG_2,170994.0,170994.0,316.92842601632583,-3.333242239201546,-0.04147431545868746
62864.715557307856,5.837685407255776,PPG_1,PPG_2,170971.0,170971.0,294.11251662421273,-4.640995946668242,-0.05766059898652306
62864.7256571096,5.847785208999994,PPG_1,PPG_2,170963.0,170963.0,286.29660723212874,-6.359998238123692,-0.07893697412935981
62864.73575691134,5.857885010736936,PPG_1,PPG_2,170940.0,170940.0,263.48069784001564,-8.1962736466096,-0.10166485800171501
62864.74585671308,5.867984812481154,PPG_1,PPG_2,170926.0,170926.0,249.66478844793164,-9.86079286494244,-0.12226688715417511
62864.755956514826,5.878084614225372,PPG_1,PPG_2,170934.0,170934.0,257.84887905581854,-11.107564616741536,-0.1376983869495067
62864.76605631657,5.88818441596959,PPG_1,PPG_2,170915.0,170915.0,239.03296966370544,-11.76254784008594,-0.14580522243274557
62864.776156118314,5.898284217713808,PPG_1,PPG_2,170966.0,170966.0,290.21706027162145,-11.737737874107134,-0.14549814538807265
62864.78625592005,5.90838401945075,PPG_1,PPG_2,170948.0,170948.0,272.40115087950835,-11.029296588234025,-0.13672965063979178
62864.796355721795,5.918483821194968,PPG_1,PPG_2,170943.0,170943.0,267.58524148739525,-9.703352871319677,-0.12031822636212489
62864.80645552354,5.928583622939186,PPG_1,PPG_2,170985.0,170985.0,309.76933209531126,-7.875365696544432,-0.0976929273266696
62864.81655532528,5.938683424683404,PPG_1,PPG_2,170941.0,170941.0,265.95342270319816,-5.688171434763866,-0.07062166287564767
62864.82665512703,5.948783226427622,PPG_1,PPG_2,170945.0,170945.0,270.13751331111416,-3.29223212735992,-0.04096672653426936
62864.836754928765,5.958883028164564,PPG_1,PPG_2,170985.0,170985.0,310.32160391900106,-0.829605616295905,-0.010486391664133399
62864.84685473051,5.968982829908782,PPG_1,PPG_2,170968.0,170968.0,293.50569452688796,1.5784060807633415,0.019317966636979
62864.85695453225,5.979082631653,PPG_1,PPG_2,170947.0,170947.0,272.68978513480397,3.8389110111112177,0.04729660933535024
62864.867054334,5.989182433397218,PPG_1,PPG_2,170948.0,170948.0,273.87387574269087,5.888670072702333,0.07266681562513738
62864.877154135735,5.99928223513416,PPG_1,PPG_2,170938.0,170938.0,264.0579663505778,7.690529887126276,0.09496873200828931
62864.88725393748,6.009382036878378,PPG_1,PPG_2,170977.0,170977.0,303.2420569584938,9.229999026736664,0.1140229956925094
62864.89735373922,6.019481838622596,PPG_1,PPG_2,170961.0,170961.0,287.4261475663807,10.51547469250643,0.1299335402204916
62864.90745354097,6.029581640366814,PPG_1,PPG_2,170997.0,170997.0,323.6102381742967,11.580967721034403,0.14312132333149855
62864.91755334271,6.039681442111032,PPG_1,PPG_2,170947.0,170947.0,273.7943287821836,12.486829768340092,0.15433332743523678
62864.92765314445,6.049781243847974,PPG_1,PPG_2,170962.0,170962.0,288.9784193900705,13.314659650664323,0.1645795145510596
62864.93775294619,6.059881045592192,PPG_1,PPG_2,170983.0,170983.0,310.1625099979865,14.156278090837338,0.17499636492366089
62864.94785274794,6.06998084733641,PPG_1,PPG_2,170937.0,170937.0,264.3466006058734,15.09936712543932,0.18666913359478254
62864.95795254968,6.080080649080628,PPG_1,PPG_2,170954.0,170954.0,281.5306912137603,16.212372474647204,0.2004449845424162
62864.968052351425,6.090180450824846,PPG_1,PPG_2,170939.0,170939.0,266.7147818216763,17.531583671137966,0.21677307930336223
62864.97815215316,6.100280252561788,PPG_1,PPG_2,170978.0,170978.0,305.8988724295632,19.05449084613739,0.23562235281746052
62864.98825195491,6.110380054306006,PPG_1,PPG_2,170975.0,170975.0,303.0829630374792,20.741882323396908,0.256507475694523
62864.99835175665,6.120479856050224,PPG_1,PPG_2,170955.0,170955.0,283.2670536453661,22.52681234860407,0.2785998492816846
62865.008451558395,6.130579657794442,PPG_1,PPG_2,170997.0,170997.0,325.451144253253,24.326188122518193,0.3008710202853686
62865.01855136013,6.140679459531384,PPG_1,PPG_2,170972.0,170972.0,300.635234861169,26.05166122880316,0.3222274857715847
62865.02865116187,6.150779261275602,PPG_1,PPG_2,170940.0,170940.0,268.8193254690559,27.61801975878007,0.34161456387940625
62865.03875096362,6.16087906301982,PPG_1,PPG_2,170998.0,170998.0,327.0034160769428,28.948955251353624,0.35808777218847443
62865.04885076536,6.170978864764038,PPG_1,PPG_2,170966.0,170966.0,295.1875066848588,29.982050636809873,0.3708745643228178
62865.05895056711,6.181078666508256,PPG_1,PPG_2,170973.0,170973.0,302.3715972927457,30.674276592044,0.3794423592468721
62865.069050368846,6.191178468245198,PPG_1,PPG_2,170978.0,170978.0,307.5556879006617,31.007028195865857,0.38356088077967365
62865.07915017059,6.201278269989416,PPG_1,PPG_2,170973.0,170973.0,302.7397785085486,30.989553542414008,0.38334459410909694
62865.089249972334,6.211378071733634,PPG_1,PPG_2,170978.0,170978.0,307.9238691164355,30.660554351602066,0.37927251681158625
62865.09934977408,6.221477873477852,PPG_1,PPG_2,170964.0,170964.0,294.10795972435153,30.087757004044505,0.3721829094806164
62865.10944957582,6.23157767522207,PPG_1,PPG_2,171001.0,171001.0,331.29205033223843,29.365153780236266,0.3632391300885889
62865.11954937756,6.241677476959012,PPG_1,PPG_2,170968.0,170968.0,298.47614094012533,28.607316779451253,0.3538592564223518
62865.129649179304,6.25177727870323,PPG_1,PPG_2,170987.0,170987.0,317.66023154804134,27.939286105863793,0.3455909304935163
62865.13974898105,6.261877080447448,PPG_1,PPG_2,170973.0,170973.0,303.84432215592824,27.48058471973222,0.33991350771264767
62865.14984878279,6.271976882191666,PPG_1,PPG_2,170939.0,170939.0,270.02841276384424,27.323810687053946,0.33797308962914757
62865.15994858453,6.282076683928608,PPG_1,PPG_2,170958.0,170958.0,289.21250337173115,27.511167796076393,0.34029203949736664
62865.17004838627,6.292176485672826,PPG_1,PPG_2,170950.0,170950.0,281.39659397961805,28.014852371144848,0.3465262266337568
62865.18014818802,6.302276287417044,PPG_1,PPG_2,170967.0,170967.0,298.58068458753405,28.727166753831654,0.355342659340691
62865.19024798976,6.312376089161262,PPG_1,PPG_2,170962.0,170962.0,293.76477519542095,29.46294031014465,0.3644494501123542
62865.200347791506,6.32247589090548,PPG_1,PPG_2,170946.0,170946.0,277.94886580330785,29.973414784258384,0.3707676769501383
62865.21044759324,6.332575692642422,PPG_1,PPG_2,170977.0,170977.0,309.13295641122386,29.969876348207567,0.3707238811429946
62865.22054739499,6.34267549438664,PPG_1,PPG_2,170981.0,170981.0,313.31704701911076,29.155559758379024,0.36064495027923277
62865.23064719673,6.352775296130858,PPG_1,PPG_2,170970.0,170970.0,302.50113762702676,27.262887312151793,0.3372190309604483
62865.24074699848,6.362875097875076,PPG_1,PPG_2,170980.0,170980.0,312.68522823491367,24.090806730997993,0.29795766594458617
62865.25084680022,6.372974899619294,PPG_1,PPG_2,170960.0,170960.0,292.86931884280057,19.536979438902986,0.24159419378174946
62865.26094660196,6.383074701356236,PPG_1,PPG_2,170994.0,170994.0,327.0534094507166,13.621392735507957,0.16837600057920046
62865.2710464037,6.393174503100454,PPG_1,PPG_2,170978.0,170978.0,311.2375000586035,6.49853856940224,0.08021525868893269
62865.281146205445,6.403274304844672,PPG_1,PPG_2,170949.0,170949.0,282.4215906664904,-1.5457238333315715,-0.01934990505675943
62865.29124600719,6.41337410658889,PPG_1,PPG_2,170932.0,170932.0,265.6056812744064,-10.11579581446975,-0.12542310075763646
62865.301345808926,6.423473908325832,PPG_1,PPG_2,170909.0,170909.0,242.78977188229328,-18.745085299527265,-0.23222924128044467
62865.31144561067,6.43357371007005,PPG_1,PPG_2,170912.0,170912.0,245.97386249020929,-26.945254643631174,-0.3337240909773718
62865.321545412415,6.443673511814268,PPG_1,PPG_2,170879.0,170879.0,213.1579530980962,-34.257562376857145,-0.4242297309438291
62865.33164521416,6.453773313558486,PPG_1,PPG_2,170896.0,170896.0,230.3420437059831,-40.299186309370675,-0.4990079077380337
62865.3417450159,6.463873115302704,PPG_1,PPG_2,170865.0,170865.0,199.5261343138991,-44.799215657713596,-0.5547055138698173
62865.35184481764,6.473972917039646,PPG_1,PPG_2,170884.0,170884.0,218.710224921786,-47.620440587532954,-0.589624280568108
62865.361944619384,6.484072718783864,PPG_1,PPG_2,170869.0,170869.0,203.8943155296729,-48.76447633751177,-0.6037841999087372
62865.37204442113,6.494172520528082,PPG_1,PPG_2,170931.0,170931.0,266.0784061375889,-48.35973647125929,-0.5987746677676495
62865.38214422287,6.5042723222723,PPG_1,PPG_2,170892.0,170892.0,227.2624967454758,-46.63521432227825,-0.5774299724369729
62865.39224402462,6.514372124016518,PPG_1,PPG_2,170932.0,170932.0,267.4465873533918,-43.8868847506769,-0.5434134436212766
62865.402343826354,6.52447192575346,PPG_1,PPG_2,170915.0,170915.0,250.6306779612787,-40.44464100646304,-0.5008082245363344
62865.4124436281,6.534571727497678,PPG_1,PPG_2,170898.0,170898.0,233.8147685691656,-36.645288562677,-0.453783012123498
62865.42254342984,6.544671529241896,PPG_1,PPG_2,170891.0,170891.0,226.9988591770816,-32.813034746372004,-0.4063505739914712
62865.43264323159,6.554771330986114,PPG_1,PPG_2,170918.0,170918.0,254.1829497849685,-29.24461761819907,-0.3621836861039345
62865.44274303332,6.564871132723056,PPG_1,PPG_2,170957.0,170957.0,293.3670403928554,-26.19472014471481,-0.32443460158229653
62865.45284283507,6.574970934467274,PPG_1,PPG_2,170907.0,170907.0,243.55113100077142,-23.861096259593346,-0.29555095350985
62865.46294263681,6.585070736211492,PPG_1,PPG_2,170946.0,170946.0,282.7352216086583,-22.37351794432685,-0.2771389511249309
62865.47304243856,6.59517053795571,PPG_1,PPG_2,170915.0,170915.0,251.91931221657433,-21.790218780976858,-0.26991936108620596
62865.4831422403,6.605270339699928,PPG_1,PPG_2,170928.0,170928.0,265.1034028244612,-22.101742543725678,-0.27377514212564835
62865.49324204204,6.61537014143687,PPG_1,PPG_2,170924.0,170924.0,261.2874934323481,-23.239964131104593,-0.2878630986159475
62865.50334184378,6.625469943181088,PPG_1,PPG_2,170904.0,170904.0,241.47158404026413,-25.089899556803413,-0.31076005477641083
62865.513441645526,6.635569744925306,PPG_1,PPG_2,170922.0,170922.0,259.65567464815103,-27.501962661449664,-0.3406145580180542
62865.52354144727,6.645669546669524,PPG_1,PPG_2,170932.0,170932.0,269.83976525603794,-30.30252101863998,-0.3752775311351741
62865.53364124901,6.655769348406466,PPG_1,PPG_2,170930.0,170930.0,268.02385586395394,-33.30226487756125,-0.4124058560897565
62865.54374105075,6.665869150150684,PPG_1,PPG_2,170888.0,170888.0,226.20794647184084,-36.30439224628385,-0.4495636821386316
62865.553840852495,6.675968951894902,PPG_1,PPG_2,170931.0,170931.0,269.39203707975685,-39.11451120692869,-0.48434498842302043
62865.56394065424,6.68606875363912,PPG_1,PPG_2,170899.0,170899.0,237.57612768764375,-41.55140326904933,-0.5145068037702127
62865.574040455984,6.696168555383338,PPG_1,PPG_2,170933.0,170933.0,271.76021829553065,-43.45685699384642,-0.5380909190838538
62865.58414025772,6.70626835712028,PPG_1,PPG_2,170909.0,170909.0,247.94430890344665,-44.704767965481935,-0.5535365191911688
62865.594240059465,6.716368158864498,PPG_1,PPG_2,170912.0,170912.0,251.12839951133355,-45.211204411055355,-0.5598047666830914
62865.60433986121,6.726467960608716,PPG_1,PPG_2,170876.0,170876.0,215.31249011922046,-44.9460227176626,-0.5565225690864496
62865.61443966295,6.736567762352934,PPG_1,PPG_2,170893.0,170893.0,232.49658072713646,-43.943365118150055,-0.5441125104535534
62865.6245394647,6.746667564097152,PPG_1,PPG_2,170900.0,170900.0,239.68067133502336,-42.30544373829642,-0.5238396871388545
62865.634639266435,6.756767365834094,PPG_1,PPG_2,170918.0,170918.0,257.86476194293937,-40.19470895735431,-0.4977147743044835
62865.64473906818,6.766867167578312,PPG_1,PPG_2,170905.0,170905.0,245.04885255082627,-37.81381611936207,-0.46824607059896034
62865.65483886992,6.77696696932253,PPG_1,PPG_2,170967.0,170967.0,307.23294315871317,-35.37702671219864,-0.4380855258291202
62865.66493867167,6.787066771066748,PPG_1,PPG_2,170940.0,170940.0,280.4170337666292,-33.079053701179895,-0.40964313451086753
62865.67503847341,6.79716657280369,PPG_1,PPG_2,170919.0,170919.0,259.6011243745161,-31.068541273527206,-0.3847586902883668
62865.68513827515,6.807266374547908,PPG_1,PPG_2,170948.0,170948.0,288.785214982403,-29.431678924414836,-0.3644989747719827
62865.69523807689,6.817366176292126,PPG_1,PPG_2,170924.0,170924.0,264.969305590319,-28.18660455894394,-0.3490884838074483
62865.70533787864,6.827465978036344,PPG_1,PPG_2,170925.0,170925.0,266.1533961982059,-27.285825365799226,-0.33793939102876336
62865.71543768038,6.837565779780562,PPG_1,PPG_2,170936.0,170936.0,277.3374868061219,-26.623638202159952,-0.3297433911872324
62865.72553748212,6.847665581517504,PPG_1,PPG_2,170941.0,170941.0,282.5215774140088,-26.046092713596224,-0.3225950153311824
62865.73563728386,6.857765383261722,PPG_1,PPG_2,170954.0,170954.0,295.7056680218957,-25.3623084876292,-0.31413170508386984
62865.74573708561,6.86786518500594,PPG_1,PPG_2,170938.0,170938.0,279.8897586298117,-24.358138497174643,-0.3017029273386113
62865.75583688735,6.8779649867501575,PPG_1,PPG_2,170949.0,170949.0,291.0738492376986,-22.813994988843813,-0.28259080822107013
62865.765936689095,6.8880647884943755,PPG_1,PPG_2,170948.0,170948.0,290.2579398455855,-20.527218286175152,-0.25428699545960903
62865.77603649083,6.898164590231318,PPG_1,PPG_2,170916.0,170916.0,258.4420304535015,-17.337297177762775,-0.21480481529266404
62865.786136292576,6.9082643919755355,PPG_1,PPG_2,170927.0,170927.0,269.6261210613884,-13.15020665353937,-0.16298050464851335
62865.79623609432,6.9183641937197535,PPG_1,PPG_2,170962.0,170962.0,304.8102116693044,-7.956103527122103,-0.09869223278433417
62865.806335896064,6.9284639954639715,PPG_1,PPG_2,170956.0,170956.0,298.9943022771913,-1.8351697802523046,-0.022932425324981385
62865.8164356978,6.9385637972009135,PPG_1,PPG_2,170968.0,170968.0,311.1783928850782,5.049271752818487,0.06227744404786369
62865.826535499546,6.9486635989451315,PPG_1,PPG_2,170992.0,170992.0,335.3624834929942,12.467309563542516,0.1540917226379642
62865.83663530129,6.9587634006893495,PPG_1,PPG_2,170979.0,170979.0,322.5465741008811,20.144980114567293,0.2491195185162379
62865.846735103034,6.9688632024335675,PPG_1,PPG_2,171007.0,171007.0,350.730664708768,27.78984194313497,0.3437412354204321
62865.85683490478,6.9789630041777855,PPG_1,PPG_2,171016.0,171016.0,359.914755316684,35.117148179152544,0.4344325143319688
62865.866934706515,6.9890628059147275,PPG_1,PPG_2,171032.0,171032.0,376.0988459245709,41.87417020645151,0.5180652914468269
62865.87703450826,6.9991626076589455,PPG_1,PPG_2,171018.0,171018.0,362.28293653248693,47.85958457658225,0.5921477532080641
62865.88713431,7.0092624094031635,PPG_1,PPG_2,171021.0,171021.0,365.46702714037383,52.93521402898443,0.6549696568507322
62865.89723411175,7.0193622111473815,PPG_1,PPG_2,171031.0,171031.0,375.65111774826073,57.02995034898625,0.7056508842629385
62865.90733391349,7.029462012891599,PPG_1,PPG_2,171034.0,171034.0,378.83520835617674,60.138119357665516,0.7441212051954414
62865.91743371523,7.0395618146285415,PPG_1,PPG_2,171047.0,171047.0,392.01929896406364,62.31443285548719,0.7710577966346933
62865.92753351697,7.0496616163727595,PPG_1,PPG_2,171065.0,171065.0,410.20338957195054,63.665658945509044,0.7877821450180523
62865.93763331872,7.059761418116977,PPG_1,PPG_2,171016.0,171016.0,361.38748017986654,64.33740524655823,0.796096459881376
62865.94773312046,7.069861219861195,PPG_1,PPG_2,171030.0,171030.0,375.57157078775344,64.4951038101917,0.7980483210371346
62865.9578329222,7.0799610215981374,PPG_1,PPG_2,171035.0,171035.0,380.75566139566945,64.30185407426318,0.7956564371529148
62865.96793272394,7.090060823342355,PPG_1,PPG_2,171034.0,171034.0,379.93975200355635,63.89845699243243,0.7906635248762885
62865.97803252569,7.100160625086573,PPG_1,PPG_2,171052.0,171052.0,398.12384261144325,63.38929234874368,0.7843615100259079
62865.98813232743,7.110260426830791,PPG_1,PPG_2,171050.0,171050.0,396.30793321935926,62.83387800405991,0.77748705499118
62865.998232129175,7.120360228575009,PPG_1,PPG_2,171018.0,171018.0,364.49202382724616,62.24183649218766,0.7701592594615644
62866.00833193091,7.130460030311951,PPG_1,PPG_2,171026.0,171026.0,372.67611443513306,61.57001602779867,0.7618440266663408
62866.01843173266,7.140559832056169,PPG_1,PPG_2,171058.0,171058.0,404.86020504304906,60.72345829394276,0.751366041840423
62866.0285315344,7.150659633800387,PPG_1,PPG_2,171041.0,171041.0,388.04429565093596,59.5625583270745,0.7369973913033239
62866.038631336145,7.160759435544605,PPG_1,PPG_2,171012.0,171012.0,359.22838625885197,57.91571679591353,0.7166141618033111
62866.04873113789,7.170859237288823,PPG_1,PPG_2,171030.0,171030.0,377.41247686673887,55.595338144740126,0.687894452178029
62866.058830939626,7.180959039025765,PPG_1,PPG_2,171048.0,171048.0,395.5965674746258,52.417399586264025,0.6485605820097846
62866.06893074137,7.191058840769983,PPG_1,PPG_2,171020.0,171020.0,367.7806580825418,48.22550887697229,0.5966768586826047
62866.079030543115,7.201158642514201,PPG_1,PPG_2,171040.0,171040.0,387.9647486904287,42.91740408547979,0.5309775693898244
62866.08913034486,7.211258444258419,PPG_1,PPG_2,171025.0,171025.0,373.1488392983156,36.46989635088376,0.45117570177191746
62866.09923014659,7.221358245995361,PPG_1,PPG_2,171026.0,171026.0,374.3329299062316,28.958824905670895,0.3582099305292912
62866.10932994834,7.231458047739579,PPG_1,PPG_2,171034.0,171034.0,382.5170205141185,20.57111923830884,0.2543939127999641
62866.11942975008,7.241557849483797,PPG_1,PPG_2,171030.0,171030.0,378.7011111220345,11.605680296281767,0.14342719495501063
62866.12952955183,7.251657651228015,PPG_1,PPG_2,170992.0,170992.0,340.8852017299214,2.459443462749016,0.030222711759871564
62866.13962935357,7.261757452972233,PPG_1,PPG_2,170973.0,170973.0,322.0692923378083,-6.403425375808731,-0.07947447898165655
62866.14972915531,7.271857254709175,PPG_1,PPG_2,170970.0,170970.0,319.2533829457243,-14.496647156612068,-0.1796456210321741
62866.159828957054,7.281957056453393,PPG_1,PPG_2,170936.0,170936.0,285.4374735536112,-21.364025730167274,-0.26464429933825606
62866.1699287588,7.292056858197611,PPG_1,PPG_2,170945.0,170945.0,294.6215641614981,-26.630066780369138,-0.3298229587609893
62866.18002856054,7.302156659941829,PPG_1,PPG_2,170933.0,170933.0,282.8056547694141,-30.04142985244327,-0.3720459626689223
62866.19012836229,7.312256461686047,PPG_1,PPG_2,170933.0,170933.0,282.989745377301,-31.493462599704074,-0.39001801169059486
62866.20022816402,7.322356263422989,PPG_1,PPG_2,170936.0,170936.0,286.173835985217,-31.038346916642674,-0.3843849697485715
62866.21032796577,7.332456065167207,PPG_1,PPG_2,170955.0,170955.0,305.3579265931039,-28.873700783573536,-0.35759278720896875
62866.22042776751,7.342555866911425,PPG_1,PPG_2,170994.0,170994.0,344.5420172009908,-25.313185947854326,-0.31352370729968176
62866.230527569256,7.352655668655643,PPG_1,PPG_2,170982.0,170982.0,332.7261078089068,-20.744675470933608,-0.2569784989342837
62866.24062737099,7.362755470392585,PPG_1,PPG_2,170982.0,170982.0,332.9101984167937,-15.58495420768289,-0.19311577706644675
62866.25072717274,7.372855272136803,PPG_1,PPG_2,170992.0,170992.0,343.0942890246806,-10.239177670127914,-0.12695021835361114
62866.26082697448,7.382955073881021,PPG_1,PPG_2,171008.0,171008.0,359.2783796325966,-5.069134676036615,-0.0629597427191974
62866.270926776226,7.393054875625239,PPG_1,PPG_2,170978.0,170978.0,329.4624702404835,-0.3713187456557902,-0.0048140994099328295
62866.28102657797,7.403154677369457,PPG_1,PPG_2,171016.0,171016.0,367.64656084839953,3.635045305543844,0.04477332984237293
62866.29112637971,7.413254479106399,PPG_1,PPG_2,170995.0,170995.0,346.83065145628643,6.810747927135365,0.08407952545067728
62866.30122618145,7.423354280850617,PPG_1,PPG_2,170995.0,170995.0,347.01474206417333,9.091683447768117,0.1123110409377884
62866.311325983195,7.433454082594835,PPG_1,PPG_2,170986.0,170986.0,338.19883267208934,10.478304278544554,0.12947347587060767
62866.32142578494,7.443553884339053,PPG_1,PPG_2,171021.0,171021.0,373.38292327997624,11.022369732119733,0.13620746380655288
62866.33152558669,7.453653686083271,PPG_1,PPG_2,170984.0,170984.0,336.56701388786314,10.813925383804946,0.1336275136964256
62866.34162538842,7.463753487820213,PPG_1,PPG_2,171016.0,171016.0,368.75110449577915,9.969597557927388,0.12317712880968024
62866.351725190165,7.473853289564431,PPG_1,PPG_2,170994.0,170994.0,346.93519510366605,8.621889670601936,0.10649632580189705
62866.36182499191,7.483953091308649,PPG_1,PPG_2,171003.0,171003.0,356.11928571158205,6.90928932292275,0.08529918857404402
62866.37192479365,7.494052893052867,PPG_1,PPG_2,171011.0,171011.0,364.30337631946895,4.96719553300189,0.06126157312564096
62866.38202459539,7.504152694789809,PPG_1,PPG_2,170989.0,170989.0,342.48746692735585,2.919376198468153,0.03591537515786283
62866.392124397134,7.514252496534027,PPG_1,PPG_2,170980.0,170980.0,333.67155753527186,0.8696995237880745,0.010546188584474427
62866.40222419888,7.524352298278245,PPG_1,PPG_2,170976.0,170976.0,329.85564814315876,-1.1046863691674507,-0.013891111554130503
62866.41232400062,7.534452100022463,PPG_1,PPG_2,171022.0,171022.0,376.03973875104566,-2.9558414877714037,-0.036803164055033685
62866.42242380237,7.544551901766681,PPG_1,PPG_2,170977.0,170977.0,331.22382935896167,-4.661592583632146,-0.05791552696242111
62866.432523604104,7.554651703503623,PPG_1,PPG_2,170983.0,170983.0,337.40791996684857,-6.218110882186792,-0.07718081090145469
62866.44262340585,7.564751505247841,PPG_1,PPG_2,170989.0,170989.0,343.5920105747646,-7.631169717491004,-0.09467047338083222
62866.45272320759,7.574851306992059,PPG_1,PPG_2,171019.0,171019.0,373.7761011826515,-8.906623463096508,-0.11045697494847267
62866.46282300934,7.584951108736277,PPG_1,PPG_2,170967.0,170967.0,321.9601917905384,-10.040799312193247,-0.12449485666816262
62866.47292281108,7.595050910480495,PPG_1,PPG_2,170973.0,170973.0,328.1442823984544,-11.01314217082208,-0.13652970474863216
62866.48302261282,7.605150712217437,PPG_1,PPG_2,171015.0,171015.0,370.3283730063413,-11.78191874476052,-0.14604497931774862
62866.49312241456,7.615250513961655,PPG_1,PPG_2,171004.0,171004.0,359.5124636142282,-12.281812343014586,-0.1522322449082737
62866.503222216306,7.625350315705873,PPG_1,PPG_2,171008.0,171008.0,363.6965542221442,-12.424805074927038,-0.1540020895571092
62866.51332201805,7.635450117450091,PPG_1,PPG_2,170970.0,170970.0,325.8806448300311,-12.108769079814985,-0.1500904598728052
62866.52342181979,7.645549919187033,PPG_1,PPG_2,170972.0,170972.0,328.0647354379471,-11.23547037476795,-0.13928149763192163
62866.53352162153,7.655649720931251,PPG_1,PPG_2,170967.0,170967.0,323.248826045834,-9.733481623280554,-0.12069113489894966
62866.54362142328,7.665749522675469,PPG_1,PPG_2,170989.0,170989.0,345.4329166537209,-7.57819135750888,-0.09401475147340092
62866.55372122502,7.675849324419687,PPG_1,PPG_2,170982.0,170982.0,338.6170072616369,-4.803011830543187,-0.05966589632763539
62866.56382102677,7.685949126163905,PPG_1,PPG_2,171010.0,171010.0,366.8010978695238,-1.5003409663975225,-0.018788193820686135
62866.5739208285,7.696048927900847,PPG_1,PPG_2,170973.0,170973.0,329.9851884774107,2.185940040820262,0.02683751475534707
62866.584020630246,7.706148729645065,PPG_1,PPG_2,171022.0,171022.0,379.1692790853267,6.074156302342477,0.07496260931038759
62866.59412043199,7.716248531389283,PPG_1,PPG_2,171049.0,171049.0,406.3533696932136,9.962949509879534,0.12309484482149895
62866.604220233734,7.726348333133501,PPG_1,PPG_2,170994.0,170994.0,351.5374603011296,13.650668626941629,0.16873835312048555
62866.61432003548,7.736448134877719,PPG_1,PPG_2,171003.0,171003.0,360.7215509090165,16.951474551813934,0.20959297296617496
62866.624419837215,7.746547936614661,PPG_1,PPG_2,171030.0,171030.0,387.9056415169034,19.706734409709142,0.24369527907941654
62866.63451963896,7.756647738358879,PPG_1,PPG_2,171012.0,171012.0,370.0897321248194,21.794820629098478,0.26953986692851106
62866.6446194407,7.766747540103097,PPG_1,PPG_2,171053.0,171053.0,411.2738227327063,23.141731755294444,0.2862108082922613
62866.65471924245,7.776847341847315,PPG_1,PPG_2,171033.0,171033.0,391.4579133405932,23.730822934532036,0.2935020870678021
62866.664819044185,7.786947143584257,PPG_1,PPG_2,171016.0,171016.0,374.6420039485092,23.607861117361267,0.29198016835752794
62866.67491884593,7.797046945328475,PPG_1,PPG_2,171035.0,171035.0,393.82609455639613,22.879062536150848,0.2829597080041731
62866.68501864767,7.807146747072693,PPG_1,PPG_2,171046.0,171046.0,405.01018516431213,21.702664217711142,0.2683992318111289
62866.69511844942,7.817246548816911,PPG_1,PPG_2,171019.0,171019.0,378.19427577219903,20.275333064641195,0.2507329184986193
62866.70521825116,7.827346350561129,PPG_1,PPG_2,171018.0,171018.0,377.37836638008594,18.81344356731154,0.23263887085414306
62866.7153180529,7.837446152298071,PPG_1,PPG_2,171019.0,171019.0,378.56245698800194,17.529945195517797,0.21675279962012367
62866.72541785464,7.847545954042289,PPG_1,PPG_2,170987.0,170987.0,346.74654759588884,16.610230767905033,0.20536934231850454
62866.73551765639,7.857645755786507,PPG_1,PPG_2,171001.0,171001.0,360.93063820377574,16.192091076430078,0.2001939583285282
62866.74561745813,7.867745557530725,PPG_1,PPG_2,171032.0,171032.0,392.11472881169175,16.354796164786947,0.20220778606729065
62866.755717259875,7.877845359274943,PPG_1,PPG_2,171054.0,171054.0,414.29881941957865,17.119653802356027,0.21167455531400595
62866.76581706161,7.887945161011885,PPG_1,PPG_2,171039.0,171039.0,399.48291002749465,18.458508152601294,0.22824577663176152
62866.77591686336,7.898044962756103,PPG_1,PPG_2,171006.0,171006.0,366.66700063538156,20.302494547632218,0.2510691006575526
62866.7860166651,7.908144764500321,PPG_1,PPG_2,171037.0,171037.0,397.85109124326846,22.54622017304947,0.27884006312878595
62866.796116466845,7.918244566244539,PPG_1,PPG_2,171029.0,171029.0,390.03518185118446,25.048937482167894,0.3098166084248307
62866.80621626858,7.928344367981481,PPG_1,PPG_2,171008.0,171008.0,369.21927245907136,27.63689115897584,0.3418481383150144
62866.816316070326,7.938444169725699,PPG_1,PPG_2,171060.0,171060.0,421.40336306695826,30.109542828445765,0.3724525562257436
62866.82641587207,7.948543971469917,PPG_1,PPG_2,171052.0,171052.0,413.58745367487427,32.25040167544911,0.39895031959878596
62866.836515673815,7.958643773214135,PPG_1,PPG_2,171023.0,171023.0,384.77154428276117,33.84091714089102,0.41863639208480546
62866.84661547556,7.968743574958353,PPG_1,PPG_2,171071.0,171071.0,432.9556348906772,34.674375735671624,0.4289522467039168
62866.856715277296,7.978843376695295,PPG_1,PPG_2,171023.0,171023.0,385.1397254985641,34.56808021989376,0.42763660955733895
62866.86681507904,7.988943178439513,PPG_1,PPG_2,171066.0,171066.0,428.323816106451,33.3738720959071,0.4128556984609084
62866.876914880784,7.999042980183731,PPG_1,PPG_2,171012.0,171012.0,374.507906714367,30.9871927729486,0.38331537447569597
62866.88701468253,8.009142781927949,PPG_1,PPG_2,171062.0,171062.0,424.6919973222539,27.354987203999347,0.33835896652615605
62866.89711448427,8.019242583672167,PPG_1,PPG_2,171031.0,171031.0,393.8760879301408,22.48299148235627,0.2780574711859678
62866.90721428601,8.029342385409109,PPG_1,PPG_2,171034.0,171034.0,397.0601785380568,16.44198174701778,0.20328689641159348
62866.917314087754,8.039442187153327,PPG_1,PPG_2,171040.0,171040.0,403.2442691459437,9.371295292930137,0.11577184290508007
62866.9274138895,8.049541988897545,PPG_1,PPG_2,171019.0,171019.0,382.4283597538597,1.4778003173623981,0.01807275249486311
62866.93751369124,8.059641790641763,PPG_1,PPG_2,171000.0,171000.0,363.6124503617466,-6.970853399808423,-0.08649762930855585
62866.94761349298,8.069741592378705,PPG_1,PPG_2,171026.0,171026.0,389.7965409696335,-15.658739425074588,-0.1940290288829364
62866.95771329472,8.079841394122923,PPG_1,PPG_2,170993.0,170993.0,356.9806315775495,-24.23895328143904,-0.30022775224776044
62866.96781309647,8.08994119586714,PPG_1,PPG_2,170992.0,170992.0,356.1647221854364,-32.355151525998096,-0.4006832777832521
62866.97791289821,8.100040997611359,PPG_1,PPG_2,171003.0,171003.0,367.3488127933233,-39.66746934469104,-0.49118904257919904
62866.98801269995,8.110140799355577,PPG_1,PPG_2,170952.0,170952.0,316.5329034012393,-45.88236426816115,-0.5681118230329146
62866.99811250169,8.120240601092519,PPG_1,PPG_2,170915.0,170915.0,279.7169940091262,-50.784078451277836,-0.6287811486768339
62867.00821230344,8.130340402836737,PPG_1,PPG_2,170924.0,170924.0,288.9010846170422,-54.2613764434348,-0.6718202399754983
62867.01831210518,8.140440204580955,PPG_1,PPG_2,170991.0,170991.0,356.0851752249291,-56.3194217996577,-0.697293007101886
62867.028411906926,8.150540006325173,PPG_1,PPG_2,170957.0,170957.0,322.269265832816,-57.07016181285471,-0.7065850401811402
62867.03851170867,8.16063980806939,PPG_1,PPG_2,170987.0,170987.0,352.453356440732,-56.70466459503811,-0.7020612207781162
62867.04861151041,8.170739609806333,PPG_1,PPG_2,171005.0,171005.0,370.6374470486189,-55.45747443178482,-0.6866245422351425
62867.05871131215,8.18083941155055,PPG_1,PPG_2,170980.0,170980.0,345.8215376565058,-53.572586141274954,-0.6632949686967192
62867.068811113895,8.190939213294769,PPG_1,PPG_2,170967.0,170967.0,333.00562826442183,-51.27751068432952,-0.6348884408835747
62867.07891091564,8.201039015038987,PPG_1,PPG_2,170993.0,170993.0,359.18971887230873,-48.767710242548226,-0.6038242264852426
62867.08901071738,8.211138816775929,PPG_1,PPG_2,171012.0,171012.0,378.37380948022474,-46.19961664032014,-0.5720385080167342
62867.09911051912,8.221238618520147,PPG_1,PPG_2,170963.0,170963.0,329.55790008811164,-43.690269524938174,-0.540979904514084
62867.109210320865,8.231338420264365,PPG_1,PPG_2,171000.0,171000.0,366.74199069599854,-41.32344129911767,-0.5116852808352669
62867.11931012261,8.241438222008583,PPG_1,PPG_2,171002.0,171002.0,368.92608130391454,-39.16114492103811,-0.48492218160107936
62867.12940992435,8.2515380237528,PPG_1,PPG_2,170946.0,170946.0,313.11017191180144,-37.257408806614606,-0.46135932543458397
62867.13950972609,8.261637825489743,PPG_1,PPG_2,170977.0,170977.0,344.29426251968835,-35.67036676159393,-0.44171624404652765
62867.149609527834,8.27173762723396,PPG_1,PPG_2,171003.0,171003.0,370.47835312760435,-34.46734741631205,-0.42682627500952564
62867.15970932958,8.281837428978179,PPG_1,PPG_2,171023.0,171023.0,390.66244373549125,-33.718476726664505,-0.41755737885644045
62867.16980913132,8.291937230722397,PPG_1,PPG_2,171008.0,171008.0,375.84653434340726,-33.480448761242585,-0.41461126743356674
62867.17990893307,8.302037032466615,PPG_1,PPG_2,171030.0,171030.0,398.03062495129416,-33.77784333503289,-0.4182921691687525
62867.1900087348,8.312136834203557,PPG_1,PPG_2,171011.0,171011.0,379.21471555918106,-34.58910447590787,-0.4283332822364072
62867.20010853655,8.322236635947775,PPG_1,PPG_2,171014.0,171014.0,382.39880616709706,-35.84076273204275,-0.44382526310259135
62867.21020833829,8.332336437691993,PPG_1,PPG_2,170992.0,170992.0,360.58289677498396,-37.410365337585674,-0.4632524936692417
62867.22030814004,8.34243623943621,PPG_1,PPG_2,171038.0,171038.0,406.76698738287087,-39.13631739119334,-0.48461488716553786
62867.23040794177,8.352536041173153,PPG_1,PPG_2,170996.0,170996.0,364.95107799078687,-40.83231924466109,-0.5056065820903737
62867.24050774352,8.36263584291737,PPG_1,PPG_2,171015.0,171015.0,384.1351685986738,-42.30554558555122,-0.5238409477191407
62867.25060754526,8.372735644661589,PPG_1,PPG_2,170963.0,170963.0,332.3192592065898,-43.37803374839649,-0.5371153107623845
62867.260707347006,8.382835446405807,PPG_1,PPG_2,170975.0,170975.0,344.5033498144767,-43.907750293460346,-0.5436716998888955
62867.27080714875,8.392935248150025,PPG_1,PPG_2,171022.0,171022.0,391.6874404223636,-43.80246783067129,-0.5423686014664001
62867.28090695049,8.403035049886967,PPG_1,PPG_2,171016.0,171016.0,385.8715310302796,-43.021089350911296,-0.5326973510285445
62867.29100675223,8.413134851631185,PPG_1,PPG_2,171047.0,171047.0,417.0556216381665,-41.56395920855864,-0.5146622107063168
62867.301106553976,8.423234653375403,PPG_1,PPG_2,171010.0,171010.0,380.2397122460534,-39.4597239624038,-0.48861774368698346
62867.31120635572,8.43333445511962,PPG_1,PPG_2,171032.0,171032.0,402.4238028539694,-36.75594542458886,-0.45515263037116904
62867.321306157464,8.443434256863839,PPG_1,PPG_2,171023.0,171023.0,393.6078934618563,-33.51580704047138,-0.41504890269270306
62867.3314059592,8.45353405860078,PPG_1,PPG_2,171016.0,171016.0,386.7919840697723,-29.8190810606099,-0.3692939149659505
62867.341505760945,8.463633860344999,PPG_1,PPG_2,171018.0,171018.0,388.9760746776592,-25.763892465327455,-0.31910217627133197
62867.35160556269,8.473733662089217,PPG_1,PPG_2,171041.0,171041.0,412.1601652855461,-21.465434295813132,-0.2658994498962879
62867.361705364434,8.483833463833435,PPG_1,PPG_2,171079.0,171079.0,450.3442558934621,-17.048901148102637,-0.21123529002370206
62867.37180516617,8.493933265570377,PPG_1,PPG_2,171045.0,171045.0,416.528346501349,-12.637703795045981,-0.1566371721624065
62867.381904967915,8.504033067314595,PPG_1,PPG_2,171084.0,171084.0,455.7124371092359,-8.341707199089901,-0.10346491308966167
62867.39200476966,8.514132869058813,PPG_1,PPG_2,171056.0,171056.0,427.8965277171519,-4.249823508364842,-0.05281899314094005
62867.4021045714,8.52423267080303,PPG_1,PPG_2,171083.0,171083.0,455.0806183250388,-0.42810377066235367,-0.005516937038794897
62867.41220437315,8.534332472547248,PPG_1,PPG_2,171066.0,171066.0,438.2647089329548,3.0777983591047384,0.037876192393184176
62867.422304174885,8.54443227428419,PPG_1,PPG_2,171086.0,171086.0,458.4487995408417,6.237620853530964,0.07698583704599286
62867.43240397663,8.554532076028408,PPG_1,PPG_2,171076.0,171076.0,448.6328901487286,9.030830634262543,0.1115578556191432
62867.44250377837,8.564631877772626,PPG_1,PPG_2,171092.0,171092.0,464.8169807566446,11.44189826580429,0.14140003772583448
62867.45260358012,8.574731679516844,PPG_1,PPG_2,171090.0,171090.0,463.0010713645315,13.457582447939675,0.16634849360734658
62867.46270338186,8.584831481261062,PPG_1,PPG_2,171066.0,171066.0,439.1851619724184,15.06692410462856,0.1862675809703517
62867.4728031836,8.594931282998004,PPG_1,PPG_2,171108.0,171108.0,481.36925258033443,16.26505871258386,0.20109709080706575
62867.48290298534,8.605031084742222,PPG_1,PPG_2,171124.0,171124.0,497.55334318822133,17.06215708090138,0.21096290890071553
62867.49300278709,8.61513088648644,PPG_1,PPG_2,171118.0,171118.0,491.73743379613734,17.496259165652656,0.21633586206742458
62867.50310258883,8.625230688230658,PPG_1,PPG_2,171115.0,171115.0,488.92152440402424,17.644860631819387,0.2181751269460432
62867.51320239057,8.6353304899676,PPG_1,PPG_2,171144.0,171144.0,518.1056150119111,17.629590660725228,0.21798612799296763
62867.52330219231,8.645430291711818,PPG_1,PPG_2,171105.0,171105.0,479.28970561982715,17.611035958077757,0.2177564733751968
62867.53340199406,8.655530093456036,PPG_1,PPG_2,171100.0,171100.0,474.47379622771405,17.773406501020713,0.21976616039014277
62867.5435017958,8.665629895200254,PPG_1,PPG_2,171099.0,171099.0,473.65788683563005,18.301743094151238,0.22630546962376555
62867.553601597545,8.675729696944472,PPG_1,PPG_2,171111.0,171111.0,485.84197744351695,19.357770940955135,0.2393761006180141
62867.56370139928,8.685829498681414,PPG_1,PPG_2,171128.0,171128.0,503.02606805140385,21.060705510868114,0.2604536029187799
62867.573801201026,8.695929300425632,PPG_1,PPG_2,171138.0,171138.0,513.2101586593199,23.475432713080114,0.29034108013579707
62867.58390100277,8.70602910216985,PPG_1,PPG_2,171125.0,171125.0,500.39424926720676,26.60626320995241,0.32909188604873685
62867.594000804515,8.716128903914068,PPG_1,PPG_2,171137.0,171137.0,512.5783398750937,30.39334740718473,0.37596525234867456
62867.60410060626,8.726228705658286,PPG_1,PPG_2,171122.0,171122.0,497.76243048300967,34.71094433570027,0.42940486230339864
62867.614200408,8.736328507395228,PPG_1,PPG_2,171153.0,171153.0,528.9465210908966,39.36941102652449,0.48706347357870194
62867.62430020974,8.746428309139446,PPG_1,PPG_2,171198.0,171198.0,574.1306116988126,44.122959614844305,0.5458989291959032
62867.63440001149,8.756528110883664,PPG_1,PPG_2,171125.0,171125.0,501.3147023066995,48.6821864784255,0.6023292327464127
62867.64449981323,8.766627912627882,PPG_1,PPG_2,171163.0,171163.0,539.4987929145864,52.728085729953946,0.6524059956998567
62867.654599614965,8.776727714364824,PPG_1,PPG_2,171182.0,171182.0,558.6828835225024,55.92682921273941,0.6919973718508591
62867.66469941671,8.786827516109042,PPG_1,PPG_2,171123.0,171123.0,499.8669741303893,57.9482525995893,0.7170168628165792
62867.674799218454,8.79692731785326,PPG_1,PPG_2,171203.0,171203.0,580.0510647382762,58.490797098797884,0.7237320256492423
62867.6848990202,8.807027119597478,PPG_1,PPG_2,171217.0,171217.0,594.2351553461922,57.313127555397244,0.7091558152949964
62867.69499882194,8.817126921341696,PPG_1,PPG_2,171189.0,171189.0,566.4192459540791,54.26847601908766,0.6714716606037949
62867.70509862368,8.827226723078638,PPG_1,PPG_2,171185.0,171185.0,562.6033365619951,49.33328346045583,0.6103879675793471
62867.71519842542,8.837326524822856,PPG_1,PPG_2,171209.0,171209.0,586.787427169882,42.6225999866786,0.5273287303912276
62867.72529822717,8.847426326567074,PPG_1,PPG_2,171158.0,171158.0,535.9715177777689,34.389829903059876,0.4254303759594325
62867.73539802891,8.857526128311292,PPG_1,PPG_2,171171.0,171171.0,549.1556083856849,25.011461119340243,0.3093527572953275
62867.745497830656,8.86762593005551,PPG_1,PPG_2,171145.0,171145.0,523.3396989935718,14.95877452038187,0.18492899571225632
62867.75559763239,8.877725731792452,PPG_1,PPG_2,171133.0,171133.0,511.5237896014587,4.760449096618621,0.05870263835178987
62867.76569743414,8.88782553353667,PPG_1,PPG_2,171150.0,171150.0,528.7078802093747,-5.039099097957196,-0.06258798741088503
62867.77579723588,8.897925335280888,PPG_1,PPG_2,171140.0,171140.0,518.8919708172616,-13.92199688769108,-0.1725330797875996
62867.785897037626,8.908025137025106,PPG_1,PPG_2,171113.0,171113.0,492.0760614251776,-21.43852244900015,-0.26556635752554136
62867.79599683936,8.918124938762048,PPG_1,PPG_2,171064.0,171064.0,443.2601520330645,-27.24735081213338,-0.3374631851264695
62867.80609664111,8.928224740506266,PPG_1,PPG_2,171071.0,171071.0,450.4442426409514,-31.149801563803255,-0.38576446231596845
62867.81619644285,8.938324542250484,PPG_1,PPG_2,171114.0,171114.0,493.6283332488674,-33.108406687002365,-0.4100064412621299
62867.826296244595,8.948424343994702,PPG_1,PPG_2,171140.0,171140.0,519.8124238567543,-33.24184093051813,-0.41165797892211653
62867.83639604634,8.95852414573892,PPG_1,PPG_2,171099.0,171099.0,478.9965144646412,-31.797582629770027,-0.3937821555083762
62867.84649584808,8.968623947475862,PPG_1,PPG_2,171162.0,171162.0,542.1806050725572,-29.111364586499764,-0.36053439133251547
62867.85659564982,8.97872374922008,PPG_1,PPG_2,171158.0,171158.0,538.3646956804441,-25.56272041913347,-0.31661223664510185
62867.866695451565,8.988823550964298,PPG_1,PPG_2,171141.0,171141.0,521.5487862883601,-21.533639473251817,-0.2667436366370982
62867.87679525331,8.998923352708516,PPG_1,PPG_2,171141.0,171141.0,521.732876896247,-17.375926707061957,-0.21528293935395584
62867.88689505505,9.009023154452734,PPG_1,PPG_2,171158.0,171158.0,538.9169675041339,-13.389436828738434,-0.16594149602026556
62867.89699485679,9.019122956189676,PPG_1,PPG_2,171173.0,171173.0,554.1010581120499,-9.809349882888398,-0.12163016887282756
62867.907094658534,9.029222757933894,PPG_1,PPG_2,171132.0,171132.0,513.2851487199368,-6.800397626326122,-0.08438787006047412
62867.91719446028,9.039322559678112,PPG_1,PPG_2,171187.0,171187.0,568.4692393278237,-4.457286213848886,-0.05538679329569672
62867.92729426202,9.04942236142233,PPG_1,PPG_2,171172.0,171172.0,553.6533299357397,-2.8102242244992275,-0.035000835148288105
62867.93739406376,9.059522163159272,PPG_1,PPG_2,171152.0,171152.0,533.8374205436266,-1.8344083916592548,-0.02292300149267137
62867.947493865504,9.06962196490349,PPG_1,PPG_2,171148.0,171148.0,530.0215111515427,-1.462705129143043,-0.018322368849875266
62867.95759366725,9.079721766647708,PPG_1,PPG_2,171201.0,171201.0,583.2056017594296,-1.5990769418231159,-0.02001026528835717
62867.96769346899,9.089821568391926,PPG_1,PPG_2,171171.0,171171.0,553.3896923673165,-2.1295210564787515,-0.026575659663816437
62867.97779327074,9.099921370136144,PPG_1,PPG_2,171181.0,171181.0,563.5737829752325,-2.930614523017476,-0.036490925747680855
62867.98789307247,9.110021171873086,PPG_1,PPG_2,171169.0,171169.0,551.7578735831194,-3.878443299148118,-0.04822235898216296
62867.99799287422,9.120120973617304,PPG_1,PPG_2,171168.0,171168.0,550.9419641910063,-4.858828353881514,-0.0603567466514646
62868.00809267596,9.130220775361522,PPG_1,PPG_2,171155.0,171155.0,538.1260547989223,-5.776635060615033,-0.0717165917768252
62868.018192477706,9.14032057710574,PPG_1,PPG_2,171195.0,171195.0,578.3101454068092,-6.56089367607422,-0.08142349012969678
62868.02829227945,9.150420378849958,PPG_1,PPG_2,171194.0,171194.0,577.4942360147252,-7.16398922783066,-0.08888810333581518
62868.03839208119,9.1605201805869,PPG_1,PPG_2,171153.0,171153.0,536.6783266226121,-7.556505789647758,-0.09374634562002186
62868.04849188293,9.170619982331118,PPG_1,PPG_2,171224.0,171224.0,607.862417230499,-7.721081722028498,-0.09578332910411602
62868.05859168467,9.180719784075336,PPG_1,PPG_2,171201.0,171201.0,585.046507838415,-7.6476291430214145,-0.09487419440782636
62868.06869148642,9.190819585819554,PPG_1,PPG_2,171168.0,171168.0,552.2305984463019,-7.332042674036524,-0.09096812858260826
62868.07879128816,9.200919387556496,PPG_1,PPG_2,171167.0,171167.0,551.4146890541888,-6.780267304632406,-0.08413871374565685
62868.0888910899,9.211019189300714,PPG_1,PPG_2,171182.0,171182.0,566.5987796621048,-6.015409110427568,-0.07467193760936887
62868.098990891645,9.221118991044932,PPG_1,PPG_2,171194.0,171194.0,578.7828702699917,-5.081679252740001,-0.06311500901597664
62868.10909069339,9.23121879278915,PPG_1,PPG_2,171200.0,171200.0,584.9669608779077,-4.041258026379341,-0.050237543739372996
62868.119190495134,9.241318594533368,PPG_1,PPG_2,171205.0,171205.0,590.1510514857946,-2.9654444252582546,-0.036922021197609366
62868.12929029687,9.25141839627031,PPG_1,PPG_2,171191.0,171191.0,576.3351420936815,-1.92388197123818,-0.02403043075786558
62868.139390098615,9.261518198014528,PPG_1,PPG_2,171216.0,171216.0,601.5192327015975,-0.9745892598933169,-0.012280878155563314
62868.14948990036,9.271617999758746,PPG_1,PPG_2,171198.0,171198.0,583.7033233094844,-0.15564954329814698,-0.0021447260886020892
62868.1595897021,9.281717801502964,PPG_1,PPG_2,171216.0,171216.0,601.8874139173713,0.5212712913631791,0.006233634831476878
62868.16968950385,9.291817603247182,PPG_1,PPG_2,171235.0,171235.0,621.0715045252873,1.0749508686043872,0.01308661836318411
62868.179789305585,9.301917404984124,PPG_1,PPG_2,171222.0,171222.0,608.2555951331742,1.554495800393354,0.019022025149611037
62868.18988910733,9.312017206728342,PPG_1,PPG_2,171226.0,171226.0,612.4396857410902,2.032382610535687,0.024936909090686566
62868.19998890907,9.32211700847256,PPG_1,PPG_2,171143.0,171143.0,529.6237763489771,2.589347618368627,0.031830556939202975
62868.21008871082,9.332216810216778,PPG_1,PPG_2,171199.0,171199.0,585.807866956864,3.295355751269712,0.04056893615147206
62868.220188512554,9.34231661195372,PPG_1,PPG_2,171227.0,171227.0,613.99195756478,4.196364390461124,0.05172086882175502
62868.2302883143,9.352416413697938,PPG_1,PPG_2,171226.0,171226.0,613.1760481726669,5.314418554811444,0.06555920978789023
62868.24038811604,9.362516215442156,PPG_1,PPG_2,171250.0,171250.0,637.3601387805538,6.659285147899571,0.082204845627843
62868.25048791779,9.372616017186374,PPG_1,PPG_2,171245.0,171245.0,632.5442293884698,8.243022438206829,0.10180702352124589
62868.26058771953,9.382715818930592,PPG_1,PPG_2,171221.0,171221.0,608.7283199963567,10.08944936712345,0.12466055443783577
62868.27068752127,9.392815620667534,PPG_1,PPG_2,171240.0,171240.0,627.9124106042727,12.23504635156678,0.15121696252016822
62868.28078732301,9.402915422411752,PPG_1,PPG_2,171231.0,171231.0,619.0965012121596,14.722521947096354,0.18200485861094554
62868.29088712476,9.41301522415597,PPG_1,PPG_2,171229.0,171229.0,617.2805918200465,17.59069474905569,0.21750470687310217
62868.3009869265,9.423115025900188,PPG_1,PPG_2,171259.0,171259.0,647.4646824279625,20.864000313360464,0.25801895021615023
62868.311086728245,9.433214827644406,PPG_1,PPG_2,171248.0,171248.0,636.6487730358494,24.543385098858625,0.3035593031174969
62868.32118652998,9.443314629381348,PPG_1,PPG_2,171256.0,171256.0,644.8328636437363,28.59860369722133,0.3537514131651929
62868.331286331726,9.453414431125566,PPG_1,PPG_2,171231.0,171231.0,620.0169542516524,32.9613242752301,0.4077495259789323
62868.34138613347,9.463514232869784,PPG_1,PPG_2,171270.0,171270.0,659.2010448595393,37.520184625918276,0.4641752931388592
62868.351485935214,9.473614034614002,PPG_1,PPG_2,171265.0,171265.0,654.3851354674553,42.1207413832693,0.5211171436075034
62868.36158573695,9.483713836350944,PPG_1,PPG_2,171272.0,171272.0,661.5692260753422,46.57210780411974,0.5762124406521931
62868.371685538696,9.493813638095162,PPG_1,PPG_2,171298.0,171298.0,687.7533166832291,50.659257604232394,0.6267997684553107
62868.38178534044,9.50391343983938,PPG_1,PPG_2,171290.0,171290.0,679.9374072911451,54.15825431312546,0.6701074283531505
62868.391885142184,9.514013241583598,PPG_1,PPG_2,171284.0,171284.0,674.121497899032,56.8512932656299,0.7034396160486325
62868.40198494393,9.524113043327816,PPG_1,PPG_2,171282.0,171282.0,672.3055885069189,58.5394317058925,0.7243339842100964
62868.412084745665,9.534212845064758,PPG_1,PPG_2,171297.0,171297.0,687.4896791148349,59.05329057558339,0.7306941002706518
62868.42218454741,9.544312646808976,PPG_1,PPG_2,171291.0,171291.0,681.6737697227218,58.26344823558387,0.7209180912373555
62868.43228434915,9.554412448553194,PPG_1,PPG_2,171292.0,171292.0,682.8578603306378,56.09112757233994,0.6940309197708294
62868.4423841509,9.564512250297412,PPG_1,PPG_2,171293.0,171293.0,684.0419509385247,52.518130199615136,0.6498073414403446
62868.45248395264,9.57461205204163,PPG_1,PPG_2,171312.0,171312.0,703.2260415464116,47.59437289129203,0.5888651843967562
62868.46258375438,9.584711853778572,PPG_1,PPG_2,171265.0,171265.0,656.4101321543276,41.440925816989896,0.5127029541163107
62868.47268355612,9.59481165552279,PPG_1,PPG_2,171293.0,171293.0,684.5942227622145,34.24635314101253,0.4236545403897113
62868.48278335787,9.604911457267008,PPG_1,PPG_2,171251.0,171251.0,642.7783133701014,26.25575121922977,0.3247535412752909
62868.49288315961,9.615011259011226,PPG_1,PPG_2,171248.0,171248.0,639.9624039780174,17.754199550233693,0.21952843278947237
62868.50298296135,9.625111060748168,PPG_1,PPG_2,171248.0,171248.0,640.1464945859043,9.047753100196779,0.11176730777365654
62868.51308276309,9.635210862492386,PPG_1,PPG_2,171226.0,171226.0,618.3305851938203,0.44539529748131623,0.00529450512921264
62868.52318256484,9.645310664236604,PPG_1,PPG_2,171254.0,171254.0,646.5146758017072,-7.755683655910421,-0.09621160295203282
62868.53328236658,9.655410465980822,PPG_1,PPG_2,171237.0,171237.0,629.6987664095941,-15.28143526000172,-0.18935907294457158
62868.543382168325,9.66551026772504,PPG_1,PPG_2,171201.0,171201.0,593.8828570175101,-21.891058117542602,-0.271167466201942
62868.55348197006,9.675610069461982,PPG_1,PPG_2,171207.0,171207.0,600.066947625397,-27.387656716297325,-0.3391997744647068
62868.56358177181,9.6857098712062,PPG_1,PPG_2,171212.0,171212.0,605.2510382332839,-31.628059338755367,-0.3916839377497353
62868.57368157355,9.695809672950418,PPG_1,PPG_2,171224.0,171224.0,617.4351288411999,-34.52862497712301,-0.427584717495689
62868.583781375295,9.705909474694636,PPG_1,PPG_2,171205.0,171205.0,598.6192194490868,-36.06637738306108,-0.4466177328838398
62868.59388117704,9.716009276438854,PPG_1,PPG_2,171209.0,171209.0,602.8033100570028,-36.277814961852954,-0.4492347307017195
62868.603980978776,9.726109078175796,PPG_1,PPG_2,171194.0,171194.0,587.9874006648897,-35.25720260792321,-0.436602443109341
62868.61408078052,9.736208879920014,PPG_1,PPG_2,171203.0,171203.0,597.1714912727766,-33.15340449806729,-0.41056338659814406
62868.624180582265,9.746308681664232,PPG_1,PPG_2,171212.0,171212.0,606.3555818806926,-30.162698923989968,-0.37354692998716044
62868.63428038401,9.75640848340845,PPG_1,PPG_2,171238.0,171238.0,632.5396724885795,-26.515974179454847,-0.32841081580449616
62868.644380185746,9.766508285145392,PPG_1,PPG_2,171219.0,171219.0,613.7237630964664,-22.461578974868225,-0.27822889703749676
62868.65447998749,9.77660808688961,PPG_1,PPG_2,171224.0,171224.0,618.9078537043824,-18.24730440006847,-0.22606812491168357
