timestamp,time_from_segment_start_sec,selected_channel_name,backup_channel_name,selected_channel_raw,selected_channel_clipped,selected_channel_detrended,selected_channel_filtered,selected_channel_filtered_z
63102.99008002064,0.0,PPG_1,PPG_2,166525.0,166525.0,-913.5259265202039,10.269593755455428,0.09500734058854697
63103.000179822375,0.010099801736942,PPG_1,PPG_2,166527.0,166527.0,-911.4421148646506,14.075903580967603,0.13028549505809536
63103.01027962412,0.02019960348116,PPG_1,PPG_2,166564.0,166564.0,-874.3583032090683,17.88920584887856,0.16562845782606714
63103.02037942586,0.0302994052253779,PPG_1,PPG_2,166545.0,166545.0,-893.2744915534859,21.69470650050166,0.20089911260096108
63103.03047922761,0.0403992069695959,PPG_1,PPG_2,166568.0,166568.0,-870.1906798979326,25.491302627731233,0.23608723726101072
63103.04057902935,0.0504990087138139,PPG_1,PPG_2,166548.0,166548.0,-890.1068682423502,29.290497110810517,0.27129944435345155
63103.05067883109,0.0605988104507559,PPG_1,PPG_2,166576.0,166576.0,-862.0230565867678,33.10795527786714,0.3066809253868147
63103.06077863283,0.0706986121949739,PPG_1,PPG_2,166517.0,166517.0,-920.9392449312145,36.94965548514752,0.34228708976937294
63103.07087843458,0.0807984139391919,PPG_1,PPG_2,166585.0,166585.0,-852.8554332756321,40.796735901959686,0.37794311973609074
63103.08097823632,0.0908982156834099,PPG_1,PPG_2,166565.0,166565.0,-872.7716216200497,44.594305599436765,0.41314026777131285
63103.091078038065,0.1009980174276279,PPG_1,PPG_2,166572.0,166572.0,-865.6878099644964,48.247811537889405,0.44700218463059044
63103.1011778398,0.1110978191645699,PPG_1,PPG_2,166584.0,166584.0,-853.603998308914,51.62725674535621,0.4783240148324571
63103.11127764155,0.1211976209087879,PPG_1,PPG_2,166574.0,166574.0,-863.5201866533607,54.57836953457034,0.5056759167026489
63103.12137744329,0.1312974226530059,PPG_1,PPG_2,166616.0,166616.0,-821.4363749977783,56.94033863355745,0.5275674375052559
63103.131477245035,0.1413972243972239,PPG_1,PPG_2,166611.0,166611.0,-826.3525633421959,58.56886842816115,0.5426611971533057
63103.14157704677,0.1514970261341659,PPG_1,PPG_2,166630.0,166630.0,-807.2687516866426,59.36072424676018,0.550000382129502
63103.15167684851,0.1615968278783839,PPG_1,PPG_2,166594.0,166594.0,-843.1849400310603,59.27417822026544,0.5491982445654648
63103.16177665026,0.1716966296226019,PPG_1,PPG_2,166652.0,166652.0,-785.1011283754779,58.34101153529837,0.5405493431446051
63103.171876452005,0.1817964313668199,PPG_1,PPG_2,166611.0,166611.0,-826.0173167199246,56.668323689859996,0.5250463118897148
63103.18197625375,0.1918962331110378,PPG_1,PPG_2,166601.0,166601.0,-835.9335050643422,54.42954562431548,0.5042965668505841
63103.192076055486,0.2019960348479799,PPG_1,PPG_2,166582.0,166582.0,-854.8496934087598,51.845542963621675,0.4803471646230831
63103.20217585723,0.2120958365921978,PPG_1,PPG_2,166623.0,166623.0,-813.7658817532065,49.16039764070002,0.4554603383221082
63103.212275658974,0.2221956383364158,PPG_1,PPG_2,166606.0,166606.0,-830.6820700976241,46.618088658651835,0.4318973670745041
63103.22237546072,0.2322954400806338,PPG_1,PPG_2,166583.0,166583.0,-853.5982584420417,44.443104853960214,0.41173888861424046
63103.23247526246,0.2423952418248518,PPG_1,PPG_2,166620.0,166620.0,-816.5144467864884,42.82503039765043,0.3967420325437428
63103.2425750642,0.2524950435617938,PPG_1,PPG_2,166612.0,166612.0,-824.430635130906,41.90751707884553,0.3882382117639113
63103.252674865944,0.2625948453060118,PPG_1,PPG_2,166627.0,166627.0,-809.3468234753236,41.78190955721649,0.38707403917846755
63103.26277466769,0.2726946470502298,PPG_1,PPG_2,166588.0,166588.0,-848.2630118197703,42.48382574290693,0.39357963350962044
63103.27287446943,0.2827944487944478,PPG_1,PPG_2,166645.0,166645.0,-791.1792001641879,43.99105489907162,0.40754913820831645
63103.28297427117,0.2928942505313898,PPG_1,PPG_2,166619.0,166619.0,-817.0953885086055,46.22312362171604,0.4282366988100081
63103.29307407291,0.3029940522756078,PPG_1,PPG_2,166636.0,166636.0,-800.0115768530522,49.04294322426905,0.454371731446701
63103.30317387466,0.3130938540198258,PPG_1,PPG_2,166623.0,166623.0,-812.9277651974699,52.25968952010719,0.4841856136360353
63103.3132736764,0.3231936557640438,PPG_1,PPG_2,166629.0,166629.0,-806.8439535419166,55.632777402084564,0.5154485220157408
63103.323373478146,0.3332934575082618,PPG_1,PPG_2,166612.0,166612.0,-823.7601418863342,58.87906704501932,0.5455362218421566
63103.33347327988,0.3433932592452038,PPG_1,PPG_2,166670.0,166670.0,-765.6763302307518,61.6867063263519,0.5715583631817136
63103.34357308163,0.3534930609894218,PPG_1,PPG_2,166670.0,166670.0,-765.5925185751985,63.73740196311056,0.5905648972685351
63103.35367288337,0.3635928627336398,PPG_1,PPG_2,166661.0,166661.0,-774.5087069196161,64.73433702333645,0.5998048253519052
63103.36377268512,0.3736926644778577,PPG_1,PPG_2,166682.0,166682.0,-753.4248952640337,64.429330884071,0.5969779262847177
63103.37387248686,0.3837924662220757,PPG_1,PPG_2,166675.0,166675.0,-760.3410836084804,62.643654395206944,0.5804276784345416
63103.3839722886,0.3938922679590177,PPG_1,PPG_2,166654.0,166654.0,-781.257271952898,59.279800537930264,0.5492503540889007
63103.39407209034,0.4039920697032357,PPG_1,PPG_2,166631.0,166631.0,-804.1734602973156,54.32404137696546,0.5033187181451896
63103.404171892085,0.4140918714474537,PPG_1,PPG_2,166687.0,166687.0,-748.0896486417623,47.84248229357421,0.44324545742038424
63103.41427169383,0.4241916731916717,PPG_1,PPG_2,166656.0,166656.0,-779.0058369861799,39.97428034819309,0.3703203261643111
63103.42437149557,0.4342914749286137,PPG_1,PPG_2,166643.0,166643.0,-791.9220253305975,30.92231909875417,0.2864237171521682
63103.43447129731,0.4443912766728317,PPG_1,PPG_2,166614.0,166614.0,-820.8382136750442,20.93888399764257,0.19389389646518954
63103.444571099055,0.4544910784170497,PPG_1,PPG_2,166618.0,166618.0,-816.7544020194618,10.306657636946653,0.09535086105756514
63103.4546709008,0.4645908801612677,PPG_1,PPG_2,166610.0,166610.0,-824.6705903638795,-0.6804124467752477,-0.006480984837727825
63103.46477070254,0.4746906819054857,PPG_1,PPG_2,166606.0,166606.0,-828.5867787083262,-11.731773713628488,-0.10890870295401958
63103.47487050428,0.4847904836424277,PPG_1,PPG_2,166602.0,166602.0,-832.5029670527438,-22.569011073579006,-0.20935184897565245
63103.484970306024,0.4948902853866457,PPG_1,PPG_2,166610.0,166610.0,-824.4191553971614,-32.92997360503484,-0.3053807203481289
63103.49507010777,0.5049900871308637,PPG_1,PPG_2,166588.0,166588.0,-846.3353437416081,-42.570982892404714,-0.39473682389033576
63103.50516990951,0.5150898888750817,PPG_1,PPG_2,166576.0,166576.0,-858.2515320860257,-51.27007411383796,-0.4753629152813905
63103.51526971126,0.5251896906192997,PPG_1,PPG_2,166584.0,166584.0,-850.1677204304724,-58.83283423426357,-0.5454571093893583
63103.525369512994,0.5352894923562417,PPG_1,PPG_2,166541.0,166541.0,-893.08390877489,-65.10008535657876,-0.6035440921437732
63103.53546931474,0.5453892941004597,PPG_1,PPG_2,166567.0,166567.0,-867.0000971193076,-69.95498624436571,-0.6485409398269882
63103.54556911648,0.5554890958446776,PPG_1,PPG_2,166568.0,166568.0,-865.9162854637543,-73.32655020650897,-0.6797897240072007
63103.55566891823,0.5655888975888956,PPG_1,PPG_2,166598.0,166598.0,-835.8324738081719,-75.18801405910152,-0.6970423945310471
63103.56576871997,0.5756886993258377,PPG_1,PPG_2,166541.0,166541.0,-892.7486621525895,-75.55201323139738,-0.7004160607893668
63103.57586852171,0.5857885010700556,PPG_1,PPG_2,166594.0,166594.0,-839.6648504970362,-74.46624960670552,-0.6903528398154561
63103.58596832345,0.5958883028142736,PPG_1,PPG_2,166582.0,166582.0,-851.5810388414538,-72.01118262561513,-0.6675984566563448
63103.5960681252,0.6059881045584916,PPG_1,PPG_2,166567.0,166567.0,-866.4972271858715,-68.29915184063056,-0.6331941119152322
63103.60616792694,0.6160879063027096,PPG_1,PPG_2,166600.0,166600.0,-833.4134155303182,-63.47429422539899,-0.5884757153457116
63103.61626772868,0.6261877080396516,PPG_1,PPG_2,166614.0,166614.0,-819.3296038747358,-57.712499635712916,-0.5350734730494208
63103.62636753042,0.6362875097838696,PPG_1,PPG_2,166587.0,166587.0,-846.2457922191534,-51.22082991612325,-0.4749065035615499
63103.636467332166,0.6463873115280876,PPG_1,PPG_2,166602.0,166602.0,-831.1619805636001,-44.236503004225426,-0.4101734221890684
63103.64656713391,0.6564871132723056,PPG_1,PPG_2,166621.0,166621.0,-812.0781689080177,-37.0241211629937,-0.34332665133953527
63103.656666935654,0.6665869150165236,PPG_1,PPG_2,166630.0,166630.0,-802.9943572524353,-29.867942033116243,-0.2770007860451606
63103.66676673739,0.6766867167534656,PPG_1,PPG_2,166661.0,166661.0,-771.910545596882,-23.057589813172957,-0.21388016039434085
63103.676866539136,0.6867865184976836,PPG_1,PPG_2,166647.0,166647.0,-785.8267339412996,-16.86922793258327,-0.15652434955791433
63103.68696634088,0.6968863202419016,PPG_1,PPG_2,166681.0,166681.0,-751.7429222857172,-11.54609587129833,-0.10718777851445052
63103.697066142624,0.7069861219861195,PPG_1,PPG_2,166659.0,166659.0,-773.6591106301639,-7.28178899076441,-0.06766475392283282
63103.70716594436,0.7170859237230616,PPG_1,PPG_2,166676.0,166676.0,-756.5752989745815,-4.208080624323788,-0.039176595176836734
63103.717265746105,0.7271857254672796,PPG_1,PPG_2,166702.0,166702.0,-730.4914873190282,-2.3876637530707288,-0.022304361825628678
63103.72736554785,0.7372855272114975,PPG_1,PPG_2,166685.0,166685.0,-747.4076756634458,-1.812082869838696,-0.016969685396432205
63103.73746534959,0.7473853289557155,PPG_1,PPG_2,166670.0,166670.0,-762.3238640078634,-2.406090427302812,-0.02247514641482906
63103.74756515134,0.7574851306999335,PPG_1,PPG_2,166684.0,166684.0,-748.2400523523102,-4.038919754087196,-0.037608755567351784
63103.757664953075,0.7675849324368755,PPG_1,PPG_2,166686.0,166686.0,-746.1562406967278,-6.540172196888856,-0.060791201056433534
63103.76776475482,0.7776847341810935,PPG_1,PPG_2,166654.0,166654.0,-778.0724290411454,-9.716826842420208,-0.09023350040114962
63103.77786455656,0.7877845359253115,PPG_1,PPG_2,166677.0,166677.0,-754.9886173855921,-13.368712702107374,-0.12408040182774797
63103.78796435831,0.7978843376695295,PPG_1,PPG_2,166676.0,166676.0,-755.9048057300097,-17.30002873742977,-0.1605171557233808
63103.79806416005,0.8079841394137475,PPG_1,PPG_2,166664.0,166664.0,-767.8209940744273,-21.324996061978005,-0.19782190113810566
63103.80816396179,0.8180839411506895,PPG_1,PPG_2,166678.0,166678.0,-753.737182418874,-25.267640965274364,-0.23436365477697316
63103.81826376353,0.8281837428949075,PPG_1,PPG_2,166701.0,166701.0,-730.6533707632916,-28.957349626737177,-0.2685611106000027
63103.82836356528,0.8382835446391255,PPG_1,PPG_2,166674.0,166674.0,-757.5695591077092,-32.223109032241254,-0.29882926270773363
63103.83846336702,0.8483833463833435,PPG_1,PPG_2,166678.0,166678.0,-753.4857474521559,-34.89054837873703,-0.3235519840881895
63103.84856316876,0.8584831481202855,PPG_1,PPG_2,166675.0,166675.0,-756.4019357965735,-36.7847899768503,-0.34110844973714444
63103.8586629705,0.8685829498645035,PPG_1,PPG_2,166703.0,166703.0,-728.3181241409911,-37.73919581113733,-0.34995420270841904
63103.86876277225,0.8786827516087214,PPG_1,PPG_2,166658.0,166658.0,-773.2343124854378,-37.609046809683775,-0.34874793816669375
63103.87886257399,0.8887825533529394,PPG_1,PPG_2,166658.0,166658.0,-773.1505008298554,-36.289402480422225,-0.3365170324793754
63103.888962375735,0.8988823550971574,PPG_1,PPG_2,166666.0,166666.0,-765.066689174273,-33.73413757329384,-0.3128339813782577
63103.89906217747,0.9089821568340994,PPG_1,PPG_2,166658.0,166658.0,-772.9828775187198,-29.969810830176883,-0.27794494017949956
63103.909161979216,0.9190819585783174,PPG_1,PPG_2,166731.0,166731.0,-699.8990658631374,-25.098411124880595,-0.23279517592896845
63103.91926178096,0.9291817603225354,PPG_1,PPG_2,166713.0,166713.0,-717.815254207555,-19.28809837878199,-0.17894325110682893
63103.929361582705,0.9392815620667534,PPG_1,PPG_2,166721.0,166721.0,-709.7314425520017,-12.75715634635124,-0.118412292668427
63103.93946138445,0.9493813638109714,PPG_1,PPG_2,166708.0,166708.0,-722.6476308964193,-5.758260425293374,-0.05354418083884209
63103.949561186186,0.9594811655479134,PPG_1,PPG_2,166712.0,166712.0,-718.563819240866,1.4340531208073903,0.013116590329103017
63103.95966098793,0.9695809672921314,PPG_1,PPG_2,166748.0,166748.0,-682.4800075852836,8.535355909833356,0.07893384331443586
63103.969760789674,0.9796807690363494,PPG_1,PPG_2,166767.0,166767.0,-663.3961959297012,15.26625225857755,0.14131804533550105
63103.97986059142,0.9897805707805674,PPG_1,PPG_2,166750.0,166750.0,-680.3123842741479,21.369892221358523,0.19788862505821758
63103.989960393155,0.9998803725175094,PPG_1,PPG_2,166783.0,166783.0,-647.2285726185655,26.628180782217328,0.24662420481898367
63104.0000601949,1.0099801742617274,PPG_1,PPG_2,166770.0,166770.0,-660.1447609629831,30.873205650679246,0.2859685172637865
63104.01015999664,1.0200799760059454,PPG_1,PPG_2,166733.0,166733.0,-697.0609493074298,33.993088381820044,0.3148846354889369
63104.02025979839,1.0301797777501631,PPG_1,PPG_2,166791.0,166791.0,-638.9771376518474,35.93435291762252,0.33287692547575654
63104.03035960013,1.040279579494381,PPG_1,PPG_2,166810.0,166810.0,-619.893325996265,36.704536337592494,0.340015243401815
63104.04045940187,1.0503793812313234,PPG_1,PPG_2,166776.0,166776.0,-653.8095143407118,36.37601099235694,0.3369703604554242
63104.05055920361,1.0604791829755411,PPG_1,PPG_2,166772.0,166772.0,-657.7257026851294,35.08729516999078,0.325026110530192
63104.06065900536,1.070578984719759,PPG_1,PPG_2,166825.0,166825.0,-604.641891029547,33.03846491865593,0.30603686546033
63104.0707588071,1.0806787864639773,PPG_1,PPG_2,166775.0,166775.0,-654.5580793739937,30.480568347169644,0.2823294232124096
63104.08085860884,1.090778588200919,PPG_1,PPG_2,166794.0,166794.0,-635.4742677184113,27.698946578660447,0.2565484208968345
63104.09095841058,1.100878389945137,PPG_1,PPG_2,166758.0,166758.0,-671.3904560628289,24.98983278699562,0.2314394467987852
63104.10105821233,1.1109781916893553,PPG_1,PPG_2,166764.0,166764.0,-665.3066444072756,22.632598298159063,0.20959180794901466
63104.11115801407,1.1210779934335733,PPG_1,PPG_2,166772.0,166772.0,-657.2228327516932,20.86334140615234,0.19319374242261533
63104.121257815816,1.1311777951777913,PPG_1,PPG_2,166800.0,166800.0,-629.1390210961108,19.85515693001572,0.18384955098434674
63104.13135761755,1.1412775969147333,PPG_1,PPG_2,166779.0,166779.0,-650.0552094405575,19.706473066380315,0.1824714991312627
63104.1414574193,1.1513773986589513,PPG_1,PPG_2,166762.0,166762.0,-666.9713977849751,20.435027663124515,0.18922398717918007
63104.15155722104,1.1614772004031693,PPG_1,PPG_2,166765.0,166765.0,-663.8875861294218,21.975759820076043,0.20350400891173112
63104.161657022785,1.1715770021473872,PPG_1,PPG_2,166795.0,166795.0,-633.8037744738394,24.184895018543767,0.22397901392926778
63104.17175682453,1.1816768038916052,PPG_1,PPG_2,166829.0,166829.0,-599.719962818257,26.853270390090522,0.24871041070343822
63104.18185662627,1.1917766056285473,PPG_1,PPG_2,166803.0,166803.0,-625.6361511627038,29.726999047375365,0.2753450905174024
63104.19195642801,1.2018764073727652,PPG_1,PPG_2,166801.0,166801.0,-627.5523395071214,32.52878755378143,0.30131300491509555
63104.202056229755,1.2119762091169832,PPG_1,PPG_2,166817.0,166817.0,-611.468527851539,34.97460064386031,0.3239816199125192
63104.2121560315,1.2220760108612012,PPG_1,PPG_2,166798.0,166798.0,-630.3847161959857,36.78540221634047,0.34076473545384545
63104.22225583324,1.2321758126054192,PPG_1,PPG_2,166803.0,166803.0,-625.3009045404033,37.69646395379468,0.3492087608166205
63104.23235563498,1.2422756143423612,PPG_1,PPG_2,166805.0,166805.0,-623.2170928848209,37.466836227573836,0.347080494131178
63104.24245543672,1.2523754160865792,PPG_1,PPG_2,166814.0,166814.0,-614.1332812292676,35.89115572885333,0.3324765594604008
63104.25255523847,1.2624752178307972,PPG_1,PPG_2,166818.0,166818.0,-610.0494695736852,32.814585832954414,0.30396187910085337
63104.26265504021,1.2725750195750152,PPG_1,PPG_2,166808.0,166808.0,-619.9656579181028,28.14931953957599,0.26072262836087046
63104.27275484195,1.2826748213119572,PPG_1,PPG_2,166827.0,166827.0,-600.8818462625495,21.88951362844071,0.2027046503176072
63104.282854643694,1.2927746230561752,PPG_1,PPG_2,166795.0,166795.0,-632.7980346069671,14.121372600917203,0.13070691716583066
63104.29295444544,1.3028744248003932,PPG_1,PPG_2,166781.0,166781.0,-646.7142229513847,5.025906407083337,0.04640708975610311
63104.30305424718,1.3129742265446112,PPG_1,PPG_2,166794.0,166794.0,-633.6304112958314,-5.126166353066217,-0.047685721243710476
63104.31315404893,1.3230740282888291,PPG_1,PPG_2,166779.0,166779.0,-648.546599640249,-15.985988894806244,-0.148338194295569
63104.32325385066,1.3331738300257712,PPG_1,PPG_2,166762.0,166762.0,-665.4627879846666,-27.143594555421004,-0.25175062104212526
63104.33335365241,1.3432736317699892,PPG_1,PPG_2,166735.0,166735.0,-692.3789763291134,-38.15053437395842,-0.35376662629549055
63104.34345345415,1.3533734335142071,PPG_1,PPG_2,166762.0,166762.0,-665.295164673531,-48.54719805117414,-0.45012638784574904
63104.353553255896,1.3634732352584251,PPG_1,PPG_2,166708.0,166708.0,-719.2113530179777,-57.892212780749595,-0.5367391146764681
63104.36365305763,1.3735730369953671,PPG_1,PPG_2,166726.0,166726.0,-701.1275413623953,-65.79134935882776,-0.6099509584706091
63104.37375285938,1.3836728387395851,PPG_1,PPG_2,166730.0,166730.0,-697.0437297068129,-71.92388213284657,-0.6667893264461568
63104.38385266112,1.3937726404838031,PPG_1,PPG_2,166695.0,166695.0,-731.9599180512596,-76.06464701569338,-0.705167322420117
63104.393952462866,1.403872442228021,PPG_1,PPG_2,166684.0,166684.0,-742.8761063956772,-78.10050130780888,-0.7240363019533529
63104.40405226461,1.413972243972239,PPG_1,PPG_2,166722.0,166722.0,-704.7922947400948,-78.03896505195904,-0.7234659633212221
63104.41415206635,1.4240720457091811,PPG_1,PPG_2,166743.0,166743.0,-683.7084830845415,-76.00608720589831,-0.7046245704870476
63104.42425186809,1.434171847453399,PPG_1,PPG_2,166682.0,166682.0,-744.6246714289591,-72.23380035390747,-0.6696617523328338
63104.434351669835,1.444271649197617,PPG_1,PPG_2,166732.0,166732.0,-694.5408597733767,-67.0404329257808,-0.6215278833769822
63104.44445147158,1.454371450941835,PPG_1,PPG_2,166745.0,166745.0,-681.4570481178234,-60.80639664767944,-0.5637487469247792
63104.45455127333,1.464471252686053,PPG_1,PPG_2,166751.0,166751.0,-675.373236462241,-53.94508882303755,-0.5001558476609188
63104.46465107506,1.474571054422995,PPG_1,PPG_2,166752.0,166752.0,-674.2894248066586,-46.871471754732504,-0.43459519520916495
63104.474750876805,1.484670856167213,PPG_1,PPG_2,166768.0,166768.0,-658.2056131511054,-39.97296123952077,-0.3706574889472486
63104.48485067855,1.494770657911431,PPG_1,PPG_2,166769.0,166769.0,-657.121801495523,-33.58581304849352,-0.31145925999786556
63104.49495048029,1.504870459655649,PPG_1,PPG_2,166764.0,166764.0,-662.0379898399406,-27.978148502665853,-0.2594855465772828
63104.50505028203,1.514970261392591,PPG_1,PPG_2,166768.0,166768.0,-657.9541781843873,-23.33959671870248,-0.21649389485916762
63104.515150083775,1.525070063136809,PPG_1,PPG_2,166787.0,166787.0,-638.8703665288049,-19.77633373029677,-0.18346837988977427
63104.52524988552,1.535169864881027,PPG_1,PPG_2,166795.0,166795.0,-630.7865548732225,-17.310101921222095,-0.16061051736500123
63104.53534968726,1.545269666625245,PPG_1,PPG_2,166782.0,166782.0,-643.7027432176692,-15.881548801719054,-0.14737020852834412
63104.54544948901,1.555369468369463,PPG_1,PPG_2,166813.0,166813.0,-612.6189315620868,-15.359877643079116,-0.14253518548490818
63104.555549290744,1.565469270106405,PPG_1,PPG_2,166760.0,166760.0,-665.5351199065044,-15.560410579240537,-0.14439379191014387
63104.56564909249,1.575569071850623,PPG_1,PPG_2,166735.0,166735.0,-690.4513082509511,-16.26919108121421,-0.15096300702396262
63104.57574889423,1.585668873594841,PPG_1,PPG_2,166776.0,166776.0,-649.3674965953687,-17.269387672579505,-0.16023316407045388
63104.58584869598,1.595768675339059,PPG_1,PPG_2,166794.0,166794.0,-631.2836849398154,-18.361392171470733,-0.17035422755696153
63104.59594849772,1.605868477083277,PPG_1,PPG_2,166792.0,166792.0,-633.199873284233,-19.372506738999526,-0.17972557606375095
63104.60604829946,1.615968278820219,PPG_1,PPG_2,166779.0,166779.0,-646.1160616286506,-20.160010658535306,-0.1870244261816653
63104.6161481012,1.626068080564437,PPG_1,PPG_2,166765.0,166765.0,-660.0322499730974,-20.614027835719977,-0.19123240946279346
63104.62624790295,1.636167882308655,PPG_1,PPG_2,166768.0,166768.0,-656.948438317515,-20.662385372810046,-0.19168060331495862
63104.63634770469,1.646267684052873,PPG_1,PPG_2,166771.0,166771.0,-653.8646266619326,-20.27494417854329,-0.18808966854459483
63104.64644750643,1.656367485789815,PPG_1,PPG_2,166768.0,166768.0,-656.7808150063793,-19.46402121577117,-0.18057376288924548
63104.65654730817,1.666467287534033,PPG_1,PPG_2,166767.0,166767.0,-657.6970033507969,-18.2793295216209,-0.16959364342947442
63104.66664710992,1.676567089278251,PPG_1,PPG_2,166778.0,166778.0,-646.6131916952145,-16.797455862514923,-0.1558591419708967
63104.67674691166,1.686666891022469,PPG_1,PPG_2,166810.0,166810.0,-614.5293800396612,-15.106900422870783,-0.14019050786776605
63104.686846713405,1.696766692766687,PPG_1,PPG_2,166785.0,166785.0,-639.4455683840788,-13.291672805685648,-0.12336637026151363
63104.69694651514,1.706866494503629,PPG_1,PPG_2,166778.0,166778.0,-646.3617567284964,-11.418364701971244,-0.10600392325077905
63104.707046316886,1.716966296247847,PPG_1,PPG_2,166759.0,166759.0,-665.2779450729431,-9.529976817625672,-0.08850171178185255
63104.71714611863,1.727066097992065,PPG_1,PPG_2,166790.0,166790.0,-634.1941334173607,-7.644906551314532,-0.07103024910817787
63104.727245920374,1.7371658997362829,PPG_1,PPG_2,166801.0,166801.0,-623.1103217617783,-5.756943289003282,-0.053531973178501925
63104.73734572212,1.7472657014805009,PPG_1,PPG_2,166780.0,166780.0,-644.026510106225,-3.8348138984616855,-0.03571703412769541
63104.747445523855,1.757365503217443,PPG_1,PPG_2,166802.0,166802.0,-621.9426984506426,-1.8236303680886154,-0.017076711478299485
63104.7575453256,1.7674653049616609,PPG_1,PPG_2,166782.0,166782.0,-641.8588867950602,0.3491874521580007,0.0030616919125840167
63104.767645127344,1.7775651067058789,PPG_1,PPG_2,166768.0,166768.0,-655.775075139507,2.763410664323911,0.025437521339789923
63104.77774492909,1.7876649084500968,PPG_1,PPG_2,166792.0,166792.0,-631.6912634839246,5.493268943352643,0.05073876229554751
63104.787844730825,1.7977647101870389,PPG_1,PPG_2,166805.0,166805.0,-618.6074518283713,8.595904826024057,0.07949503095187466
63104.79794453257,1.8078645119312569,PPG_1,PPG_2,166772.0,166772.0,-651.5236401727889,12.102934653410964,0.1119993581484189
63104.80804433431,1.8179643136754748,PPG_1,PPG_2,166809.0,166809.0,-614.4398285172065,16.014627635905644,0.1482542390172738
63104.81814413606,1.8280641154196928,PPG_1,PPG_2,166801.0,166801.0,-622.3560168616532,20.296003605363563,0.18793546564270364
63104.8282439378,1.8381639171639108,PPG_1,PPG_2,166793.0,166793.0,-630.2722052060708,24.874887965765307,0.2303740996923415
63104.83834373954,1.8482637189008528,PPG_1,PPG_2,166784.0,166784.0,-639.1883935504884,29.642022640223654,0.2745575007112147
63104.84844354128,1.8583635206450708,PPG_1,PPG_2,166769.0,166769.0,-654.1045818949351,34.45473739853279,0.31916335321526285
63104.85854334303,1.8684633223892888,PPG_1,PPG_2,166843.0,166843.0,-580.0207702393527,39.14796705850725,0.3626617778037988
63104.86864314477,1.8785631241335068,PPG_1,PPG_2,166819.0,166819.0,-603.9369585837703,43.55495379048063,0.4035072070522934
63104.878742946516,1.8886629258777248,PPG_1,PPG_2,166846.0,166846.0,-576.853146928217,47.53395220958593,0.44038589725308314
63104.88884274825,1.8987627276146668,PPG_1,PPG_2,166829.0,166829.0,-593.7693352726346,50.99259718265626,0.4724417774122565
63104.89894255,1.9088625293588848,PPG_1,PPG_2,166835.0,166835.0,-587.6855236170522,53.90274194982269,0.4994139739309755
63104.90904235174,1.9189623311031028,PPG_1,PPG_2,166818.0,166818.0,-604.601711961499,56.30295801843062,0.521659980459687
63104.919142153485,1.9290621328473208,PPG_1,PPG_2,166841.0,166841.0,-581.5179003059166,58.28949287663327,0.5400718509587957
63104.92924195522,1.9391619345842628,PPG_1,PPG_2,166803.0,166803.0,-619.4340886503342,59.99817480091837,0.5559084873934412
63104.939341756966,1.9492617363284808,PPG_1,PPG_2,166797.0,166797.0,-625.3502769947809,61.58047997594503,0.570573821783304
63104.94944155871,1.9593615380726987,PPG_1,PPG_2,166807.0,166807.0,-615.2664653391985,63.17842824992163,0.5853841416542329
63104.959541360455,1.9694613398169167,PPG_1,PPG_2,166815.0,166815.0,-607.1826536836161,64.90426922362786,0.601379813906712
63104.9696411622,1.9795611415611347,PPG_1,PPG_2,166816.0,166816.0,-606.0988420280628,66.8291046406693,0.6192198333175618
63104.979740963936,1.9896609432980767,PPG_1,PPG_2,166824.0,166824.0,-598.0150303724804,68.98045445118785,0.6391592640031064
63104.98984076568,1.9997607450422947,PPG_1,PPG_2,166815.0,166815.0,-606.9312187169271,71.34610374472837,0.661084894081596
63104.999940567424,2.0098605467865127,PPG_1,PPG_2,166817.0,166817.0,-604.8474070613447,73.881563736924,0.6845843865970277
63105.01004036917,2.0199603485307307,PPG_1,PPG_2,166844.0,166844.0,-577.7635954057623,76.51950499635686,0.7090337098255552
63105.02014017091,2.0300601502749487,PPG_1,PPG_2,166846.0,166846.0,-575.679783750209,79.17943038532535,0.7336867893306839
63105.03023997265,2.0401599520118907,PPG_1,PPG_2,166827.0,166827.0,-594.5959720946266,81.77413128421428,0.757735346413386
63105.040339774394,2.0502597537561087,PPG_1,PPG_2,166809.0,166809.0,-612.5121604390442,84.20909208004215,0.7803033787124781
63105.05043957614,2.0603595555003267,PPG_1,PPG_2,166797.0,166797.0,-624.428348783491,86.37477471544499,0.8003756508201433
63105.06053937788,2.0704593572445447,PPG_1,PPG_2,166803.0,166803.0,-618.3445371279086,88.13708131960723,0.8167092987506491
63105.07063917962,2.0805591589814867,PPG_1,PPG_2,166820.0,166820.0,-601.2607254723262,89.3331700472232,0.827795049734266
63105.08073898136,2.0906589607257047,PPG_1,PPG_2,166785.0,166785.0,-636.1769138167729,89.77696377009138,0.8319082786162193
63105.09083878311,2.1007587624699227,PPG_1,PPG_2,166805.0,166805.0,-616.0931021611905,89.27486229320407,0.8272546339385595
63105.10093858485,2.1108585642141406,PPG_1,PPG_2,166846.0,166846.0,-575.0092905056081,87.65037704286566,0.8121983604815689
63105.11103838659,2.120958365958358,PPG_1,PPG_2,166833.0,166833.0,-587.9254788500548,84.77423919957812,0.7855413515247222
63105.12113818833,2.1310581676953007,PPG_1,PPG_2,166783.0,166783.0,-637.8416671944724,80.59248129832042,0.7467834185246222
63105.13123799008,2.141157969439518,PPG_1,PPG_2,166839.0,166839.0,-581.75785553889,75.14426864386671,0.6962875586451905
63105.14133779182,2.1512577711837366,PPG_1,PPG_2,166780.0,166780.0,-640.6740438833367,68.56568921469274,0.6353150808565848
63105.151437593566,2.1613575729279546,PPG_1,PPG_2,166781.0,166781.0,-639.5902322277543,61.079335926272265,0.5659290508617798
63105.16153739531,2.1714573746721726,PPG_1,PPG_2,166739.0,166739.0,-681.5064205721719,52.97084681881719,0.49077685769816637
63105.17163719705,2.1815571764091146,PPG_1,PPG_2,166748.0,166748.0,-672.4226089166186,44.556214267214095,0.41278722454474853
63105.18173699879,2.1916569781533326,PPG_1,PPG_2,166714.0,166714.0,-706.3387972610362,36.14636971859739,0.3348419682068549
63105.191836800535,2.2017567798975506,PPG_1,PPG_2,166715.0,166715.0,-705.254985605483,28.01534327256093,0.25948089143989483
63105.20193660228,2.211856581641769,PPG_1,PPG_2,166696.0,166696.0,-724.1711739499005,20.376446895229744,0.18868104099942226
63105.21203640402,2.2219563833787106,PPG_1,PPG_2,166708.0,166708.0,-712.0873622943182,13.369210198471917,0.12373562406672492
63105.22213620576,2.2320561851229286,PPG_1,PPG_2,166689.0,166689.0,-731.0035506387649,7.057824780797042,0.0652395898791692
63105.232236007505,2.2421559868671466,PPG_1,PPG_2,166709.0,166709.0,-710.9197389831825,1.4394104140704203,0.013166243517607293
63105.24233580925,2.252255788611365,PPG_1,PPG_2,166653.0,166653.0,-766.8359273276001,-3.5413505060213706,-0.03299711710457865
63105.25243561099,2.2623555903555825,PPG_1,PPG_2,166699.0,166699.0,-720.7521156720468,-7.974525619467899,-0.07408526904493733
63105.26253541273,2.272455392092525,PPG_1,PPG_2,166662.0,166662.0,-757.6683040164644,-11.966116828054242,-0.11108067343686757
63105.272635214475,2.2825551938367425,PPG_1,PPG_2,166689.0,166689.0,-730.584492360882,-15.619782050518655,-0.14494406659372194
63105.28273501622,2.2926549955809605,PPG_1,PPG_2,166658.0,166658.0,-761.5006807053287,-19.022041094983287,-0.176477343078878
63105.29283481796,2.3027547973251785,PPG_1,PPG_2,166634.0,166634.0,-785.4168690497463,-22.23410240195606,-0.20624780322206862
63105.30293461971,2.3128545990693965,PPG_1,PPG_2,166643.0,166643.0,-776.3330573941639,-25.290906171662435,-0.2345792845029674
63105.31303442144,2.3229544008063385,PPG_1,PPG_2,166641.0,166641.0,-778.2492457386106,-28.204751012593068,-0.2615857745447536
63105.32313422319,2.3330542025505565,PPG_1,PPG_2,166640.0,166640.0,-779.1654340830282,-30.970528440725726,-0.28721992620631076
63105.33323402493,2.3431540042947745,PPG_1,PPG_2,166598.0,166598.0,-821.0816224274458,-33.57191302632422,-0.3113304299362841
63105.34333382668,2.3532538060389925,PPG_1,PPG_2,166630.0,166630.0,-788.9978107718925,-35.98863875054557,-0.333729453483491
63105.353433628414,2.3633536077759345,PPG_1,PPG_2,166587.0,166587.0,-831.9139991163102,-38.20321395361913,-0.35425487828596297
63105.36353343016,2.3734534095201525,PPG_1,PPG_2,166623.0,166623.0,-795.8301874607278,-40.204499073185424,-0.37280345914831264
63105.3736332319,2.3835532112643705,PPG_1,PPG_2,166611.0,166611.0,-807.7463758051745,-41.987075167997865,-0.38932497150787354
63105.38373303365,2.3936530130085885,PPG_1,PPG_2,166597.0,166597.0,-821.6625641495921,-43.54775952592007,-0.4037899169224468
63105.39383283539,2.4037528147528064,PPG_1,PPG_2,166594.0,166594.0,-824.5787524940097,-44.881878564833144,-0.416154979067436
63105.40393263713,2.4138526164897485,PPG_1,PPG_2,166601.0,166601.0,-817.4949408384564,-45.980867491054596,-0.4263407765660268
63105.41403243887,2.4239524182339665,PPG_1,PPG_2,166583.0,166583.0,-835.411129182874,-46.83113736712179,-0.4342213625939038
63105.424132240616,2.4340522199781844,PPG_1,PPG_2,166603.0,166603.0,-815.3273175273207,-47.41411322589587,-0.43962457813353273
63105.43423204236,2.4441520217224024,PPG_1,PPG_2,166580.0,166580.0,-838.2435058717383,-47.70815884986005,-0.44234989147344383
63105.444331844104,2.4542518234666204,PPG_1,PPG_2,166587.0,166587.0,-831.1596942161559,-47.69334323508739,-0.4422125753929167
63105.45443164584,2.4643516252035624,PPG_1,PPG_2,166553.0,166553.0,-865.0758825606026,-47.35923635240899,-0.43911596088784766
63105.464531447586,2.4744514269477804,PPG_1,PPG_2,166570.0,166570.0,-847.9920709050202,-46.71402161528545,-0.4331358945754028
63105.47463124933,2.4845512286919984,PPG_1,PPG_2,166543.0,166543.0,-874.9082592494378,-45.79121921901038,-0.4245830528538856
63105.484731051074,2.4946510304362164,PPG_1,PPG_2,166590.0,166590.0,-827.8244475938845,-44.65011841523159,-0.41400694836779917
63105.49483085281,2.5047508321731584,PPG_1,PPG_2,166565.0,166565.0,-852.7406359383021,-43.36842821354692,-0.4021278142484283
63105.504930654555,2.5148506339173764,PPG_1,PPG_2,166571.0,166571.0,-846.6568242827198,-42.02926948821833,-0.389716042601587
63105.5150304563,2.5249504356615944,PPG_1,PPG_2,166588.0,166588.0,-829.5730126271665,-40.706602221392195,-0.37745711931632103
63105.52513025805,2.5350502374058124,PPG_1,PPG_2,166568.0,166568.0,-849.4892009715841,-39.45274435509397,-0.365835944604361
63105.53523005979,2.5451500391500304,PPG_1,PPG_2,166571.0,166571.0,-846.4053893160017,-38.29064318115092,-0.35506520165305905
63105.545329861525,2.5552498408869724,PPG_1,PPG_2,166564.0,166564.0,-853.3215776604484,-37.212403721236456,-0.34507171715868884
63105.55542966327,2.5653496426311904,PPG_1,PPG_2,166549.0,166549.0,-868.237766004866,-36.18362564069784,-0.3355366572965445
63105.56552946501,2.5754494443754083,PPG_1,PPG_2,166571.0,166571.0,-846.1539543492836,-35.15140860643034,-0.3259697240592881
63105.57562926676,2.5855492461196263,PPG_1,PPG_2,166543.0,166543.0,-874.0701426937303,-34.053594299364015,-0.3157948133244914
63105.5857290685,2.5956490478638443,PPG_1,PPG_2,166559.0,166559.0,-857.9863310381479,-32.82755874890172,-0.3044315051553918
63105.59582887024,2.6057488496007863,PPG_1,PPG_2,166548.0,166548.0,-868.9025193825655,-31.41749995057734,-0.29136260788249585
63105.60592867198,2.6158486513450043,PPG_1,PPG_2,166569.0,166569.0,-847.8187077270122,-29.779436982559467,-0.27618049158989855
63105.61602847373,2.6259484530892223,PPG_1,PPG_2,166553.0,166553.0,-863.7348960714298,-27.884004072242643,-0.258612984460385
63105.62612827547,2.6360482548334403,PPG_1,PPG_2,166544.0,166544.0,-872.6510844158765,-25.718195670626194,-0.23853954670932392
63105.63622807721,2.6461480565703823,PPG_1,PPG_2,166544.0,166544.0,-872.5672727602941,-23.2866307390603,-0.21600298841773088
63105.64632787895,2.6562478583146003,PPG_1,PPG_2,166565.0,166565.0,-851.4834611047118,-20.611001099100125,-0.19120435665392907
63105.6564276807,2.6663476600588183,PPG_1,PPG_2,166555.0,166555.0,-861.3996494491585,-17.726108475754376,-0.1644662054628979
63105.66652748244,2.6764474618030363,PPG_1,PPG_2,166561.0,166561.0,-855.3158377935761,-14.673029092919478,-0.13616924304708872
63105.676627284185,2.6865472635472543,PPG_1,PPG_2,166559.0,166559.0,-857.2320261379937,-11.49155864389852,-0.10668230922247228
63105.68672708592,2.6966470652841963,PPG_1,PPG_2,166563.0,166563.0,-853.1482144824404,-8.21357826493878,-0.07630088903907198
63105.696826887666,2.7067468670284143,PPG_1,PPG_2,166586.0,166586.0,-830.064402826858,-4.858144652220143,-0.04520160634054004
63105.70692668941,2.7168466687726323,PPG_1,PPG_2,166538.0,166538.0,-877.9805911712756,-1.4293356074124268,-0.013422255558701168
63105.717026491155,2.7269464705168502,PPG_1,PPG_2,166582.0,166582.0,-833.8967795157223,2.0822122610014375,0.019123946355497547
63105.7271262929,2.737046272261068,PPG_1,PPG_2,166569.0,166569.0,-846.8129678601399,5.694582516955831,0.052604603930085085
63105.73722609464,2.7471460739980103,PPG_1,PPG_2,166531.0,166531.0,-884.7291562045575,9.428262560135273,0.08720960124804007
63105.74732589638,2.757245875742228,PPG_1,PPG_2,166595.0,166595.0,-820.6453445490042,13.300054390241748,0.12309466487079765
63105.75742569813,2.767345677486446,PPG_1,PPG_2,166587.0,166587.0,-828.5615328934218,17.319123038740663,0.1603447393800069
63105.76752549987,2.777445479230664,PPG_1,PPG_2,166576.0,166576.0,-839.4777212378394,21.48511518147005,0.19895655004898108
63105.777625301605,2.7875452809676062,PPG_1,PPG_2,166561.0,166561.0,-854.3939095822861,25.78550818370151,0.23881403290432704
63105.78772510335,2.797645082711824,PPG_1,PPG_2,166587.0,166587.0,-828.3100979267037,30.190800259916806,0.2796437555155937
63105.797824905094,2.807744884456042,PPG_1,PPG_2,166593.0,166593.0,-822.2262862711214,34.64982641091314,0.3209715035313343
63105.80792470684,2.81784468620026,PPG_1,PPG_2,166587.0,166587.0,-828.1424746155681,39.08735538733591,0.36210000853217833
63105.81802450858,2.827944487944478,PPG_1,PPG_2,166560.0,166560.0,-855.0586629599857,43.40365393789696,0.40210490933735415
63105.82812431032,2.83804428968142,PPG_1,PPG_2,166608.0,166608.0,-806.9748513044324,47.47605438912454,0.4398492808589061
63105.83822411206,2.848144091425638,PPG_1,PPG_2,166616.0,166616.0,-798.89103964885,51.16428118374173,0.47403300224362666
63105.84832391381,2.858243893169856,PPG_1,PPG_2,166581.0,166581.0,-833.8072279932676,54.31961808518396,0.5032777215952803
63105.85842371555,2.868343694914074,PPG_1,PPG_2,166627.0,166627.0,-787.7234163377143,56.7948954862668,0.5262194216968039
63105.868523517296,2.878443496658292,PPG_1,PPG_2,166603.0,166603.0,-811.6396046821319,58.45243191823958,0.5415820245763978
63105.87862331903,2.888543298395234,PPG_1,PPG_2,166595.0,166595.0,-819.5557930265495,59.168871577468124,0.5482222273252568
63105.88872312078,2.898643100139452,PPG_1,PPG_2,166604.0,166604.0,-810.4719813709962,58.83682165631656,0.5451446774286427
63105.89882292252,2.90874290188367,PPG_1,PPG_2,166581.0,166581.0,-833.3881697154138,57.3644868548786,0.5314985852981812
63105.908922724266,2.918842703627888,PPG_1,PPG_2,166583.0,166583.0,-831.3043580598314,54.67588007098644,0.5065796770174396
63105.919022526,2.92894250536483,PPG_1,PPG_2,166564.0,166564.0,-850.2205464042781,50.71456992919582,0.46986492769587745
63105.92912232775,2.939042307109048,PPG_1,PPG_2,166612.0,166612.0,-802.1367347486957,45.453486524444514,0.4211034443857216
63105.93922212949,2.949142108853266,PPG_1,PPG_2,166590.0,166590.0,-824.0529230931133,38.9109215222004,0.3604647603697215
63105.949321931235,2.959241910597484,PPG_1,PPG_2,166574.0,166574.0,-839.9691114375601,31.16851739153061,0.28870556539912157
63105.95942173298,2.969341712341702,PPG_1,PPG_2,166591.0,166591.0,-822.8852997819777,22.384767399977783,0.20729482816829237
63105.96952153472,2.979441514078644,PPG_1,PPG_2,166572.0,166572.0,-841.8014881263953,12.799242639847785,0.11845297381030029
63105.97962133646,2.989541315822862,PPG_1,PPG_2,166549.0,166549.0,-864.717676470842,2.725042395081287,0.025081911368158575
63105.989721138205,2.99964111756708,PPG_1,PPG_2,166509.0,166509.0,-904.6338648152596,-7.471315742209906,-0.06942135134135911
63105.99982093995,3.009740919311298,PPG_1,PPG_2,166545.0,166545.0,-868.5500531596772,-17.40002065806937,-0.16144391433834873
63106.00992074169,3.019840721055516,PPG_1,PPG_2,166493.0,166493.0,-920.4662415041239,-26.682564145928342,-0.2474776367747311
63106.02002054343,3.029940522792458,PPG_1,PPG_2,166467.0,166467.0,-946.3824298485415,-34.985529972068846,-0.32443230531135026
63106.030120345175,3.040040324536676,PPG_1,PPG_2,166488.0,166488.0,-925.2986181929882,-42.04892030522799,-0.3898981729561033
63106.04022014692,3.050140126280894,PPG_1,PPG_2,166510.0,166510.0,-903.2148065374058,-47.70378071483872,-0.4423093134515141
63106.05031994866,3.060239928025112,PPG_1,PPG_2,166474.0,166474.0,-939.1309948818234,-51.87645057486337,-0.4809830154412282
63106.0604197504,3.070339729762054,PPG_1,PPG_2,166483.0,166483.0,-930.0471832262701,-54.58196201277227,-0.5060586017179804
63106.070519552144,3.080439531506272,PPG_1,PPG_2,166507.0,166507.0,-905.9633715706877,-55.91068411783737,-0.5183736432722456
63106.08061935389,3.09053933325049,PPG_1,PPG_2,166491.0,166491.0,-921.8795599151053,-56.01077601618348,-0.5193013285140872
63106.09071915563,3.100639134994708,PPG_1,PPG_2,166505.0,166505.0,-907.795748259552,-55.069200353557235,-0.5105744898715112
63106.10081895738,3.110738936738926,PPG_1,PPG_2,166490.0,166490.0,-922.7119366039697,-53.29485343105182,-0.494129248237433
63106.110918759114,3.120838738475868,PPG_1,PPG_2,166515.0,166515.0,-897.6281249483873,-50.90606406611774,-0.47198914822599497
63106.12101856086,3.130938540220086,PPG_1,PPG_2,166463.0,166463.0,-949.544313292834,-48.12259883585837,-0.44619106008941134
63106.1311183626,3.141038341964304,PPG_1,PPG_2,166522.0,166522.0,-890.4605016372516,-45.16059035236535,-0.41873817327489177
63106.141218164346,3.151138143708522,PPG_1,PPG_2,166508.0,166508.0,-904.3766899816692,-42.22774116406425,-0.39155554457575437
63106.15131796609,3.16123794545274,PPG_1,PPG_2,166504.0,166504.0,-908.2928783261159,-39.51723220703305,-0.3664336396177484
63106.16141776783,3.171337747189682,PPG_1,PPG_2,166511.0,166511.0,-901.2090666705335,-37.200934061749656,-0.34496541251255197
63106.17151756957,3.1814375489339,PPG_1,PPG_2,166523.0,166523.0,-889.1252550149511,-35.422583686309956,-0.32848306553563467
63106.18161737131,3.191537350678118,PPG_1,PPG_2,166522.0,166522.0,-890.0414433593978,-34.29059709510481,-0.3179914346246856
63106.19171717306,3.201637152422336,PPG_1,PPG_2,166530.0,166530.0,-881.9576317038154,-33.87084538095476,-0.31410103513292836
63106.2018169748,3.211736954159278,PPG_1,PPG_2,166521.0,166521.0,-890.873820048233,-34.18084279034625,-0.3169741949635791
63106.21191677654,3.221836755903496,PPG_1,PPG_2,166538.0,166538.0,-873.7900083926797,-35.18662554917935,-0.3262961264813709
63106.222016578286,3.231936557647714,PPG_1,PPG_2,166540.0,166540.0,-871.7061967370973,-36.80306003975974,-0.3412777828001462
63106.23211638003,3.242036359391932,PPG_1,PPG_2,166519.0,166519.0,-892.622385081515,-38.89851556683631,-0.36069916654373807
63106.242216181774,3.25213616113615,PPG_1,PPG_2,166512.0,166512.0,-899.5385734259617,-41.30458768577893,-0.3829994489085636
63106.25231598351,3.262235962873092,PPG_1,PPG_2,166549.0,166549.0,-862.4547617703793,-43.829653477664934,-0.40640260449376103
63106.262415785255,3.27233576461731,PPG_1,PPG_2,166512.0,166512.0,-899.370950114826,-46.27378052374842,-0.42905559267065807
63106.272515587,3.282435566361528,PPG_1,PPG_2,166524.0,166524.0,-887.2871384592436,-48.443784888783554,-0.4491679200162132
63106.28261538874,3.292535368105746,PPG_1,PPG_2,166523.0,166523.0,-888.2033268036612,-50.168212145779066,-0.46515048946866216
63106.29271519049,3.302635169849964,PPG_1,PPG_2,166503.0,166503.0,-908.1195151481079,-51.31086093120642,-0.47574094116719773
63106.302814992225,3.312734971586906,PPG_1,PPG_2,166524.0,166524.0,-887.0357034925255,-51.7802849036322,-0.48009171978746346
63106.31291479397,3.322834773331124,PPG_1,PPG_2,166522.0,166522.0,-888.9518918369431,-51.53274685350616,-0.477797454220613
63106.32301459571,3.332934575075342,PPG_1,PPG_2,166574.0,166574.0,-836.8680801813898,-50.56764435943662,-0.468852561023394
63106.33311439746,3.34303437681956,PPG_1,PPG_2,166544.0,166544.0,-866.7842685258074,-48.91798277244639,-0.4535629448449499
63106.343214199194,3.353134178556502,PPG_1,PPG_2,166547.0,166547.0,-863.700456870225,-46.64164141033576,-0.43246505059059676
63106.35331400094,3.36323398030072,PPG_1,PPG_2,166540.0,166540.0,-870.6166452146717,-43.8179594159473,-0.4062942200125803
63106.36341380268,3.373333782044938,PPG_1,PPG_2,166529.0,166529.0,-881.5328335590893,-40.54902986557893,-0.37599668594033775
63106.37351360443,3.383433583789156,PPG_1,PPG_2,166530.0,166530.0,-880.449021903507,-36.96059993046309,-0.34273791527861586
63106.38361340617,3.393533385533374,PPG_1,PPG_2,166609.0,166609.0,-801.3652102479537,-33.19667322532632,-0.3078525817658596
63106.39371320791,3.403633187270316,PPG_1,PPG_2,166590.0,166590.0,-820.2813985923713,-29.40583934628953,-0.27271786355225175
63106.40381300965,3.413732989014534,PPG_1,PPG_2,166577.0,166577.0,-833.1975869367889,-25.724172344914287,-0.23859494052864372
63106.4139128114,3.423832790758752,PPG_1,PPG_2,166623.0,166623.0,-787.1137752812356,-22.26253839341009,-0.20651135751612162
63106.42401261314,3.43393259250297,PPG_1,PPG_2,166552.0,166552.0,-858.0299636256532,-19.102368075754512,-0.17722184044394426
63106.434112414885,3.444032394247188,PPG_1,PPG_2,166600.0,166600.0,-809.9461519700708,-16.298480200253028,-0.1512344683902452
63106.44421221662,3.45413219598413,PPG_1,PPG_2,166597.0,166597.0,-812.8623403145175,-13.884310881722834,-0.12885913846730795
63106.454312018366,3.464231997728348,PPG_1,PPG_2,166619.0,166619.0,-790.7785286589351,-11.874808818721172,-0.11023440022075451
63106.46441182011,3.4743317994725658,PPG_1,PPG_2,166630.0,166630.0,-779.6947170033818,-10.265761498846459,-0.09532121067457382
63106.474511621855,3.4844316012167837,PPG_1,PPG_2,166624.0,166624.0,-785.6109053477994,-9.032397498144105,-0.08388997997382469
63106.48461142359,3.4945314029537258,PPG_1,PPG_2,166622.0,166622.0,-787.527093692217,-8.130982363271965,-0.0755353625551207
63106.494711225336,3.504631204697944,PPG_1,PPG_2,166613.0,166613.0,-796.4432820366637,-7.504780162167421,-0.06973151079516453
63106.50481102708,3.5147310064421617,PPG_1,PPG_2,166604.0,166604.0,-805.3594703810813,-7.0922682939645005,-0.06590821262078998
63106.514910828824,3.5248308081863797,PPG_1,PPG_2,166636.0,166636.0,-773.2756587254989,-6.833060777097447,-0.06350579052724074
63106.52501063057,3.5349306099305977,PPG_1,PPG_2,166672.0,166672.0,-737.1918470699457,-6.667774465570966,-0.06197386162574926
63106.535110432305,3.5450304116675397,PPG_1,PPG_2,166628.0,166628.0,-781.1080354143633,-6.532607589820188,-0.06072108974419057
63106.54521023405,3.5551302134117577,PPG_1,PPG_2,166676.0,166676.0,-733.0242237587809,-6.3537947485836614,-0.059063792434339506
63106.555310035794,3.5652300151559757,PPG_1,PPG_2,166660.0,166660.0,-748.9404121032276,-6.046938981753938,-0.05621975039931308
63106.56540983754,3.5753298169001937,PPG_1,PPG_2,166628.0,166628.0,-780.8566004476452,-5.52316709412484,-0.0513652570959205
63106.57550963928,3.5854296186444117,PPG_1,PPG_2,166635.0,166635.0,-773.7727887920628,-4.700861110886905,-0.04374384979390239
63106.58560944102,3.5955294203813537,PPG_1,PPG_2,166671.0,166671.0,-737.6889771365095,-3.518187380393183,-0.03278243349726122
63106.59570924276,3.605629222125572,PPG_1,PPG_2,166674.0,166674.0,-734.6051654809271,-1.9407352471331747,-0.01816207872412421
63106.60580904451,3.6157290238697897,PPG_1,PPG_2,166677.0,166677.0,-731.5213538253447,0.03703931553088903,0.0001685984214804194
63106.61590884625,3.625828825614008,PPG_1,PPG_2,166651.0,166651.0,-757.4375421697914,2.393483450715256,0.022008912008856202
63106.62600864799,3.6359286273509497,PPG_1,PPG_2,166707.0,166707.0,-701.353730514209,5.082388741973679,0.04693058695585987
63106.63610844973,3.646028429095168,PPG_1,PPG_2,166706.0,166706.0,-702.2699188586266,8.03714744557676,0.07431628038188721
63106.64620825148,3.6561282308393857,PPG_1,PPG_2,166697.0,166697.0,-711.1861072030733,11.17595719753053,0.10340782057595169
63106.65630805322,3.666228032583603,PPG_1,PPG_2,166697.0,166697.0,-711.1022955474909,14.405297405823411,0.13333842736452287
63106.666407854966,3.6763278343278216,PPG_1,PPG_2,166734.0,166734.0,-674.0184838919376,17.620166711683627,0.16313491298200292
63106.6765076567,3.686427636064763,PPG_1,PPG_2,166711.0,166711.0,-696.9346722363553,20.7021323002744,0.1916996024288237
63106.68660745845,3.6965274378089816,PPG_1,PPG_2,166704.0,166704.0,-703.8508605807729,23.516338566554506,0.21778260878462963
63106.69670726019,3.7066272395532,PPG_1,PPG_2,166745.0,166745.0,-662.7670489252196,25.908566676463884,0.23995458023638158
63106.706807061935,3.7167270412974176,PPG_1,PPG_2,166699.0,166699.0,-708.6832372696372,27.704769986931993,0.25660239419537306
63106.71690686368,3.726826843041635,PPG_1,PPG_2,166739.0,166739.0,-668.5994256140548,28.715803878767574,0.26597299497281374
63106.72700666542,3.7369266447785776,PPG_1,PPG_2,166739.0,166739.0,-668.5156139585015,28.749114675871496,0.2662817305985527
63106.73710646716,3.747026446522795,PPG_1,PPG_2,166754.0,166754.0,-653.4318023029191,27.627698519359143,0.25588807001713465
63106.747206268905,3.7571262482670136,PPG_1,PPG_2,166743.0,166743.0,-664.3479906473367,25.214150515302542,0.23351849864486157
63106.75730607065,3.767226050011232,PPG_1,PPG_2,166755.0,166755.0,-652.2641789917834,21.435800910431883,0.198499488866106
63106.767405872386,3.7773258517481736,PPG_1,PPG_2,166791.0,166791.0,-616.180367336201,16.30705727201365,0.15096457484042342
63106.77750567413,3.787425653492392,PPG_1,PPG_2,166746.0,166746.0,-661.0965556806186,9.9448134009453,0.09199716747066598
63106.787605475874,3.7975254552366096,PPG_1,PPG_2,166753.0,166753.0,-654.0127440250653,2.5719451834844023,0.02366295512782013
63106.79770527762,3.807625256980827,PPG_1,PPG_2,166729.0,166729.0,-677.9289323694829,-5.494021896310651,-0.05109512963975731
63106.80780507936,3.8177250587250455,PPG_1,PPG_2,166742.0,166742.0,-664.8451207139005,-13.865331291481441,-0.12868322926732198
63106.8179048811,3.827824860461987,PPG_1,PPG_2,166696.0,166696.0,-710.7613090583473,-22.11689953862626,-0.20516152782506628
63106.82800468285,3.8379246622062055,PPG_1,PPG_2,166729.0,166729.0,-677.6774974027649,-29.822869035362647,-0.27658303440379417
63106.83810448459,3.848024463950423,PPG_1,PPG_2,166692.0,166692.0,-714.5936857471825,-36.59219660331335,-0.3393234298378424
63106.84820428633,3.8581242656946415,PPG_1,PPG_2,166683.0,166683.0,-723.5098740916292,-42.098976319104814,-0.39036210886007006
63106.85830408808,3.868224067438859,PPG_1,PPG_2,166714.0,166714.0,-692.4260624360468,-46.103584216801856,-0.4274781562869029
63106.86840388981,3.8783238691758015,PPG_1,PPG_2,166731.0,166731.0,-675.3422507804644,-48.46173031880842,-0.4493342442728978
63106.87850369156,3.888423670920019,PPG_1,PPG_2,166717.0,166717.0,-689.2584391249111,-49.12209036929553,-0.4554546824228501
63106.8886034933,3.8985234726642375,PPG_1,PPG_2,166725.0,166725.0,-681.1746274693287,-48.11743426825975,-0.4461431931469225
63106.898703295046,3.908623274408455,PPG_1,PPG_2,166746.0,166746.0,-660.0908158137754,-45.554446351411585,-0.4223885626047309
63106.90880309678,3.9187230761453975,PPG_1,PPG_2,166695.0,166695.0,-711.007004158193,-41.60451822067613,-0.38577930557428153
63106.91890289853,3.928822877889615,PPG_1,PPG_2,166748.0,166748.0,-657.9231925026106,-36.49498409038562,-0.3384224317045715
63106.92900270027,3.9389226796338335,PPG_1,PPG_2,166752.0,166752.0,-653.8393808470573,-30.498327587788214,-0.28284341052728545
63106.939102502016,3.949022481378051,PPG_1,PPG_2,166782.0,166782.0,-623.7555691914749,-23.91752398027274,-0.2218503183087735
63106.94920230376,3.9591222831222694,PPG_1,PPG_2,166757.0,166757.0,-648.6717575358925,-17.069372778047935,-0.158379359028573
63106.9593021055,3.969222084859211,PPG_1,PPG_2,166776.0,166776.0,-629.5879458803392,-10.269646116579967,-0.09535721461296562
63106.96940190724,3.9793218866034294,PPG_1,PPG_2,166775.0,166775.0,-630.5041342247569,-3.821308726172876,-0.03559186366706997
63106.979501708985,3.989421688347647,PPG_1,PPG_2,166778.0,166778.0,-627.4203225691745,1.996378321355465,0.018328408650903814
63106.98960151073,3.9995214900918654,PPG_1,PPG_2,166802.0,166802.0,-603.3365109136212,6.940860223165991,0.06415552317920858
63106.999701312474,4.009621291836083,PPG_1,PPG_2,166828.0,166828.0,-577.2526992580388,10.822737420653153,0.1001340613651647
63107.00980111421,4.019721093573025,PPG_1,PPG_2,166812.0,166812.0,-593.1688876024564,13.523953669337239,0.12516983838941378
63107.019900915955,4.029820895317243,PPG_1,PPG_2,166861.0,166861.0,-544.0850759469031,15.013158568016632,0.13897228823211688
63107.0300007177,4.039920697061461,PPG_1,PPG_2,166829.0,166829.0,-576.0012642913207,15.352819585335777,0.1421203803175152
63107.04010051944,4.050020498805679,PPG_1,PPG_2,166812.0,166812.0,-592.9174526357383,14.693933825938132,0.1360136063912261
63107.05020032118,4.060120300542621,PPG_1,PPG_2,166819.0,166819.0,-585.833640980185,13.257650366364349,0.12270165017334694
63107.060300122925,4.070220102286839,PPG_1,PPG_2,166806.0,166806.0,-598.7498293246026,11.307961874403565,0.10463128413906381
63107.07039992467,4.080319904031057,PPG_1,PPG_2,166822.0,166822.0,-582.6660176690202,9.122132519165326,0.0843722854833798
63107.08049972641,4.090419705775275,PPG_1,PPG_2,166803.0,166803.0,-601.5822060134669,6.964066841035668,0.06437060988718882
63107.09059952816,4.100519507519493,PPG_1,PPG_2,166821.0,166821.0,-583.4983943578845,5.063269045963009,0.04675337920867275
63107.100699329894,4.110619309256435,PPG_1,PPG_2,166816.0,166816.0,-588.4145827023312,3.600548233052043,0.03319639274429503
63107.11079913164,4.120719111000653,PPG_1,PPG_2,166827.0,166827.0,-577.3307710467489,2.700589813416482,0.024855276650362274
63107.12089893338,4.130818912744871,PPG_1,PPG_2,166799.0,166799.0,-605.2469593911665,2.4305320308972966,0.02235229066021536
63107.13099873513,4.140918714489089,PPG_1,PPG_2,166825.0,166825.0,-579.1631477356132,2.8038084329231503,0.02581194139128357
63107.14109853687,4.151018516233307,PPG_1,PPG_2,166854.0,166854.0,-550.0793360800308,3.789371067916552,0.03494646602815647
63107.15119833861,4.161118317970249,PPG_1,PPG_2,166846.0,166846.0,-557.9955244244484,5.325116507431099,0.049180269193091555
63107.16129814035,4.171218119714467,PPG_1,PPG_2,166824.0,166824.0,-579.9117127688951,7.3311083644228425,0.06777247367452482
63107.1713979421,4.181317921458685,PPG_1,PPG_2,166853.0,166853.0,-550.8279011133127,9.71795965530951,0.08989461096649119
63107.18149774384,4.191417723202903,PPG_1,PPG_2,166838.0,166838.0,-565.7440894577303,12.389465595172336,0.11465502289646727
63107.19159754558,4.201517524939845,PPG_1,PPG_2,166831.0,166831.0,-572.660277802177,15.241388390947492,0.14108759868160956
63107.20169734732,4.211617326684063,PPG_1,PPG_2,166814.0,166814.0,-589.5764661465946,18.1589705224752,0.16812872718453667
63107.211797149066,4.221717128428281,PPG_1,PPG_2,166846.0,166846.0,-557.4926544910122,21.01706753168564,0.19461852764798496
63107.22189695081,4.231816930172499,PPG_1,PPG_2,166878.0,166878.0,-525.4088428354589,23.687259169780507,0.21936675818892146
63107.231996752555,4.241916731916717,PPG_1,PPG_2,166839.0,166839.0,-564.3250311798765,26.05259796150831,0.24128951043260152
63107.24209655429,4.252016533653659,PPG_1,PPG_2,166886.0,166886.0,-517.2412195242941,28.02575211455215,0.2595773640741387
63107.25219635603,4.262116335397877,PPG_1,PPG_2,166864.0,166864.0,-539.1574078687408,29.565355251208242,0.2738469216684016
63107.26229615778,4.272216137142095,PPG_1,PPG_2,166855.0,166855.0,-548.0735962131585,30.687415647343332,0.28424655327844534
63107.27239595952,4.282315938886313,PPG_1,PPG_2,166872.0,166872.0,-530.9897845575761,31.470626168877327,0.29150561074551157
63107.28249576127,4.292415740630531,PPG_1,PPG_2,166887.0,166887.0,-515.9059729020228,32.055909783451135,0.29693021533892566
63107.292595563005,4.302515542367473,PPG_1,PPG_2,166880.0,166880.0,-522.8221612464404,32.64030782697362,0.3023466121631947
63107.30269536475,4.312615344111691,PPG_1,PPG_2,166877.0,166877.0,-525.7383495908871,33.46333529950454,0.3099747064696588
63107.312795166494,4.322715145855909,PPG_1,PPG_2,166852.0,166852.0,-550.6545379353047,34.783889813968145,0.3222140480583162
63107.32289496824,4.332814947600127,PPG_1,PPG_2,166853.0,166853.0,-549.5707262797223,36.8493387021547,0.3413573202212956
63107.332994769975,4.342914749337069,PPG_1,PPG_2,166872.0,166872.0,-530.486914624169,39.86240163588072,0.3692833967823791
63107.34309457172,4.353014551081287,PPG_1,PPG_2,166837.0,166837.0,-565.4031029685866,43.95243123109086,0.4071911611156287
63107.35319437346,4.363114352825505,PPG_1,PPG_2,166891.0,166891.0,-511.3192913130042,49.155828545469575,0.45541799041699405
63107.36329417521,4.373214154569723,PPG_1,PPG_2,166863.0,166863.0,-539.2354796574509,55.40799324966863,0.513365147194783
63107.37339397695,4.383313956313941,PPG_1,PPG_2,166881.0,166881.0,-521.1516680018685,62.54726794140981,0.5795343364939995
63107.38349377869,4.393413758050883,PPG_1,PPG_2,166910.0,166910.0,-492.06785634628613,70.32985553581506,0.6516659652668294
63107.39359358043,4.403513559795101,PPG_1,PPG_2,166901.0,166901.0,-500.98404469073284,78.45370689543955,0.7269605409294714
63107.40369338218,4.413613361539319,PPG_1,PPG_2,166897.0,166897.0,-504.90023303515045,86.58836639656613,0.8023552900679779
63107.41379318392,4.423713163283537,PPG_1,PPG_2,166963.0,166963.0,-438.81642137956806,94.40743860546988,0.8748250704692992
63107.423892985666,4.433812965027755,PPG_1,PPG_2,166953.0,166953.0,-448.73260972401476,101.62018657470479,0.9416752347158085
63107.4339927874,4.443912766764697,PPG_1,PPG_2,166935.0,166935.0,-466.64879806843237,107.99676076713729,1.0007754603042234
63107.44409258915,4.454012568508915,PPG_1,PPG_2,166948.0,166948.0,-453.56498641285,113.38078742588067,1.0506764228749088
63107.45419239089,4.464112370253133,PPG_1,PPG_2,166949.0,166949.0,-452.4811747572967,117.68710304672507,1.0905887985434701
63107.464292192635,4.474212171997351,PPG_1,PPG_2,166935.0,166935.0,-466.3973631017143,120.88711852303626,1.120247613893075
63107.47439199437,4.484311973734293,PPG_1,PPG_2,166910.0,166910.0,-491.3135514461319,122.98584670772837,1.139699329723696
63107.48449179611,4.494411775478511,PPG_1,PPG_2,166953.0,166953.0,-448.2297397905786,123.99550512863955,1.149057182175865
63107.49459159786,4.504511577222729,PPG_1,PPG_2,166864.0,166864.0,-537.1459281349962,123.9118047451536,1.1482814189844437
63107.504691399605,4.514611378966947,PPG_1,PPG_2,166930.0,166930.0,-471.0621164794429,122.6991195212792,1.1370418461141445
63107.51479120135,4.524711180711165,PPG_1,PPG_2,166916.0,166916.0,-484.9783048238605,120.28989042213014,1.1147123037992661
63107.524891003086,4.534810982448107,PPG_1,PPG_2,166937.0,166937.0,-463.89449316827813,116.60055936264774,1.080518347717877
63107.53499080483,4.544910784192325,PPG_1,PPG_2,166929.0,166929.0,-471.81068151272484,111.5602971413663,1.0338035091050037
63107.545090606574,4.555010585936543,PPG_1,PPG_2,166924.0,166924.0,-476.72686985714245,105.14419312020705,0.9743369078225688
63107.55519040832,4.565110387680761,PPG_1,PPG_2,166914.0,166914.0,-486.64305820156005,97.40263549732208,0.9025855585696748
63107.56529021006,4.575210189424979,PPG_1,PPG_2,166923.0,166923.0,-477.55924654600676,88.48105917723926,0.8198974007580874
63107.5753900118,4.585309991161921,PPG_1,PPG_2,166854.0,166854.0,-546.4754348904244,78.62644732548416,0.7285615570983088
63107.585489813544,4.595409792906139,PPG_1,PPG_2,166880.0,166880.0,-520.391623234842,68.17939027793561,0.6317347329114444
63107.59558961529,4.605509594650357,PPG_1,PPG_2,166874.0,166874.0,-526.3078115792887,57.553563599956334,0.5332510119069516
63107.60568941703,4.615609396394575,PPG_1,PPG_2,166818.0,166818.0,-582.2239999237063,47.20564416815146,0.4373430283511115
63107.61578921877,4.625709198131517,PPG_1,PPG_2,166813.0,166813.0,-587.1401882681239,37.59784582222833,0.3482947349389641
63107.62588902051,4.635808999875735,PPG_1,PPG_2,166812.0,166812.0,-588.0563766125706,29.1564364029807,0.27005692480671944
63107.63598882226,4.645908801619953,PPG_1,PPG_2,166772.0,166772.0,-627.9725649569882,22.232049705309457,0.2058793894179753
63107.646088624,4.656008603364171,PPG_1,PPG_2,166762.0,166762.0,-637.8887533014058,17.067647856923205,0.158013983157812
63107.656188425746,4.666108405108389,PPG_1,PPG_2,166798.0,166798.0,-601.8049416458525,13.778851208291002,0.1275323141639413
63107.66628822748,4.676208206845331,PPG_1,PPG_2,166785.0,166785.0,-614.7211299902701,12.349635823560334,0.11428586723131436
63107.67638802923,4.686308008589549,PPG_1,PPG_2,166773.0,166773.0,-626.6373183346877,12.642236698436404,0.11699779015272657
63107.68648783097,4.696407810333767,PPG_1,PPG_2,166797.0,166797.0,-602.5535066791344,14.416425591493997,0.13344156711694696
63107.69658763272,4.706507612077985,PPG_1,PPG_2,166771.0,166771.0,-628.469695023552,17.353601068946322,0.16066429331312304
63107.70668743446,4.716607413822203,PPG_1,PPG_2,166793.0,166793.0,-606.3858833679697,21.08292890129153,0.19522895288319816
63107.7167872362,4.726707215559145,PPG_1,PPG_2,166789.0,166789.0,-610.3020717124164,25.207522753779678,0.23345707033095403
63107.72688703794,4.736807017303363,PPG_1,PPG_2,166796.0,166796.0,-603.218260056834,29.32868233082139,0.2716533577634867
63107.736986839685,4.746906819047581,PPG_1,PPG_2,166794.0,166794.0,-605.1344484012807,33.06592869666122,0.3062914089544759
63107.74708664143,4.757006620791799,PPG_1,PPG_2,166774.0,166774.0,-625.0506367456983,36.070767121523836,0.3341412580124343
63107.75718644317,4.767106422528741,PPG_1,PPG_2,166763.0,166763.0,-635.9668250901159,38.03390618019035,0.35233628840450754
63107.76728624491,4.777206224272959,PPG_1,PPG_2,166777.0,166777.0,-621.8830134345626,38.688560878969184,0.35840384744369524
63107.777386046655,4.787306026017177,PPG_1,PPG_2,166754.0,166754.0,-644.7992017789802,37.81406514255886,0.3502987280271765
63107.7874858484,4.797405827761395,PPG_1,PPG_2,166761.0,166761.0,-637.7153901233978,35.2429198000657,0.3264684917315989
63107.79758565014,4.807505629505613,PPG_1,PPG_2,166751.0,166751.0,-647.6315784678445,30.8722937089497,0.28596006508236227
63107.80768545188,4.817605431242555,PPG_1,PPG_2,166766.0,166766.0,-632.5477668122621,24.679421995745756,0.22856245560659974
63107.817785253625,4.827705232986773,PPG_1,PPG_2,166760.0,166760.0,-638.4639551566797,16.73840221878928,0.15496242429556129
63107.82788505537,4.837805034730991,PPG_1,PPG_2,166749.0,166749.0,-649.3801435011264,7.233328302729529,0.06686621530918156
63107.83798485711,4.847904836475209,PPG_1,PPG_2,166758.0,166758.0,-640.296331845544,-3.5387518133256357,-0.03297303155018564
63107.84808465886,4.858004638219427,PPG_1,PPG_2,166691.0,166691.0,-707.2125201899617,-15.180737625420983,-0.14087485579438677
63107.858184460594,4.868104439956369,PPG_1,PPG_2,166664.0,166664.0,-734.1287085344084,-27.22643769997542,-0.2525184390559782
63107.86828426234,4.878204241700587,PPG_1,PPG_2,166656.0,166656.0,-742.044896878826,-39.18571275790742,-0.36336100631356383
63107.87838406408,4.888304043444805,PPG_1,PPG_2,166628.0,166628.0,-769.9610852232436,-50.59453018079119,-0.46910174782170183
63107.88848386583,4.898403845189023,PPG_1,PPG_2,166571.0,166571.0,-826.8772735676903,-61.059832367033174,-0.5660976740655852
63107.89858366757,4.908503646925965,PPG_1,PPG_2,166617.0,166617.0,-780.7934619121079,-70.29089413293721,-0.6516542466579608
63107.90868346931,4.918603448670183,PPG_1,PPG_2,166636.0,166636.0,-761.7096502565255,-78.11109951594736,-0.7241345296964818
63107.91878327105,4.928703250414401,PPG_1,PPG_2,166598.0,166598.0,-799.6258386009722,-84.44992731089853,-0.7828849090290586
63107.9288830728,4.938803052158619,PPG_1,PPG_2,166603.0,166603.0,-794.5420269453898,-89.32257483686756,-0.8280462384995695
63107.93898287454,4.948902853902837,PPG_1,PPG_2,166580.0,166580.0,-817.4582152898365,-92.80615279616266,-0.8603332059269229
63107.94908267628,4.959002655639779,PPG_1,PPG_2,166605.0,166605.0,-792.3744036342541,-95.01688123830554,-0.8808229776605327
63107.95918247802,4.969102457383997,PPG_1,PPG_2,166581.0,166581.0,-816.2905919786717,-96.0897083378697,-0.8907662985861877
63107.969282279766,4.979202259128215,PPG_1,PPG_2,166567.0,166567.0,-830.2067803231184,-96.1621612995128,-0.8914378169043998
63107.97938208151,4.989302060872433,PPG_1,PPG_2,166570.0,166570.0,-827.122968667536,-95.36399204178154,-0.8840401168595016
63107.989481883254,4.999401862616651,PPG_1,PPG_2,166571.0,166571.0,-826.0391570119536,-93.81200466305015,-0.869655777961312
63107.99958168499,5.009501664353593,PPG_1,PPG_2,166581.0,166581.0,-815.9553453564004,-91.60838727504427,-0.849231913859447
63108.009681486736,5.019601466097811,PPG_1,PPG_2,166581.0,166581.0,-815.871533700818,-88.84246417585057,-0.8235964120697004
63108.01978128848,5.029701267842029,PPG_1,PPG_2,166538.0,166538.0,-858.7877220452356,-85.59744743866584,-0.7935205099601634
63108.029881090224,5.039801069586247,PPG_1,PPG_2,166535.0,166535.0,-861.7039103896823,-81.96217396918979,-0.7598275777307251
63108.03998089196,5.049900871323189,PPG_1,PPG_2,166560.0,166560.0,-836.6200987340999,-78.04334039204488,-0.7235065154387536
63108.050080693705,5.060000673067407,PPG_1,PPG_2,166556.0,166556.0,-840.5362870785175,-73.97150274710707,-0.6857673601944194
63108.06018049545,5.070100474811625,PPG_1,PPG_2,166557.0,166557.0,-839.4524754229642,-69.89737235013625,-0.648006954956236
63108.070280297194,5.080200276555843,PPG_1,PPG_2,166581.0,166581.0,-815.3686637673818,-65.97983318449347,-0.6116978897036576
63108.08038009894,5.090300078300061,PPG_1,PPG_2,166559.0,166559.0,-837.2848521117994,-62.36928722465792,-0.5782341403165873
63108.090479900675,5.100399880037003,PPG_1,PPG_2,166566.0,166566.0,-830.2010404562461,-59.18993447958159,-0.5487668340815008
63108.10057970242,5.110499681781221,PPG_1,PPG_2,166580.0,166580.0,-816.1172288006637,-56.52367745047752,-0.5240550708146744
63108.11067950416,5.120599483525439,PPG_1,PPG_2,166588.0,166588.0,-808.0334171450813,-54.397510698047256,-0.5043490451471081
63108.12077930591,5.130699285269657,PPG_1,PPG_2,166562.0,166562.0,-833.949605489528,-52.77690895101121,-0.4893287652995881
63108.13087910765,5.140799087013875,PPG_1,PPG_2,166553.0,166553.0,-842.8657938339456,-51.568082525941996,-0.4781249570692044
63108.14097890939,5.150898888750817,PPG_1,PPG_2,166572.0,166572.0,-823.7819821783924,-50.62941736673623,-0.4694250939472662
63108.15107871113,5.160998690495035,PPG_1,PPG_2,166561.0,166561.0,-834.69817052281,-49.78948005563944,-0.46164027359265347
63108.16117851288,5.171098492239253,PPG_1,PPG_2,166547.0,166547.0,-848.6143588672276,-48.86916231527763,-0.4531104604944302
63108.17127831462,5.181198293983471,PPG_1,PPG_2,166506.0,166506.0,-889.5305472116743,-47.706418504674524,-0.4423337613712977
63108.18137811636,5.191298095720413,PPG_1,PPG_2,166538.0,166538.0,-857.4467355560919,-46.17976096504765,-0.42818418790671237
63108.1914779181,5.201397897464631,PPG_1,PPG_2,166575.0,166575.0,-820.3629239005095,-44.22413429177555,-0.4100587848189123
63108.20157771985,5.211497699208849,PPG_1,PPG_2,166553.0,166553.0,-842.2791122449562,-41.83595551484346,-0.38792434394160646
63108.21167752159,5.221597500953067,PPG_1,PPG_2,166538.0,166538.0,-857.1953005893738,-39.07096751770775,-0.3622975089909662
63108.221777323335,5.231697302697285,PPG_1,PPG_2,166551.0,166551.0,-844.1114889337914,-36.0405600595904,-0.3342106775678962
63108.23187712507,5.241797104434227,PPG_1,PPG_2,166516.0,166516.0,-879.0276772782381,-32.907838548865996,-0.30517556523293504
63108.241976926816,5.251896906178445,PPG_1,PPG_2,166556.0,166556.0,-838.9438656226557,-29.880602975594396,-0.2771181319011077
63108.25207672856,5.261996707922663,PPG_1,PPG_2,166544.0,166544.0,-850.8600539670733,-27.198305535815244,-0.2522577007350582
63108.262176530305,5.272096509666881,PPG_1,PPG_2,166534.0,166534.0,-860.77624231152,-25.11256625028281,-0.23292637037276495
63108.27227633205,5.282196311411099,PPG_1,PPG_2,166546.0,166546.0,-848.6924306559376,-23.863056995350487,-0.22134550004760653
63108.282376133786,5.292296113148041,PPG_1,PPG_2,166572.0,166572.0,-822.6086190003552,-23.651001294938478,-0.21938009678349454
63108.29247593553,5.302395914892259,PPG_1,PPG_2,166538.0,166538.0,-856.524807344802,-24.613133806844715,-0.2282974631911636
63108.302575737274,5.312495716636477,PPG_1,PPG_2,166534.0,166534.0,-860.4409956892196,-26.800403452103172,-0.2485698109372116
63108.31267553902,5.322595518380695,PPG_1,PPG_2,166557.0,166557.0,-837.3571840336372,-30.164939069673103,-0.27975345406562085
63108.322775340755,5.332695320117637,PPG_1,PPG_2,166537.0,166537.0,-857.2733723780839,-34.55646782577695,-0.3204556136157695
63108.3328751425,5.342795121861855,PPG_1,PPG_2,166504.0,166504.0,-890.1895607225015,-39.729021217733745,-0.3683965711122824
63108.34297494424,5.3528949236060726,PPG_1,PPG_2,166506.0,166506.0,-888.1057490669482,-45.3584758251778,-0.42057224212298344
63108.35307474599,5.3629947253502905,PPG_1,PPG_2,166516.0,166516.0,-878.0219374113658,-51.06869901270417,-0.4734965033890894
63108.36317454773,5.3730945270945085,PPG_1,PPG_2,166480.0,166480.0,-913.9381257557834,-56.46238586280998,-0.5234869998492142
63108.37327434947,5.3831943288314505,PPG_1,PPG_2,166479.0,166479.0,-914.8543141002301,-61.15401294897567,-0.5669705712468734
63108.38337415121,5.3932941305756685,PPG_1,PPG_2,166458.0,166458.0,-935.7705024446477,-64.80280405979869,-0.6007887895043451
63108.39347395296,5.4033939323198865,PPG_1,PPG_2,166452.0,166452.0,-941.6866907890653,-67.14176552373125,-0.6224670678383561
63108.4035737547,5.4134937340641045,PPG_1,PPG_2,166471.0,166471.0,-922.602879133512,-67.99780605475597,-0.6304011382293866
63108.413673556446,5.4235935358083225,PPG_1,PPG_2,166479.0,166479.0,-914.5190674779296,-67.29975990454028,-0.6239314126833667
63108.42377335818,5.4336933375452645,PPG_1,PPG_2,166477.0,166477.0,-916.4352558223472,-65.07509663763499,-0.6033124883260846
63108.43387315993,5.4437931392894825,PPG_1,PPG_2,166470.0,166470.0,-923.351444166794,-61.43944617163692,-0.5696160619665969
63108.44397296167,5.4538929410337005,PPG_1,PPG_2,166465.0,166465.0,-928.2676325112116,-56.58292263762406,-0.5246041750546193
63108.454072763416,5.4639927427779185,PPG_1,PPG_2,166492.0,166492.0,-901.1838208556292,-50.75441620923636,-0.4705836250906529
63108.46417256515,5.4740925445148605,PPG_1,PPG_2,166487.0,166487.0,-906.1000092000759,-44.243362543798206,-0.4102369986995817
63108.4742723669,5.4841923462590785,PPG_1,PPG_2,166487.0,166487.0,-906.0161975444935,-37.35953334859183,-0.3464353638293042
63108.48437216864,5.4942921480032965,PPG_1,PPG_2,166505.0,166505.0,-887.9323858889111,-30.412645832956798,-0.28204928332253065
63108.494471970385,5.5043919497475144,PPG_1,PPG_2,166505.0,166505.0,-887.8485742333578,-23.693272718850924,-0.2197718825000528
63108.50457177213,5.514491751491732,PPG_1,PPG_2,166508.0,166508.0,-884.7647625777754,-17.456029257687096,-0.1619630208009109
63108.51467157387,5.5245915532286745,PPG_1,PPG_2,166519.0,166519.0,-873.680950922193,-11.906098933873793,-0.11052440748929722
63108.52477137561,5.534691354972892,PPG_1,PPG_2,166507.0,166507.0,-885.5971392666397,-7.189890214018659,-0.06681300527644855
63108.534871177355,5.54479115671711,PPG_1,PPG_2,166520.0,166520.0,-872.5133276110573,-3.389853439423438,-0.031592991544094055
63108.5449709791,5.554890958461328,PPG_1,PPG_2,166545.0,166545.0,-847.4295159554749,-0.5230389920450328,-0.005022394943608538
63108.55507078084,5.564990760205546,PPG_1,PPG_2,166516.0,166516.0,-876.3457042999216,1.456290399752307,0.013322692879227306
63108.56517058258,5.575090561942488,PPG_1,PPG_2,166524.0,166524.0,-868.2618926443392,2.648514459149329,0.024372624823235753
63108.575270384325,5.585190363686706,PPG_1,PPG_2,166509.0,166509.0,-883.178080988786,3.194401723283315,0.02943209084410456
63108.58537018607,5.595290165430924,PPG_1,PPG_2,166537.0,166537.0,-855.0942693332036,3.2567944670756623,0.030010367693385796
63108.59546998781,5.605389967175142,PPG_1,PPG_2,166476.0,166476.0,-916.0104576776212,3.001400083175381,0.027643286993464865
63108.60556978955,5.615489768912084,PPG_1,PPG_2,166532.0,166532.0,-859.9266460220679,2.5794699885835457,0.02373269754207699
63108.615669591294,5.625589570656302,PPG_1,PPG_2,166514.0,166514.0,-877.8428343664855,2.1150105327959166,0.019427931724987055
63108.62576939304,5.63568937240052,PPG_1,PPG_2,166493.0,166493.0,-898.7590227109031,1.698135375436492,0.015564193125130915
63108.63586919478,5.645789174144738,PPG_1,PPG_2,166522.0,166522.0,-869.6752110553498,1.3843382401993998,0.012655816162541876
63108.64596899653,5.655888975888956,PPG_1,PPG_2,166521.0,166521.0,-870.5913993997674,1.1990733432794252,0.010938719039359486
63108.656068798264,5.665988777625898,PPG_1,PPG_2,166501.0,166501.0,-890.507587744185,1.146858609736834,0.010454775398420069
63108.66616860001,5.676088579370116,PPG_1,PPG_2,166531.0,166531.0,-860.4237760886317,1.2229579487940678,0.01116008956394005
63108.67626840175,5.686188381114334,PPG_1,PPG_2,166537.0,166537.0,-854.3399644330493,1.4252353567748528,0.013034864338346594
63108.6863682035,5.696288182858552,PPG_1,PPG_2,166517.0,166517.0,-874.2561527774669,1.7634631187277034,0.01616967253290988
63108.69646800523,5.706387984595494,PPG_1,PPG_2,166507.0,166507.0,-884.1723411219136,2.2629223150048885,0.02079882766878537
63108.70656780698,5.716487786339712,PPG_1,PPG_2,166526.0,166526.0,-865.0885294663312,2.961112086571312,0.027269884345592986
63108.71666760872,5.72658758808393,PPG_1,PPG_2,166494.0,166494.0,-897.0047178107488,3.8997682228117307,0.03596966383966587
63108.726767410466,5.736687389828148,PPG_1,PPG_2,166511.0,166511.0,-879.9209061551956,5.115717328473993,0.04723948745968356
63108.73686721221,5.746787191572366,PPG_1,PPG_2,166523.0,166523.0,-867.8370944996132,6.633644631365797,0.061308146165824605
63108.74696701395,5.756886993309308,PPG_1,PPG_2,166519.0,166519.0,-871.7532828440308,8.462686173559728,0.07826031585633476
63108.75706681569,5.766986795053526,PPG_1,PPG_2,166530.0,166530.0,-860.6694711884775,10.596573710103955,0.09803790033731478
63108.76716661744,5.777086596797744,PPG_1,PPG_2,166503.0,166503.0,-887.5856595328951,13.015555919499771,0.12045783774497763
63108.77726641918,5.787186398541962,PPG_1,PPG_2,166528.0,166528.0,-862.5018478773418,15.68933685173535,0.14523933506632283
63108.78736622093,5.79728620028618,PPG_1,PPG_2,166540.0,166540.0,-850.4180362217594,18.582115470224092,0.17205057630192575
63108.79746602266,5.807386002023122,PPG_1,PPG_2,166542.0,166542.0,-848.334224566177,21.660383421715323,0.20058099480950362
63108.807565824405,5.81748580376734,PPG_1,PPG_2,166564.0,166564.0,-826.2504129106237,24.901415406530138,0.23061996489929623
63108.81766562615,5.827585605511558,PPG_1,PPG_2,166538.0,166538.0,-852.1666012550413,28.29846639656712,0.2621049713914651
63108.82776542789,5.837685407255776,PPG_1,PPG_2,166544.0,166544.0,-846.0827895994589,31.85968443379702,0.29511153306835997
63108.83786522964,5.847785208999994,PPG_1,PPG_2,166561.0,166561.0,-828.9989779439056,35.60081151649665,0.32978555204313675
63108.847965031375,5.857885010736936,PPG_1,PPG_2,166554.0,166554.0,-835.9151662883232,39.534077297974,0.36624037683924376
63108.85806483312,5.867984812481154,PPG_1,PPG_2,166545.0,166545.0,-844.8313546327408,43.65559316733071,0.4044399665082997
63108.86816463486,5.878084614225372,PPG_1,PPG_2,166541.0,166541.0,-848.7475429771875,47.93319594669875,0.4440862219440641
63108.87826443661,5.88818441596959,PPG_1,PPG_2,166564.0,166564.0,-825.6637313216052,52.29807861432447,0.48454141662050754
63108.888364238344,5.898284217706532,PPG_1,PPG_2,166588.0,166588.0,-801.5799196660228,56.64403541286255,0.5248212000026131
63108.89846404009,5.90838401945075,PPG_1,PPG_2,166567.0,166567.0,-822.4961080104695,60.83515749941043,0.5636659234087212
63108.90856384183,5.918483821194968,PPG_1,PPG_2,166596.0,166596.0,-793.4122963548871,64.7191089204154,0.5996636861930468
63108.91866364358,5.928583622939186,PPG_1,PPG_2,166603.0,166603.0,-786.3284846993047,68.14232015975176,0.6313911546386699
63108.92876344532,5.938683424683404,PPG_1,PPG_2,166597.0,166597.0,-792.2446730437514,70.96426815726424,0.6575459139527996
63108.93886324706,5.948783226420346,PPG_1,PPG_2,166612.0,166612.0,-777.160861388169,73.06817259224042,0.6770456050049514
63108.9489630488,5.958883028164564,PPG_1,PPG_2,166611.0,166611.0,-778.0770497325866,74.36579292455585,0.6890723849111539
63108.95906285055,5.968982829908782,PPG_1,PPG_2,166595.0,166595.0,-793.9932380770333,74.79518440477665,0.6930521289839052
63108.96916265229,5.979082631653,PPG_1,PPG_2,166562.0,166562.0,-826.9094264214509,74.31208877893053,0.6885746369001206
63108.97926245403,5.989182433389942,PPG_1,PPG_2,166596.0,166596.0,-792.8256147658976,72.87878677168001,0.6752903137810761
63108.98936225577,5.99928223513416,PPG_1,PPG_2,166580.0,166580.0,-808.7418031103152,70.45682473666534,0.6528427583514199
63108.99946205752,6.009382036878378,PPG_1,PPG_2,166585.0,166585.0,-803.6579914547328,67.008539488678,0.6208828955945321
63109.00956185926,6.019481838622596,PPG_1,PPG_2,166592.0,166592.0,-796.5741797991795,62.5081129378352,0.5791714348050455
63109.019661661005,6.029581640366814,PPG_1,PPG_2,166615.0,166615.0,-773.4903681435972,56.95974056348674,0.5277472610909413
63109.02976146274,6.039681442103756,PPG_1,PPG_2,166590.0,166590.0,-798.4065564880148,50.41832869327938,0.46711926468892456
63109.039861264486,6.049781243847974,PPG_1,PPG_2,166589.0,166589.0,-799.3227448324615,43.00651907694926,0.3984241304170858
63109.04996106623,6.059881045592192,PPG_1,PPG_2,166611.0,166611.0,-777.2389331768791,34.92256434397389,0.3234993300544754
63109.060060867974,6.06998084733641,PPG_1,PPG_2,166553.0,166553.0,-835.1551215212967,26.43589975799583,0.24484207987776552
63109.07016066972,6.080080649080628,PPG_1,PPG_2,166557.0,166557.0,-831.0713098657434,17.86935135058592,0.1654444396851926
63109.080260471455,6.09018045081757,PPG_1,PPG_2,166538.0,166538.0,-849.987498210161,9.569969485621401,0.08852298850127864
63109.0903602732,6.100280252561788,PPG_1,PPG_2,166548.0,166548.0,-839.9036865545786,1.873881078776366,0.017193063173550904
63109.100460074944,6.110380054306006,PPG_1,PPG_2,166475.0,166475.0,-912.8198748990253,-4.928685330175143,-0.04585540097296944
63109.11055987669,6.120479856050224,PPG_1,PPG_2,166517.0,166517.0,-870.7360632434429,-10.622464097758105,-0.09862724984662181
63109.120659678425,6.130579657787166,PPG_1,PPG_2,166529.0,166529.0,-858.6522515878605,-15.084025545227197,-0.13997849583932487
63109.13075948017,6.140679459531384,PPG_1,PPG_2,166512.0,166512.0,-875.5684399323072,-18.282233299638285,-0.16962055661682346
63109.14085928191,6.150779261275602,PPG_1,PPG_2,166565.0,166565.0,-822.4846282767248,-20.26409614806218,-0.1879891253643109
63109.15095908366,6.16087906301982,PPG_1,PPG_2,166531.0,166531.0,-856.4008166211424,-21.132816450143295,-0.19604071612085855
63109.1610588854,6.170978864764038,PPG_1,PPG_2,166527.0,166527.0,-860.3170049655891,-21.02571641925918,-0.19504807715912748
63109.17115868714,6.18107866650098,PPG_1,PPG_2,166521.0,166521.0,-866.2331933100068,-20.096991549485054,-0.18644034396935905
63109.18125848888,6.191178468245198,PPG_1,PPG_2,166543.0,166543.0,-844.1493816544244,-18.50551500975206,-0.1716900062992488
63109.19135829063,6.201278269989416,PPG_1,PPG_2,166548.0,166548.0,-839.0655699988711,-16.405346821016487,-0.15222494402879222
63109.20145809237,6.211378071733634,PPG_1,PPG_2,166540.0,166540.0,-846.9817583432887,-13.938297580607383,-0.12935950527659518
63109.21155789411,6.221477873477852,PPG_1,PPG_2,166547.0,166547.0,-839.8979466877354,-11.230100481508615,-0.10425902739231434
63109.22165769585,6.231577675214794,PPG_1,PPG_2,166566.0,166566.0,-820.814135032153,-8.391299786133825,-0.07794807162921709
63109.2317574976,6.241677476959012,PPG_1,PPG_2,166529.0,166529.0,-857.7303233765706,-5.522535931218002,-0.0513594072666781
63109.24185729934,6.25177727870323,PPG_1,PPG_2,166530.0,166530.0,-856.6465117210173,-2.72275262687191,-0.025410077753363073
63109.251957101085,6.261877080447448,PPG_1,PPG_2,166560.0,166560.0,-826.5627000654349,-0.09672889856152725,-0.001071210195316266
63109.26205690282,6.27197688218439,PPG_1,PPG_2,166582.0,166582.0,-804.4788884098525,2.2427594162848337,0.02061195116944411
63109.27215670457,6.282076683928608,PPG_1,PPG_2,166567.0,166567.0,-819.3950767542992,4.179338788872531,0.038560817494191324
63109.28225650631,6.292176485672826,PPG_1,PPG_2,166538.0,166538.0,-848.3112650987168,5.6005571296849075,0.05173314514499883
63109.292356308055,6.302276287417044,PPG_1,PPG_2,166574.0,166574.0,-812.2274534431344,6.405863336458605,0.05919699282429955
63109.3024561098,6.312376089161262,PPG_1,PPG_2,166583.0,166583.0,-803.1436417875811,6.516506073245394,0.06022246677104342
63109.312555911536,6.322475890898204,PPG_1,PPG_2,166586.0,166586.0,-800.0598301319988,5.888814847033059,0.054404814227606714
63109.32265571328,6.332575692642422,PPG_1,PPG_2,166583.0,166583.0,-802.9760184764164,4.528114784680053,0.04179339025348127
63109.332755515024,6.34267549438664,PPG_1,PPG_2,166593.0,166593.0,-792.8922068208631,2.498294840054599,0.022980339074119803
63109.34285531677,6.352775296130858,PPG_1,PPG_2,166577.0,166577.0,-808.8083951652807,-0.07649496296175094,-0.0008836753023783922
63109.35295511851,6.362875097875076,PPG_1,PPG_2,166576.0,166576.0,-809.7245835096983,-3.0192974261781713,-0.028158554287498024
63109.36305492025,6.372974899612018,PPG_1,PPG_2,166574.0,166574.0,-811.640771854145,-6.116399656570704,-0.05686353520088667
63109.373154721994,6.383074701356236,PPG_1,PPG_2,166548.0,166548.0,-837.5569601985626,-9.139746838387603,-0.08488492961821016
63109.38325452374,6.393174503100454,PPG_1,PPG_2,166552.0,166552.0,-833.4731485429802,-11.87204334668669,-0.1102087688995836
63109.39335432548,6.403274304844672,PPG_1,PPG_2,166566.0,166566.0,-819.3893368874269,-14.129852423553105,-0.13113489972649914
63109.40345412722,6.413374106581614,PPG_1,PPG_2,166548.0,166548.0,-837.3055252318445,-15.780492319953588,-0.14643358320426358
63109.41355392896,6.423473908325832,PPG_1,PPG_2,166562.0,166562.0,-823.2217135762912,-16.750819181793887,-0.1554268975919982
63109.42365373071,6.43357371007005,PPG_1,PPG_2,166545.0,166545.0,-840.1379019207088,-17.027808549976996,-0.15799412783996455
63109.43375353245,6.443673511814268,PPG_1,PPG_2,166569.0,166569.0,-816.0540902651264,-16.650959113928185,-0.1545013610327057
63109.44385333419,6.453773313558486,PPG_1,PPG_2,166591.0,166591.0,-793.9702786095731,-15.696859447184488,-0.1456584457247802
63109.45395313593,6.463873115295428,PPG_1,PPG_2,166582.0,166582.0,-802.8864669539907,-14.258507294591483,-0.13232731616704496
63109.46405293768,6.473972917039646,PPG_1,PPG_2,166611.0,166611.0,-773.8026552984084,-12.424869648559527,-0.1153325482465985
63109.47415273942,6.484072718783864,PPG_1,PPG_2,166558.0,166558.0,-826.7188436428551,-10.266728100788262,-0.09533016946515491
63109.484252541166,6.494172520528082,PPG_1,PPG_2,166599.0,166599.0,-785.6350319872727,-7.83189517193178,-0.07276332227998554
63109.49435234291,6.5042723222723,PPG_1,PPG_2,166587.0,166587.0,-797.5512203316903,-5.14864070310473,-0.047894021048142374
63109.50445214465,6.514372124009242,PPG_1,PPG_2,166580.0,166580.0,-804.467408676137,-2.2341011902741372,-0.020881092554491793
63109.51455194639,6.52447192575346,PPG_1,PPG_2,166585.0,166585.0,-799.3835970205546,0.8951517414393254,0.008121871828319617
63109.524651748136,6.534571727497678,PPG_1,PPG_2,166608.0,166608.0,-776.2997853649722,4.212917700923486,0.038872038099070375
63109.53475154988,6.544671529241896,PPG_1,PPG_2,166605.0,166605.0,-779.2159737094189,7.675747016019728,0.0709667001417767
63109.54485135162,6.554771330978838,PPG_1,PPG_2,166587.0,166587.0,-797.1321620538365,11.218379656203664,0.10380100613326441
63109.55495115336,6.564871132723056,PPG_1,PPG_2,166594.0,166594.0,-790.0483503982541,14.752112039972955,0.1365528215669657
63109.565050955105,6.574970934467274,PPG_1,PPG_2,166624.0,166624.0,-759.9645387427008,18.167864673199063,0.16821116115273566
63109.57515075685,6.585070736211492,PPG_1,PPG_2,166659.0,166659.0,-724.8807270871184,21.345959007322705,0.19766680401358028
63109.58525055859,6.59517053795571,PPG_1,PPG_2,166612.0,166612.0,-771.796915431536,24.170418243104635,0.22384483832518542
63109.59535036033,6.605270339692652,PPG_1,PPG_2,166643.0,166643.0,-740.7131037759827,26.54191621121833,0.24582467587876072
63109.605450162075,6.61537014143687,PPG_1,PPG_2,166646.0,166646.0,-737.6292921204004,28.38529098578256,0.2629096907681084
63109.61554996382,6.625469943181088,PPG_1,PPG_2,166619.0,166619.0,-764.5454804648471,29.6514440989891,0.2746448219469765
63109.62564976556,6.635569744925306,PPG_1,PPG_2,166610.0,166610.0,-773.4616688092647,30.31525916279813,0.28079728231772866
63109.63574956731,6.645669546669524,PPG_1,PPG_2,166675.0,166675.0,-708.3778571536823,30.37236736924091,0.2813265803046827
63109.64584936904,6.655769348406466,PPG_1,PPG_2,166643.0,166643.0,-740.294045498129,29.837454771494585,0.27636883116809924
63109.65594917079,6.665869150150684,PPG_1,PPG_2,166641.0,166641.0,-742.2102338425466,28.74301290858078,0.266225177375382
63109.66604897253,6.675968951894902,PPG_1,PPG_2,166634.0,166634.0,-749.1264221869642,27.134730957335922,0.25131908152203974
63109.67614877428,6.68606875363912,PPG_1,PPG_2,166641.0,166641.0,-742.0426105314109,25.06238418762238,0.232111877482472
63109.686248576014,6.696168555376062,PPG_1,PPG_2,166625.0,166625.0,-757.9587988758285,22.568608019302857,0.20899872460963229
63109.69634837776,6.70626835712028,PPG_1,PPG_2,166594.0,166594.0,-788.8749872202461,19.678670357066103,0.18221381430821318
63109.7064481795,6.716368158864498,PPG_1,PPG_2,166637.0,166637.0,-745.7911755646928,16.394681984597927,0.1517767100284679
63109.71654798125,6.726467960608716,PPG_1,PPG_2,166623.0,166623.0,-759.7073639091104,12.697970447519365,0.11751434920846535
63109.72664778299,6.736567762352934,PPG_1,PPG_2,166637.0,166637.0,-745.623552253528,8.560615751056588,0.07916795998422889
63109.73674758473,6.746667564089876,PPG_1,PPG_2,166621.0,166621.0,-761.5397405979747,3.96273304276873,0.03655324288247052
63109.74684738647,6.756767365834094,PPG_1,PPG_2,166659.0,166659.0,-723.4559289423923,-1.089819525762425,-0.010275506785633836
63109.756947188216,6.766867167578312,PPG_1,PPG_2,166584.0,166584.0,-798.37211728681,-6.551987850390951,-0.060900712491002436
63109.76704698996,6.77696696932253,PPG_1,PPG_2,166614.0,166614.0,-768.2883056312567,-12.333172643223996,-0.11448266968523188
63109.777146791705,6.787066771066748,PPG_1,PPG_2,166619.0,166619.0,-763.2044939756743,-18.297621638622193,-0.16976318089718692
63109.78724659344,6.79716657280369,PPG_1,PPG_2,166624.0,166624.0,-758.1206823200919,-24.269512131227177,-0.22511266239794667
63109.797346395186,6.807266374547908,PPG_1,PPG_2,166565.0,166565.0,-817.0368706645386,-30.042915592804352,-0.27862249960756963
63109.80744619693,6.817366176292126,PPG_1,PPG_2,166566.0,166566.0,-815.9530590089562,-35.397812932589126,-0.32825348189264447
63109.817545998674,6.827465978036344,PPG_1,PPG_2,166586.0,166586.0,-795.8692473534029,-40.11913080577946,-0.37201223745002643
63109.82764580041,6.837565779773286,PPG_1,PPG_2,166577.0,166577.0,-804.7854356978205,-44.01249818560806,-0.40809727049481076
63109.837745602155,6.847665581517504,PPG_1,PPG_2,166593.0,166593.0,-788.7016240422381,-46.913491612001415,-0.4349846493218032
63109.8478454039,6.857765383261722,PPG_1,PPG_2,166578.0,166578.0,-803.6178123866848,-48.692288919388,-0.4514711386137138
63109.85794520565,6.86786518500594,PPG_1,PPG_2,166570.0,166570.0,-811.5340007311024,-49.25718837401168,-0.45670681598459006
63109.86804500739,6.8779649867501575,PPG_1,PPG_2,166567.0,166567.0,-814.45018907552,-48.55836308269431,-0.45022986909784934
63109.878144809125,6.8880647884871,PPG_1,PPG_2,166609.0,166609.0,-772.3663774199667,-46.590613379211646,-0.43199210570518376
63109.88824461087,6.898164590231318,PPG_1,PPG_2,166598.0,166598.0,-783.2825657643843,-43.39401230463778,-0.4023649361746091
63109.89834441261,6.9082643919755355,PPG_1,PPG_2,166550.0,166550.0,-831.198754108802,-39.05394481826227,-0.36213973691038015
63109.90844421436,6.9183641937197535,PPG_1,PPG_2,166606.0,166606.0,-775.1149424532487,-33.70198343956665,-0.3125359660961439
63109.9185440161,6.9284639954639715,PPG_1,PPG_2,166617.0,166617.0,-764.0311307976663,-27.515414886989152,-0.2551967764244488
63109.92864381784,6.9385637972009135,PPG_1,PPG_2,166595.0,166595.0,-785.9473191420839,-20.71261621824002,-0.1921461596163236
63109.93874361958,6.9486635989451315,PPG_1,PPG_2,166605.0,166605.0,-775.8635074865306,-13.544760127524892,-0.125712068337452
63109.94884342133,6.9587634006893495,PPG_1,PPG_2,166647.0,166647.0,-733.7796958309482,-6.285061512347374,-0.058426749777201255
63109.95894322307,6.9688632024335675,PPG_1,PPG_2,166623.0,166623.0,-757.6958841753658,0.7846947492579581,0.007098119424798015
63109.96904302481,6.9789630041705095,PPG_1,PPG_2,166635.0,166635.0,-745.6120725198125,7.3897843307037485,0.06831630218481413
63109.97914282655,6.9890628059147275,PPG_1,PPG_2,166654.0,166654.0,-726.5282608642301,13.278723647432642,0.12289696440124415
63109.9892426283,6.9991626076589455,PPG_1,PPG_2,166664.0,166664.0,-716.4444492086477,18.23919331131997,0.16887225886392718
63109.99934243004,7.0092624094031635,PPG_1,PPG_2,166641.0,166641.0,-739.3606375530944,22.112875080122272,0.204774839071594
63110.009442231785,7.0193622111473815,PPG_1,PPG_2,166693.0,166693.0,-687.276825897512,24.80748499161383,0.22974938634980563
63110.01954203352,7.0294620128843235,PPG_1,PPG_2,166666.0,166666.0,-714.1930142419296,26.304313887487854,0.24362249795233312
63110.02964183527,7.0395618146285415,PPG_1,PPG_2,166651.0,166651.0,-729.1092025863763,26.659661604604988,0.2469159796260623
63110.03974163701,7.0496616163727595,PPG_1,PPG_2,166662.0,166662.0,-718.025390930794,25.999327234963705,0.24079577949479147
63110.049841438755,7.059761418116977,PPG_1,PPG_2,166683.0,166683.0,-696.9415792752407,24.507783675836166,0.2269716541636695
63110.0599412405,7.069861219861195,PPG_1,PPG_2,166658.0,166658.0,-721.8577676196583,22.41437366393048,0.2075692289398714
63110.07004104224,7.0799610215981374,PPG_1,PPG_2,166649.0,166649.0,-730.7739559640759,19.976731712634773,0.18497634679379182
63110.08014084398,7.090060823342355,PPG_1,PPG_2,166660.0,166660.0,-719.6901443085226,17.461213998156687,0.1616616859883483
63110.090240645724,7.100160625086573,PPG_1,PPG_2,166664.0,166664.0,-715.6063326529402,15.122130427487779,0.13998227592820248
63110.10034044747,7.110260426830791,PPG_1,PPG_2,166650.0,166650.0,-729.5225209973578,13.181829393406197,0.12199891599807806
63110.110440249206,7.120360228567733,PPG_1,PPG_2,166621.0,166621.0,-758.4387093418045,11.812309075830761,0.1093057429440138
63110.12054005095,7.130460030311951,PPG_1,PPG_2,166647.0,166647.0,-732.3548976862221,11.11990033548725,0.10288826680106294
63110.130639852694,7.140559832056169,PPG_1,PPG_2,166644.0,166644.0,-735.2710860306397,11.136880588092476,0.10304564547011506
63110.14073965444,7.150659633800387,PPG_1,PPG_2,166652.0,166652.0,-727.1872743750864,11.823218132542502,0.10940685173584529
63110.15083945618,7.160759435544605,PPG_1,PPG_2,166676.0,166676.0,-703.103462719504,13.077885122899653,0.12103552568061726
63110.16093925792,7.170859237281547,PPG_1,PPG_2,166659.0,166659.0,-720.0196510639216,14.755907509918826,0.1365879992537997
63110.17103905966,7.180959039025765,PPG_1,PPG_2,166628.0,166628.0,-750.9358394083683,16.68669394934557,0.15448317473354153
63110.18113886141,7.191058840769983,PPG_1,PPG_2,166670.0,166670.0,-708.852027752786,18.69175732387694,0.17306677372851656
63110.19123866315,7.201158642514201,PPG_1,PPG_2,166663.0,166663.0,-715.7682160972035,20.603447378191014,0.19078495751428245
63110.201338464896,7.211258444258419,PPG_1,PPG_2,166704.0,166704.0,-674.6844044416503,22.285855218016977,0.20637807693308152
63110.21143826663,7.221358245995361,PPG_1,PPG_2,166684.0,166684.0,-694.6005927860679,23.654422854365507,0.21906242021841343
63110.22153806838,7.231458047739579,PPG_1,PPG_2,166681.0,166681.0,-697.5167811304855,24.687592040940306,0.2286381783221981
63110.23163787012,7.241557849483797,PPG_1,PPG_2,166682.0,166682.0,-696.4329694749322,25.425535388376186,0.2354776844564933
63110.241737671866,7.251657651228015,PPG_1,PPG_2,166653.0,166653.0,-725.3491578193498,25.955717344413063,0.24039158842108174
63110.2518374736,7.261757452964957,PPG_1,PPG_2,166661.0,166661.0,-717.2653461637965,26.38927432356978,0.24440993973329614
63110.26193727535,7.271857254709175,PPG_1,PPG_2,166664.0,166664.0,-714.1815345082141,26.834448903635522,0.24853596686230486
63110.27203707709,7.281957056453393,PPG_1,PPG_2,166673.0,166673.0,-705.0977228526317,27.373065112764536,0.2535280423097887
63110.282136878835,7.292056858197611,PPG_1,PPG_2,166646.0,166646.0,-732.0139111970784,28.043533499856608,0.2597421679094042
63110.29223668058,7.302156659941829,PPG_1,PPG_2,166696.0,166696.0,-681.930099541496,28.83147943087073,0.2670451147377612
63110.30233648232,7.312256461678771,PPG_1,PPG_2,166691.0,166691.0,-686.8462878859136,29.667802285148994,0.2747964350958385
63110.31243628406,7.322356263422989,PPG_1,PPG_2,166635.0,166635.0,-742.7624762303603,30.432315590246283,0.28188220049792795
63110.322536085805,7.332456065167207,PPG_1,PPG_2,166659.0,166659.0,-718.6786645747779,30.961076581195943,0.28678293448210473
63110.33263588755,7.342555866911425,PPG_1,PPG_2,166705.0,166705.0,-672.5948529191955,31.059058571497825,0.28769106438943265
63110.34273568929,7.352655668655643,PPG_1,PPG_2,166685.0,166685.0,-692.5110412636423,30.520851127602697,0.28270277751506123
63110.35283549103,7.362755470392585,PPG_1,PPG_2,166687.0,166687.0,-690.4272296080599,29.156738388565195,0.2700597237102732
63110.362935292775,7.372855272136803,PPG_1,PPG_2,166708.0,166708.0,-669.3434179524775,26.817067793866833,0.24837487291478588
63110.37303509452,7.382955073881021,PPG_1,PPG_2,166650.0,166650.0,-727.2596062969242,23.409286907845676,0.21679041815242242
63110.38313489626,7.393054875625239,PPG_1,PPG_2,166672.0,166672.0,-705.1757946413418,18.905917922484818,0.17505168589418954
63110.393234698,7.403154677362181,PPG_1,PPG_2,166636.0,166636.0,-741.0919829857594,13.345459466515079,0.12351549432712197
63110.403334499744,7.413254479106399,PPG_1,PPG_2,166684.0,166684.0,-693.0081713302061,6.830562831723411,0.06313325000879581
63110.41343430149,7.423354280850617,PPG_1,PPG_2,166650.0,166650.0,-726.9243596746237,-0.4735877754887685,-0.004564064503798838
63110.42353410323,7.433454082594835,PPG_1,PPG_2,166661.0,166661.0,-715.8405480190413,-8.341937152308473,-0.0774905622038302
63110.43363390498,7.443553884339053,PPG_1,PPG_2,166654.0,166654.0,-722.756736363488,-16.497094590565325,-0.15307529308989234
63110.443733706714,7.453653686075995,PPG_1,PPG_2,166626.0,166626.0,-750.6729247079056,-24.62487609141836,-0.2284062946179271
63110.45383350846,7.463753487820213,PPG_1,PPG_2,166596.0,166596.0,-780.5891130523523,-32.398377263985616,-0.30045370738946686
63110.4639333102,7.473853289564431,PPG_1,PPG_2,166587.0,166587.0,-789.5053013967699,-39.50725767522293,-0.3663411923157447
63110.47403311195,7.483953091308649,PPG_1,PPG_2,166607.0,166607.0,-769.4214897411875,-45.68527083549225,-0.42360108774571187
63110.48413291369,7.494052893052867,PPG_1,PPG_2,166585.0,166585.0,-791.3376780856343,-50.729222351025314,-0.4703501199735192
63110.49423271543,7.504152694789809,PPG_1,PPG_2,166600.0,166600.0,-776.2538664300519,-54.50675772929507,-0.5053615832273946
63110.50433251717,7.514252496534027,PPG_1,PPG_2,166612.0,166612.0,-764.1700547744695,-56.95445847594157,-0.5280476936581988
63110.51443231891,7.524352298278245,PPG_1,PPG_2,166612.0,166612.0,-764.0862431189162,-58.06976511966158,-0.5383847292285425
63110.52453212066,7.534452100022463,PPG_1,PPG_2,166579.0,166579.0,-797.0024314633338,-57.901216077972016,-0.5368225602509767
63110.5346319224,7.544551901759405,PPG_1,PPG_2,166609.0,166609.0,-766.9186198077514,-56.54041532823763,-0.5242102030724732
63110.54473172414,7.554651703503623,PPG_1,PPG_2,166604.0,166604.0,-771.8348081521981,-54.11597888531809,-0.5017397140014977
63110.554831525886,7.564751505247841,PPG_1,PPG_2,166598.0,166598.0,-777.7509964966157,-50.78806788831748,-0.47089552012474234
63110.56493132763,7.574851306992059,PPG_1,PPG_2,166610.0,166610.0,-765.6671848410333,-46.74294549680926,-0.433403970798052
63110.575031129374,7.584951108736277,PPG_1,PPG_2,166609.0,166609.0,-766.58337318548,-42.18738729803025,-0.39118153142794154
63110.58513093111,7.595050910473219,PPG_1,PPG_2,166605.0,166605.0,-770.4995615298976,-37.342159032574614,-0.3462743328485495
63110.595230732855,7.605150712217437,PPG_1,PPG_2,166629.0,166629.0,-746.4157498743152,-32.433527163918185,-0.30077948843626945
63110.6053305346,7.615250513961655,PPG_1,PPG_2,166636.0,166636.0,-739.3319382187619,-27.682249957859288,-0.2567430597463281
63110.615430336344,7.625350315705873,PPG_1,PPG_2,166662.0,166662.0,-713.2481265631795,-23.29114896519323,-0.21604486485100952
63110.62553013809,7.635450117450091,PPG_1,PPG_2,166606.0,166606.0,-769.1643149075971,-19.434461953723485,-0.18029979774706642
63110.635629939825,7.645549919187033,PPG_1,PPG_2,166643.0,166643.0,-732.0805032520439,-16.251598117642267,-0.15079994954443002
63110.64572974157,7.655649720931251,PPG_1,PPG_2,166664.0,166664.0,-710.9966915964615,-13.844360424598166,-0.1284888642483974
63110.65582954331,7.665749522675469,PPG_1,PPG_2,166614.0,166614.0,-760.9128799409082,-12.275042117685752,-0.11394389650245287
63110.66592934506,7.675849324419687,PPG_1,PPG_2,166659.0,166659.0,-715.8290682853258,-11.564534768531564,-0.10735867639051992
63110.676029146794,7.685949126156629,PPG_1,PPG_2,166648.0,166648.0,-726.7452566297434,-11.69049896432138,-0.10852615475156153
63110.68612894854,7.696048927900847,PPG_1,PPG_2,166672.0,166672.0,-702.6614449741901,-12.585615679500014,-0.11682239630675273
63110.69622875028,7.706148729645065,PPG_1,PPG_2,166627.0,166627.0,-747.5776333186077,-14.137619529508568,-0.13120688786625634
63110.70632855203,7.716248531389283,PPG_1,PPG_2,166668.0,166668.0,-706.4938216630253,-16.19374040891938,-0.15026370491928168
63110.71642835377,7.726348333133501,PPG_1,PPG_2,166648.0,166648.0,-726.410010007472,-18.57042859449384,-0.17229164714686018
63110.72652815551,7.736448134870443,PPG_1,PPG_2,166617.0,166617.0,-757.3261983518896,-21.067703038066654,-0.19543722320657114
63110.73662795725,7.746547936614661,PPG_1,PPG_2,166629.0,166629.0,-745.2423866963072,-23.48661446572275,-0.21785650458536038
63110.746727759,7.756647738358879,PPG_1,PPG_2,166632.0,166632.0,-742.1585750407539,-25.646329688165153,-0.23787346871079282
63110.75682756074,7.766747540103097,PPG_1,PPG_2,166645.0,166645.0,-729.0747633851715,-27.39665969140672,-0.2540961134921415
63110.766927362485,7.776847341847315,PPG_1,PPG_2,166644.0,166644.0,-729.9909517295891,-28.624941683657845,-0.26548024243623475
63110.77702716422,7.786947143584257,PPG_1,PPG_2,166611.0,166611.0,-762.9071400740359,-29.259632201718723,-0.2713627667610896
63110.787126965966,7.797046945328475,PPG_1,PPG_2,166620.0,166620.0,-753.8233284184535,-29.272474825862133,-0.27148179650356846
63110.79722676771,7.807146747072693,PPG_1,PPG_2,166649.0,166649.0,-724.7395167628711,-28.677776600897634,-0.26596993414742387
63110.807326569455,7.817246548816911,PPG_1,PPG_2,166619.0,166619.0,-754.6557051073178,-27.526172544219847,-0.2552964819951754
63110.81742637119,7.827346350553853,PPG_1,PPG_2,166656.0,166656.0,-717.5718934517354,-25.892839952192876,-0.24015820841180469
63110.827526172936,7.837446152298071,PPG_1,PPG_2,166654.0,166654.0,-719.488081796153,-23.862749947335974,-0.22134265422375557
63110.83762597468,7.847545954042289,PPG_1,PPG_2,166646.0,166646.0,-727.4042701405997,-21.516314059092327,-0.19959510042150752
63110.847725776424,7.857645755786507,PPG_1,PPG_2,166649.0,166649.0,-724.3204584850173,-18.918542548851935,-0.17551808388423157
63110.85782557817,7.867745557530725,PPG_1,PPG_2,166631.0,166631.0,-742.2366468294349,-16.11304211067409,-0.14951576605948488
63110.867925379906,7.877845359267667,PPG_1,PPG_2,166683.0,166683.0,-690.1528351738816,-13.119493008266037,-0.12177055022364079
63110.87802518165,7.887945161011885,PPG_1,PPG_2,166659.0,166659.0,-714.0690235182992,-9.932845677218143,-0.09223563532228889
63110.888124983394,7.898044962756103,PPG_1,PPG_2,166671.0,166671.0,-701.9852118627459,-6.524929247048837,-0.06064992429135689
63110.89822478514,7.908144764500321,PPG_1,PPG_2,166660.0,166660.0,-712.9014002071635,-2.850686279077229,-0.026595809696176063
63110.90832458688,7.918244566244539,PPG_1,PPG_2,166674.0,166674.0,-698.8175885515811,1.1405114050689344,0.010395947379422989
63110.91842438862,7.928344367981481,PPG_1,PPG_2,166688.0,166688.0,-684.7337768960278,5.490331939667999,0.050711541161584626
63110.92852419036,7.938444169725699,PPG_1,PPG_2,166671.0,166671.0,-701.6499652404455,10.215606189544085,0.09450696574336498
63110.93862399211,7.948543971469917,PPG_1,PPG_2,166659.0,166659.0,-713.5661535848631,15.292234105363285,0.14155885379469893
63110.94872379385,7.958643773214135,PPG_1,PPG_2,166674.0,166674.0,-698.4823419293098,20.641435697862864,0.19113704598601947
63110.95882359559,7.968743574951077,PPG_1,PPG_2,166693.0,166693.0,-679.3985302737274,26.123242792025817,0.2419442703858684
63110.96892339733,7.978843376695295,PPG_1,PPG_2,166700.0,166700.0,-672.314718618145,31.541263187686948,0.2921602982972531
63110.97902319908,7.988943178439513,PPG_1,PPG_2,166728.0,166728.0,-644.2309069625917,36.65841672778601,0.3395877914093568
63110.98912300082,7.999042980183731,PPG_1,PPG_2,166724.0,166724.0,-648.1470953070093,41.219299849163214,0.38185958394580655
63110.999222802566,8.009142781927949,PPG_1,PPG_2,166713.0,166713.0,-659.0632836514269,44.97353481163991,0.41665509114112814
63111.0093226043,8.01924258366489,PPG_1,PPG_2,166732.0,166732.0,-639.9794719958736,47.696030765480884,0.4418880956008738
63111.01942240605,8.029342385409109,PPG_1,PPG_2,166702.0,166702.0,-669.8956603402912,49.203201562679446,0.4558570594091231
63111.02952220779,8.039442187153327,PPG_1,PPG_2,166746.0,166746.0,-625.8118486847088,49.366398137395485,0.45736961992985237
63111.039622009535,8.049541988897545,PPG_1,PPG_2,166739.0,166739.0,-632.7280370291555,48.123531279571985,0.44585031356611465
63111.04972181128,8.059641790641763,PPG_1,PPG_2,166733.0,166733.0,-638.6442253735731,45.48747092065052,0.42141842315357547
63111.05982161302,8.069741592378705,PPG_1,PPG_2,166711.0,166711.0,-660.5604137179907,41.547932961381136,0.3849054657126888
63111.06992141476,8.079841394122923,PPG_1,PPG_2,166687.0,166687.0,-684.4766020624375,36.46537702278373,0.3377986347605256
63111.080021216505,8.08994119586714,PPG_1,PPG_2,166735.0,166735.0,-636.392790406855,30.459755479900114,0.28213652258683064
63111.09012101825,8.100040997611359,PPG_1,PPG_2,166709.0,166709.0,-662.3089787513018,23.7983211279011,0.22039611761941438
63111.100220819986,8.1101407993483,PPG_1,PPG_2,166710.0,166710.0,-661.2251670957194,16.78308426538661,0.15537655247065382
63111.11032062173,8.120240601092519,PPG_1,PPG_2,166674.0,166674.0,-697.141355440137,9.735062212018356,0.09005312319094409
63111.120420423475,8.130340402836737,PPG_1,PPG_2,166685.0,166685.0,-686.0575437845837,2.9740111242318665,0.027389436947445712
63111.13052022522,8.140440204580955,PPG_1,PPG_2,166664.0,166664.0,-706.9737321290013,-3.2036804066785187,-0.02986747751388612
63111.14062002696,8.150540006325173,PPG_1,PPG_2,166677.0,166677.0,-693.8899204734189,-8.54474702920516,-0.07937027207851144
63111.1507198287,8.160639808062115,PPG_1,PPG_2,166640.0,166640.0,-730.8061088178656,-12.853517747894092,-0.11930540241628455
63111.16081963045,8.170739609806333,PPG_1,PPG_2,166674.0,166674.0,-696.7222971622832,-15.999452788292572,-0.1484629821704258
63111.17091943219,8.18083941155055,PPG_1,PPG_2,166669.0,166669.0,-701.6384855067008,-17.916716805891546,-0.16623282731503702
63111.18101923393,8.190939213294769,PPG_1,PPG_2,166689.0,166689.0,-681.5546738511475,-18.59655320483412,-0.17253377878650333
63111.19111903568,8.201039015038987,PPG_1,PPG_2,166670.0,166670.0,-700.4708621955651,-18.07619864168133,-0.16771095839106473
63111.201218837414,8.211138816775929,PPG_1,PPG_2,166677.0,166677.0,-693.3870505399827,-16.429189900870433,-0.15244592967963952
63111.21131863916,8.221238618520147,PPG_1,PPG_2,166663.0,166663.0,-707.3032388844294,-13.75969589868428,-0.12770416506199334
63111.2214184409,8.231338420264365,PPG_1,PPG_2,166672.0,166672.0,-698.219427228847,-10.200082471627224,-0.09471247544967971
63111.23151824265,8.241438222008583,PPG_1,PPG_2,166700.0,166700.0,-670.1356155732647,-5.909078909846343,-0.05494201707362808
63111.24161804438,8.251538023745525,PPG_1,PPG_2,166676.0,166676.0,-694.0518039177114,-1.0687675482242862,-0.010080390005990184
63111.25171784613,8.261637825489743,PPG_1,PPG_2,166693.0,166693.0,-676.967992262129,4.1193941257617706,0.03800523027670519
63111.26181764787,8.27173762723396,PPG_1,PPG_2,166683.0,166683.0,-686.8841806065466,9.43911513490183,0.08731018654628372
63111.271917449616,8.281837428978179,PPG_1,PPG_2,166724.0,166724.0,-645.8003689509933,14.665446679172444,0.135749577972609
63111.28201725136,8.291937230722397,PPG_1,PPG_2,166694.0,166694.0,-675.7165572954109,19.57371093068013,0.18124101518601315
63111.2921170531,8.302037032459339,PPG_1,PPG_2,166718.0,166718.0,-651.6327456398576,23.950674660396793,0.2218081811927314
63111.30221685484,8.312136834203557,PPG_1,PPG_2,166751.0,166751.0,-618.5489339842752,27.606594765051028,0.2556924733530431
63111.312316656586,8.322236635947775,PPG_1,PPG_2,166697.0,166697.0,-672.4651223286928,30.386516813958124,0.28145772209798775
63111.32241645833,8.332336437691993,PPG_1,PPG_2,166727.0,166727.0,-642.3813106731395,32.179018069137264,0.29807122416847676
63111.332516260074,8.34243623943621,PPG_1,PPG_2,166732.0,166732.0,-637.2974990175571,32.92217316726342,0.30495903455395934
63111.34261606181,8.352536041173153,PPG_1,PPG_2,166743.0,166743.0,-626.2136873619747,32.6082469160395,0.3020494609011541
63111.352715863555,8.36263584291737,PPG_1,PPG_2,166737.0,166737.0,-632.1298757064214,31.286981495247783,0.2898035303945141
63111.3628156653,8.372735644661589,PPG_1,PPG_2,166739.0,166739.0,-630.046064050839,29.064653021265876,0.2692062456801359
63111.37291546704,8.382835446405807,PPG_1,PPG_2,166709.0,166709.0,-659.9622523952567,26.09636834657045,0.24169518902320494
63111.38301526878,8.392935248142749,PPG_1,PPG_2,166699.0,166699.0,-669.8784407397034,22.572119317340217,0.2090312684960286
63111.393115070525,8.403035049886967,PPG_1,PPG_2,166743.0,166743.0,-625.794629084121,18.70038749739046,0.17314676106750518
63111.40321487227,8.413134851631185,PPG_1,PPG_2,166690.0,166690.0,-678.7108174285386,14.693581181135961,0.13601033796107348
63111.41331467401,8.423234653375403,PPG_1,PPG_2,166712.0,166712.0,-656.6270057729853,10.756909767187121,0.09952394862242965
63111.42341447576,8.43333445511962,PPG_1,PPG_2,166719.0,166719.0,-649.5431941174029,7.080345187683779,0.06544831655389817
63111.433514277494,8.443434256856563,PPG_1,PPG_2,166731.0,166731.0,-637.4593824618205,3.8330858274596866,0.03535162906281678
63111.44361407924,8.45353405860078,PPG_1,PPG_2,166677.0,166677.0,-691.3755708062672,1.1587131560912862,0.010564647304972634
63111.45371388098,8.463633860344999,PPG_1,PPG_2,166684.0,166684.0,-684.2917591506848,-0.8309707140865124,-0.00787640929195224
63111.46381368273,8.473733662089217,PPG_1,PPG_2,166714.0,166714.0,-654.2079474951024,-2.061798966691805,-0.019284137829933535
63111.47391348447,8.483833463833435,PPG_1,PPG_2,166697.0,166697.0,-671.1241358395491,-2.498590246040141,-0.023332465719723434
63111.48401328621,8.493933265570377,PPG_1,PPG_2,166725.0,166725.0,-643.0403241839667,-2.1407655252954747,-0.020016026346647765
63111.49411308795,8.504033067314595,PPG_1,PPG_2,166701.0,166701.0,-666.9565125283843,-1.0152794510779333,-0.009584644404630121
63111.5042128897,8.514132869058813,PPG_1,PPG_2,166732.0,166732.0,-635.872700872831,0.829311599646724,0.007511643339590689
63111.51431269144,8.52423267080303,PPG_1,PPG_2,166718.0,166718.0,-649.7888892172487,3.3252497663762415,0.030644834337902847
63111.52441249318,8.534332472539973,PPG_1,PPG_2,166676.0,166676.0,-691.7050775616954,6.383565104480415,0.05899032534104533
63111.53451229492,8.54443227428419,PPG_1,PPG_2,166722.0,166722.0,-645.621265906113,9.889330008625553,0.09148292880527116
63111.544612096666,8.554532076028408,PPG_1,PPG_2,166729.0,166729.0,-638.5374542505306,13.698811412202527,0.12679047852271352
63111.55471189841,8.564631877772626,PPG_1,PPG_2,166718.0,166718.0,-649.4536425949773,17.64239595818965,0.16334094108479288
63111.564811700155,8.574731679516844,PPG_1,PPG_2,166750.0,166750.0,-617.3698309393949,21.53289752349219,0.1993994128005825
63111.57491150189,8.584831481253786,PPG_1,PPG_2,166745.0,166745.0,-622.2860192838125,25.176271343499693,0.23316742179213593
63111.58501130363,8.594931282998004,PPG_1,PPG_2,166744.0,166744.0,-623.2022076282592,28.381865154668535,0.26287793901778655
63111.59511110538,8.605031084742222,PPG_1,PPG_2,166726.0,166726.0,-641.1183959726768,30.97026271829779,0.28686807467786213
63111.60521090712,8.61513088648644,PPG_1,PPG_2,166755.0,166755.0,-612.0345843170944,32.77887438371324,0.30363089342695543
63111.61531070887,8.625230688230658,PPG_1,PPG_2,166766.0,166766.0,-600.9507726615411,33.667309012811394,0.3118652031700419
63111.625410510605,8.6353304899676,PPG_1,PPG_2,166744.0,166744.0,-622.8669610059587,33.5232914102726,0.3105303997878674
63111.63551031235,8.645430291711818,PPG_1,PPG_2,166739.0,166739.0,-627.7831493503763,32.267453875100564,0.2988908768416515
63111.645610114094,8.655530093456036,PPG_1,PPG_2,166723.0,166723.0,-643.699337694823,29.856249817934728,0.27654302995431823
63111.65570991584,8.665629895200254,PPG_1,PPG_2,166767.0,166767.0,-599.6155260392406,26.285421989421955,0.24344740151280406
63111.665809717575,8.675729696937196,PPG_1,PPG_2,166749.0,166749.0,-617.5317143836583,21.5965086930389,0.1999889824278935
63111.67590951932,8.685829498681414,PPG_1,PPG_2,166765.0,166765.0,-601.447902728105,15.884647927335193,0.14704954353869745
63111.68600932106,8.695929300425632,PPG_1,PPG_2,166723.0,166723.0,-643.3640910725226,9.302350622396988,0.086042607232125
63111.69610912281,8.70602910216985,PPG_1,PPG_2,166712.0,166712.0,-654.2802794169402,2.0552179516261746,0.01887375405387345
63111.70620892455,8.716128903914068,PPG_1,PPG_2,166729.0,166729.0,-637.1964677613869,-5.609639454415725,-0.05216671189690423
63111.71630872629,8.72622870565101,PPG_1,PPG_2,166684.0,166684.0,-682.1126561058045,-13.418362683108693,-0.12454057448301495
63111.72640852803,8.736328507395228,PPG_1,PPG_2,166734.0,166734.0,-632.0288444502512,-21.084693347252664,-0.19559469508338265
63111.73650832978,8.746428309139446,PPG_1,PPG_2,166708.0,166708.0,-657.9450327946688,-28.323027027324624,-0.2626819962684229
63111.74660813152,8.756528110883664,PPG_1,PPG_2,166703.0,166703.0,-662.8612211390864,-34.86208876646491,-0.3232882108684821
63111.756707933266,8.766627912627882,PPG_1,PPG_2,166655.0,166655.0,-710.7774094835331,-40.462018912496276,-0.37519023928094647
63111.766807735,8.776727714364824,PPG_1,PPG_2,166665.0,166665.0,-700.6935978279507,-44.93433886494294,-0.4166411987015781
63111.77690753675,8.786827516109042,PPG_1,PPG_2,166668.0,166668.0,-697.6097861723683,-48.15911727671439,-0.4465295252319152
63111.78700733849,8.79692731785326,PPG_1,PPG_2,166680.0,166680.0,-685.525974516815,-50.092645221659744,-0.4644501099031308
63111.797107140235,8.807027119597478,PPG_1,PPG_2,166680.0,166680.0,-685.4421628612326,-50.76324101585448,-0.4706654163544515
63111.80720694197,8.81712692133442,PPG_1,PPG_2,166711.0,166711.0,-654.3583512056503,-50.25793796464352,-0.4659820984135228
63111.81730674372,8.827226723078638,PPG_1,PPG_2,166699.0,166699.0,-666.274539550097,-48.7056005189563,-0.4515945149775242
63111.82740654546,8.837326524822856,PPG_1,PPG_2,166686.0,166686.0,-679.1907278945146,-46.26250522284688,-0.428951089404994
63111.837506347205,8.847426326567074,PPG_1,PPG_2,166675.0,166675.0,-690.1069162389322,-43.104150883943035,-0.39967840343218947
63111.84760614895,8.857526128311292,PPG_1,PPG_2,166679.0,166679.0,-686.0231045833789,-39.422141464023554,-0.36555230675881284
63111.857705950686,8.867625930048234,PPG_1,PPG_2,166708.0,166708.0,-656.9392929277965,-35.42111174125468,-0.3284694230558022
63111.86780575243,8.877725731792452,PPG_1,PPG_2,166716.0,166716.0,-648.8554812722141,-31.311593164978415,-0.29038102831777146
63111.877905554175,8.88782553353667,PPG_1,PPG_2,166717.0,166717.0,-647.7716696166608,-27.299276944321704,-0.2531935375716771
63111.88800535592,8.897925335280888,PPG_1,PPG_2,166691.0,166691.0,-673.6878579610784,-23.5742737520917,-0.21866896021482246
63111.89810515766,8.908025137025106,PPG_1,PPG_2,166744.0,166744.0,-620.604046305496,-20.30266860376823,-0.188346627804482
63111.9082049594,8.918124938762048,PPG_1,PPG_2,166717.0,166717.0,-647.5202346499427,-17.61994140100222,-0.16348221345111183
63111.918304761144,8.928224740506266,PPG_1,PPG_2,166723.0,166723.0,-641.4364229943603,-15.625821691188747,-0.14500004400656205
63111.92840456289,8.938324542250484,PPG_1,PPG_2,166708.0,166708.0,-656.352611338807,-14.381125071162872,-0.1334637787938139
63111.93850436463,8.948424343994702,PPG_1,PPG_2,166748.0,166748.0,-616.2687996832246,-13.905946257605079,-0.1290596623782268
63111.94860416637,8.958524145731644,PPG_1,PPG_2,166723.0,166723.0,-641.1849880276422,-14.177657691408612,-0.13157797496240373
63111.958703968114,8.968623947475862,PPG_1,PPG_2,166744.0,166744.0,-620.101176372089,-15.128996608537692,-0.1403953027181275
63111.96880376986,8.97872374922008,PPG_1,PPG_2,166751.0,166751.0,-613.0173647165066,-16.648662789823593,-0.15448007793170038
63111.9789035716,8.988823550964298,PPG_1,PPG_2,166716.0,166716.0,-647.9335530609242,-18.587118910379186,-0.1724463385852718
63111.989003373346,8.998923352708516,PPG_1,PPG_2,166710.0,166710.0,-653.8497414053709,-20.768809705977432,-0.19266697968391133
63111.99910317508,9.009023154445458,PPG_1,PPG_2,166729.0,166729.0,-634.7659297497885,-23.008837053182987,-0.21342830348395087
63112.00920297683,9.019122956189676,PPG_1,PPG_2,166713.0,166713.0,-650.6821180942061,-25.12956428341078,-0.2330839138376578
63112.01930277857,9.029222757933894,PPG_1,PPG_2,166720.0,166720.0,-643.5983064386528,-26.97365347253631,-0.2501755501604684
63112.02940258032,9.039322559678112,PPG_1,PPG_2,166707.0,166707.0,-656.5144947830704,-28.41259262491865,-0.2635121202288796
63112.03950238206,9.04942236142233,PPG_1,PPG_2,166730.0,166730.0,-633.430683127488,-29.350555974473806,-0.27220547874388945
63112.0496021838,9.059522163159272,PPG_1,PPG_2,166725.0,166725.0,-638.3468714719347,-29.723558391742138,-0.27566259009244776
63112.05970198554,9.06962196490349,PPG_1,PPG_2,166711.0,166711.0,-652.2630598163523,-29.494978679172807,-0.2735440367485826
63112.069801787286,9.079721766647708,PPG_1,PPG_2,166751.0,166751.0,-612.1792481607699,-28.649347175725747,-0.26570644071187327
63112.07990158903,9.089821568391926,PPG_1,PPG_2,166724.0,166724.0,-639.0954365052166,-27.186103679362688,-0.2521446098421773
63112.09000139077,9.099921370128868,PPG_1,PPG_2,166734.0,166734.0,-629.0116248496342,-25.11504354069165,-0.23294933073009666
63112.10010119251,9.110021171873086,PPG_1,PPG_2,166728.0,166728.0,-634.9278131940519,-22.45483764729764,-0.2082936514159912
63112.110200994255,9.120120973617304,PPG_1,PPG_2,166720.0,166720.0,-642.8440015384986,-19.234108838557287,-0.17844285796304943
63112.120300796,9.130220775361522,PPG_1,PPG_2,166756.0,166756.0,-606.7601898829162,-15.492656211538959,-0.14376582173447872
63112.13040059774,9.14032057710574,PPG_1,PPG_2,166763.0,166763.0,-599.6763782273629,-11.280889993131408,-0.10472976159909182
63112.14050039948,9.150420378842682,PPG_1,PPG_2,166750.0,166750.0,-612.5925665717805,-6.658341083555785,-0.06188642988131499
63112.150600201225,9.1605201805869,PPG_1,PPG_2,166745.0,166745.0,-617.5087549161981,-1.6940248509221834,-0.015875484130999176
63112.16070000297,9.170619982331118,PPG_1,PPG_2,166767.0,166767.0,-595.4249432606448,3.530465906262793,0.032546846264004545
63112.17079980471,9.180719784075336,PPG_1,PPG_2,166765.0,166765.0,-597.3411316050624,8.917442585110194,0.08247515060918785
63112.18089960646,9.190819585819554,PPG_1,PPG_2,166791.0,166791.0,-571.25731994948,14.351536437766736,0.13284015270416186
63112.190999408194,9.200919387556496,PPG_1,PPG_2,166770.0,166770.0,-592.1735082939267,19.70004565441155,0.182411927724134
63112.20109920994,9.211019189300714,PPG_1,PPG_2,166807.0,166807.0,-555.0896966383443,24.81388300912313,0.22980868531923768
63112.21119901168,9.221118991044932,PPG_1,PPG_2,166796.0,166796.0,-566.0058849827619,29.52810602080362,0.2735016833235674
63112.22129881343,9.23121879278915,PPG_1,PPG_2,166773.0,166773.0,-588.9220733272086,33.6615945533389,0.31181223964546767
63112.23139861517,9.241318594526092,PPG_1,PPG_2,166799.0,166799.0,-562.8382616716262,37.01664734350321,0.34290799275300127
63112.24149841691,9.25141839627031,PPG_1,PPG_2,166798.0,166798.0,-563.7544500160438,39.381336051043455,0.3648247197986711
63112.25159821865,9.261518198014528,PPG_1,PPG_2,166798.0,166798.0,-563.6706383604906,40.537733113840666,0.37554259513715665
63112.2616980204,9.271617999758746,PPG_1,PPG_2,166776.0,166776.0,-585.5868267049082,40.277041773976386,0.37312642047503014
63112.27179782214,9.281717801502964,PPG_1,PPG_2,166817.0,166817.0,-544.5030150493258,38.421511216634926,0.35592874171905786
63112.28189762388,9.291817603239906,PPG_1,PPG_2,166809.0,166809.0,-552.4192033937725,34.852849008071374,0.3228531849686548
63112.29199742562,9.301917404984124,PPG_1,PPG_2,166861.0,166861.0,-500.3353917381901,29.544106123688053,0.2736499776366846
63112.302097227366,9.312017206728342,PPG_1,PPG_2,166806.0,166806.0,-555.2515800826077,22.587085738318322,0.20916998229898362
63112.31219702911,9.32211700847256,PPG_1,PPG_2,166782.0,166782.0,-579.1677684270544,14.205468891833133,0.13148634975993093
63112.322296830855,9.332216810216778,PPG_1,PPG_2,166786.0,166786.0,-575.083956771472,4.74865978402894,0.04383747518381654
63112.33239663259,9.34231661195372,PPG_1,PPG_2,166741.0,166741.0,-620.0001451158896,-5.330699385949993,-0.04958140190528883
63112.342496434336,9.352416413697938,PPG_1,PPG_2,166789.0,166789.0,-571.9163334603363,-15.508509979174347,-0.1439127597634896
63112.35259623608,9.362516215442156,PPG_1,PPG_2,166732.0,166732.0,-628.8325218047539,-25.22482491240698,-0.23396682125682516
63112.362696037824,9.372616017186374,PPG_1,PPG_2,166746.0,166746.0,-614.7487101492006,-33.921138570384585,-0.31456716925936745
63112.37279583956,9.382715818923316,PPG_1,PPG_2,166718.0,166718.0,-642.6648984936182,-41.078383603089485,-0.38090291369819435
63112.382895641305,9.392815620667534,PPG_1,PPG_2,166744.0,166744.0,-616.5810868380358,-46.25344834048194,-0.42886714718543495
63112.39299544305,9.402915422411752,PPG_1,PPG_2,166708.0,166708.0,-652.4972751824826,-49.11139679035882,-0.4553555707512166
63112.403095244794,9.41301522415597,PPG_1,PPG_2,166725.0,166725.0,-635.4134635269002,-49.45149171801272,-0.45850768446294515
63112.41319504654,9.423115025900188,PPG_1,PPG_2,166719.0,166719.0,-641.3296518713178,-47.225497423356146,-0.4378764236946074
63112.423294848275,9.43321482763713,PPG_1,PPG_2,166713.0,166713.0,-647.2458402157645,-42.54620087388763,-0.3945071358414404
63112.43339465002,9.443314629381348,PPG_1,PPG_2,166736.0,166736.0,-624.1620285601821,-35.683988302555406,-0.3309058510821894
63112.44349445176,9.453414431125566,PPG_1,PPG_2,166770.0,166770.0,-590.0782169045997,-27.050244007623874,-0.25088541689533433
63112.45359425351,9.463514232869784,PPG_1,PPG_2,166744.0,166744.0,-615.9944052490464,-17.16873223547327,-0.1593002557626138
63112.46369405525,9.473614034614002,PPG_1,PPG_2,166751.0,166751.0,-608.910593593464,-6.6384453776834285,-0.06170202981478829
63112.47379385699,9.483713836350944,PPG_1,PPG_2,166794.0,166794.0,-565.8267819378816,3.909470211033304,0.0360595851163965
63112.48389365873,9.493813638095162,PPG_1,PPG_2,166828.0,166828.0,-531.7429702823283,13.859905548220475,0.12828355293733107
63112.49399346048,9.50391343983938,PPG_1,PPG_2,166824.0,166824.0,-535.6591586267459,22.66369338438627,0.20988000762414746
63112.50409326222,9.514013241583598,PPG_1,PPG_2,166817.0,166817.0,-542.5753469711635,29.881291287567386,0.27677512268306154
63112.51419306396,9.52411304332054,PPG_1,PPG_2,166856.0,166856.0,-503.49153531561024,35.212670675288464,0.3261881327105578
63112.5242928657,9.534212845064758,PPG_1,PPG_2,166797.0,166797.0,-562.4077236600278,38.510451154280105,0.3567530668535302
63112.53439266745,9.544312646808976,PPG_1,PPG_2,166837.0,166837.0,-522.3239120044454,39.777254888085785,0.3684942282020507
63112.54449246919,9.554412448553194,PPG_1,PPG_2,166804.0,166804.0,-555.2401003488922,39.1507524750098,0.3626875939769807
63112.554592270935,9.564512250297412,PPG_1,PPG_2,166851.0,166851.0,-508.15628869330976,36.881091341255896,0.34165161431672625
63112.56469207267,9.574612052034354,PPG_1,PPG_2,166801.0,166801.0,-558.0724770377565,33.30396684317954,0.3084976262324896
63112.57479187442,9.584711853778572,PPG_1,PPG_2,166821.0,166821.0,-537.9886653821741,28.810184928686457,0.26684775015845824
63112.58489167616,9.59481165552279,PPG_1,PPG_2,166807.0,166807.0,-551.9048537265917,23.81237855495757,0.22052640656221628
63112.594991477905,9.604911457267008,PPG_1,PPG_2,166761.0,166761.0,-597.8210420710384,18.71126937064853,0.17324761791398235
63112.60509127965,9.615011259011226,PPG_1,PPG_2,166777.0,166777.0,-581.737230415456,13.865903880048007,0.12833914748598105
63112.615191081386,9.625111060748168,PPG_1,PPG_2,166808.0,166808.0,-550.6534187598736,9.573769140342636,0.08855820497401247
63112.62529088313,9.635210862492386,PPG_1,PPG_2,166812.0,166812.0,-546.5696071043203,6.064611147183777,0.05603415322421812
63112.635390684874,9.645310664236604,PPG_1,PPG_2,166780.0,166780.0,-578.4857954487379,3.50538459297818,0.03231438425094846
63112.64549048662,9.655410465980822,PPG_1,PPG_2,166803.0,166803.0,-555.4019837931555,2.009591776182994,0.018450875376380963
63112.655590288356,9.665510267717764,PPG_1,PPG_2,166809.0,166809.0,-549.3181721376022,1.6462765350683561,0.015083548021346548
63112.6656900901,9.675610069461982,PPG_1,PPG_2,166790.0,166790.0,-568.2343604820198,2.446959871272283,0.02250454938767506
63112.67578989184,9.6857098712062,PPG_1,PPG_2,166777.0,166777.0,-581.1505488264374,4.409429695158062,0.04069337708762565
63112.68588969359,9.695809672950418,PPG_1,PPG_2,166823.0,166823.0,-535.0667371708842,7.498478098571121,0.06932371243476308
63112.69598949533,9.705909474694636,PPG_1,PPG_2,166809.0,166809.0,-548.9829255153018,11.645212262544067,0.10775703370574151
63112.70608929707,9.716009276431578,PPG_1,PPG_2,166788.0,166788.0,-569.8991138597194,16.74541063842034,0.15502738067632535
63112.71618909881,9.726109078175796,PPG_1,PPG_2,166833.0,166833.0,-524.8153022041661,22.656097311621718,0.20980960467729493
