timestamp,PPG_1,PPG_2,PPG_3,time_from_segment_start_sec
62858.87673065645,129691.0,75883.0,4740.0,0.0
62858.88678130601,129711.0,75883.0,4698.0,0.010050649565528147
62858.89683195558,129692.0,75859.0,4698.0,0.020101299131056294
62858.90688260515,129701.0,75871.0,4722.0,0.0301519487038604
62858.91693325472,129704.0,75863.0,4715.0,0.040202598269388545
62858.92698390429,129706.0,75884.0,4747.0,0.05025324784219265
62858.937034553855,129691.0,75869.0,4716.0,0.0603038974077208
62858.94708520342,129704.0,75881.0,4726.0,0.07035454697324894
62858.957135852994,129722.0,75868.0,4714.0,0.08040519654605305
62858.96718650256,129701.0,75873.0,4717.0,0.0904558461115812
62858.97723715213,129678.0,75843.0,4706.0,0.1005064956843853
62858.9872878017,129695.0,75878.0,4718.0,0.11055714524991345
62858.99733845126,129709.0,75905.0,4729.0,0.1206077948154416
62859.007389100836,129689.0,75882.0,4727.0,0.1306584443882457
62859.0174397504,129705.0,75863.0,4727.0,0.14070909395377384
62859.027490399974,129703.0,75875.0,4723.0,0.15075974352657795
62859.03754104954,129698.0,75899.0,4744.0,0.1608103930921061
62859.047591699105,129671.0,75850.0,4725.0,0.17086104265763424
62859.05764234868,129694.0,75901.0,4722.0,0.18091169223043835
62859.067692998244,129703.0,75872.0,4711.0,0.1909623417959665
62859.07774364781,129699.0,75858.0,4705.0,0.20101299136149464
62859.08779429738,129698.0,75860.0,4696.0,0.21106364093429875
62859.09784494695,129691.0,75871.0,4712.0,0.2211142904998269
62859.10789559652,129706.0,75876.0,4719.0,0.231164940072631
62859.117946246086,129709.0,75872.0,4715.0,0.24121558963815914
62859.12799689565,129667.0,75908.0,4715.0,0.2512662392036873
62859.138047545224,129738.0,75882.0,4747.0,0.2613168887764914
62859.14809819479,129714.0,75884.0,4725.0,0.27136753834201954
62859.15814884436,129695.0,75863.0,4726.0,0.28141818791482365
62859.16819949393,129740.0,75874.0,4748.0,0.2914688374803518
62859.178250143494,129701.0,75859.0,4736.0,0.30151948704587994
62859.18830079307,129730.0,75880.0,4716.0,0.31157013661868405
62859.19835144263,129680.0,75870.0,4717.0,0.3216207861842122
62859.208402092205,129732.0,75889.0,4748.0,0.3316714357570163
62859.21845274177,129742.0,75881.0,4718.0,0.34172208532254444
62859.228503391336,129713.0,75875.0,4732.0,0.3517727348880726
62859.23855404091,129665.0,75879.0,4724.0,0.3618233844608767
62859.248604690474,129707.0,75875.0,4737.0,0.37187403402640484
62859.25865534005,129715.0,75880.0,4713.0,0.38192468359920895
62859.26870598961,129728.0,75883.0,4743.0,0.3919753331647371
62859.27875663918,129681.0,75881.0,4728.0,0.40202598273026524
62859.28880728875,129676.0,75852.0,4719.0,0.41207663230306935
62859.298857938316,129695.0,75894.0,4758.0,0.4221272818685975
62859.30890858788,129694.0,75904.0,4752.0,0.43217793143412564
62859.318959237455,129697.0,75893.0,4744.0,0.44222858100692974
62859.32900988702,129670.0,75871.0,4703.0,0.4522792305724579
62859.33906053659,129714.0,75907.0,4759.0,0.462329880145262
62859.34911118616,129710.0,75880.0,4724.0,0.47238052971079014
62859.359161835724,129671.0,75871.0,4725.0,0.4824311792763183
62859.3692124853,129680.0,75864.0,4720.0,0.4924818288491224
62859.37926313486,129731.0,75908.0,4736.0,0.5025324784146505
62859.389313784435,129696.0,75873.0,4722.0,0.5125831279874546
62859.399364434,129707.0,75900.0,4727.0,0.5226337775529828
62859.409415083566,129722.0,75895.0,4757.0,0.5326844271185109
62859.41946573314,129739.0,75908.0,4702.0,0.542735076691315
62859.429516382705,129707.0,75878.0,4719.0,0.5527857262568432
62859.43956703228,129696.0,75886.0,4724.0,0.5628363758296473
62859.44961768184,129718.0,75913.0,4708.0,0.5728870253951754
62859.45966833141,129676.0,75888.0,4736.0,0.5829376749607036
62859.46971898098,129680.0,75885.0,4745.0,0.5929883245335077
62859.47976963055,129674.0,75896.0,4722.0,0.6030389740990358
62859.48982028012,129692.0,75871.0,4746.0,0.61308962367184
62859.499870929685,129667.0,75881.0,4733.0,0.6231402732373681
62859.50992157925,129644.0,75898.0,4706.0,0.6331909228028962
62859.51997222882,129640.0,75875.0,4730.0,0.6432415723757003
62859.53002287839,129635.0,75882.0,4708.0,0.6532922219412285
62859.54007352796,129639.0,75868.0,4711.0,0.6633428715140326
62859.55012417753,129648.0,75896.0,4746.0,0.6733935210795607
62859.56017482709,129643.0,75884.0,4717.0,0.6834441706450889
62859.570225476666,129645.0,75892.0,4697.0,0.693494820217893
62859.58027612623,129650.0,75880.0,4718.0,0.7035454697834211
62859.5903267758,129647.0,75894.0,4738.0,0.7135961193489493
62859.60037742537,129640.0,75885.0,4723.0,0.7236467689217534
62859.610428074935,129630.0,75870.0,4699.0,0.7336974184872815
62859.62047872451,129655.0,75933.0,4736.0,0.7437480680600856
62859.63052937407,129590.0,75877.0,4705.0,0.7537987176256138
62859.64058002364,129632.0,75867.0,4718.0,0.7638493671911419
62859.65063067321,129620.0,75869.0,4708.0,0.773900016763946
62859.66068132278,129647.0,75888.0,4742.0,0.7839506663294742
62859.67073197235,129636.0,75891.0,4708.0,0.7940013159022783
62859.680782621916,129635.0,75875.0,4719.0,0.8040519654678064
62859.69083327148,129606.0,75912.0,4739.0,0.8141026150333346
62859.700883921054,129660.0,75878.0,4741.0,0.8241532646061387
62859.71093457062,129654.0,75897.0,4702.0,0.8342039141716668
62859.72098522019,129639.0,75881.0,4740.0,0.8442545637444709
62859.73103586976,129642.0,75899.0,4713.0,0.8543052133099991
62859.74108651932,129611.0,75848.0,4704.0,0.8643558628755272
62859.751137168896,129605.0,75896.0,4708.0,0.8744065124483313
62859.76118781846,129677.0,75905.0,4760.0,0.8844571620138595
62859.771238468034,129628.0,75901.0,4716.0,0.8945078115866636
62859.7812891176,129619.0,75851.0,4722.0,0.9045584611521917
62859.791339767165,129650.0,75896.0,4719.0,0.9146091107177199
62859.80139041674,129621.0,75870.0,4724.0,0.924659760290524
62859.811441066304,129624.0,75885.0,4722.0,0.9347104098560521
62859.82149171587,129613.0,75875.0,4701.0,0.9447610594215803
62859.83154236544,129623.0,75877.0,4706.0,0.9548117089943844
62859.84159301501,129618.0,75860.0,4724.0,0.9648623585599125
62859.85164366458,129632.0,75878.0,4711.0,0.9749130081327166
62859.861694314146,129618.0,75845.0,4715.0,0.9849636576982448
62859.87174496371,129616.0,75888.0,4729.0,0.9950143072637729
62859.881795613284,129618.0,75879.0,4697.0,1.005064956836577
62859.89184626285,129633.0,75880.0,4718.0,1.0151156064021052
62859.90189691242,129661.0,75883.0,4719.0,1.0251662559749093
62859.91194756199,129634.0,75879.0,4698.0,1.0352169055404374
62859.921998211554,129648.0,75875.0,4743.0,1.0452675551059656
62859.93204886113,129649.0,75881.0,4723.0,1.0553182046787697
62859.94209951069,129683.0,75914.0,4740.0,1.0653688542442978
62859.952150160265,129647.0,75874.0,4708.0,1.075419503817102
62859.96220080983,129672.0,75905.0,4732.0,1.08547015338263
62859.972251459396,129647.0,75889.0,4714.0,1.0955208029481582
62859.98230210897,129632.0,75864.0,4734.0,1.1055714525209623
62859.992352758534,129670.0,75887.0,4721.0,1.1156221020864905
62860.00240340811,129651.0,75876.0,4737.0,1.1256727516592946
62860.01245405767,129659.0,75883.0,4716.0,1.1357234012248227
62860.02250470724,129655.0,75861.0,4742.0,1.1457740507903509
62860.03255535681,129632.0,75893.0,4729.0,1.155824700363155
62860.04260600638,129659.0,75869.0,4737.0,1.1658753499286831
62860.05265665594,129655.0,75881.0,4719.0,1.1759259994942113
62860.062707305515,129664.0,75868.0,4699.0,1.1859766490670154
62860.07275795508,129689.0,75918.0,4706.0,1.1960272986325435
62860.08280860465,129655.0,75896.0,4754.0,1.2060779482053476
62860.09285925422,129657.0,75888.0,4723.0,1.2161285977708758
62860.102909903784,129662.0,75891.0,4727.0,1.226179247336404
62860.11296055336,129645.0,75858.0,4739.0,1.236229896909208
62860.12301120292,129652.0,75889.0,4708.0,1.2462805464747362
62860.133061852495,129674.0,75881.0,4733.0,1.2563311960475403
62860.14311250206,129696.0,75911.0,4737.0,1.2663818456130684
62860.153163151626,129647.0,75884.0,4738.0,1.2764324951785966
62860.1632138012,129657.0,75895.0,4719.0,1.2864831447514007
62860.173264450765,129667.0,75868.0,4723.0,1.2965337943169288
62860.18331510034,129682.0,75906.0,4739.0,1.306584443889733
62860.1933657499,129662.0,75878.0,4711.0,1.316635093455261
62860.20341639947,129676.0,75893.0,4702.0,1.3266857430207892
62860.21346704904,129677.0,75892.0,4745.0,1.3367363925935933
62860.22351769861,129677.0,75896.0,4743.0,1.3467870421591215
62860.23356834818,129706.0,75910.0,4745.0,1.3568376917319256
62860.243618997745,129684.0,75924.0,4743.0,1.3668883412974537
62860.25366964731,129691.0,75890.0,4723.0,1.3769389908629819
62860.26372029688,129685.0,75896.0,4729.0,1.386989640435786
62860.27377094645,129677.0,75889.0,4717.0,1.3970402900013141
62860.283821596015,129699.0,75911.0,4750.0,1.4070909395668423
62860.29387224559,129634.0,75843.0,4706.0,1.4171415891396464
62860.30392289515,129672.0,75891.0,4729.0,1.4271922387051745
62860.313973544726,129695.0,75917.0,4731.0,1.4372428882779786
62860.32402419429,129688.0,75888.0,4748.0,1.4472935378435068
62860.33407484386,129695.0,75913.0,4741.0,1.457344187409035
62860.34412549343,129663.0,75887.0,4722.0,1.467394836981839
62860.354176142995,129654.0,75899.0,4749.0,1.4774454865473672
62860.36422679257,129617.0,75860.0,4707.0,1.4874961361201713
62860.37427744213,129592.0,75882.0,4698.0,1.4975467856856994
62860.3843280917,129634.0,75878.0,4723.0,1.5075974352512276
62860.39437874127,129636.0,75874.0,4749.0,1.5176480848240317
62860.40442939084,129606.0,75863.0,4710.0,1.5276987343895598
62860.41448004041,129653.0,75893.0,4735.0,1.537749383962364
62860.424530689976,129611.0,75882.0,4704.0,1.547800033527892
62860.43458133954,129593.0,75871.0,4719.0,1.5578506830934202
62860.444631989114,129589.0,75906.0,4723.0,1.5679013326662243
62860.45468263868,129646.0,75901.0,4727.0,1.5779519822317525
62860.46473328825,129610.0,75871.0,4716.0,1.5880026318045566
62860.47478393782,129630.0,75893.0,4695.0,1.5980532813700847
62860.48483458738,129636.0,75893.0,4739.0,1.6081039309356129
62860.494885236956,129624.0,75912.0,4739.0,1.618154580508417
62860.50493588652,129614.0,75879.0,4722.0,1.6282052300739451
62860.51498653609,129588.0,75874.0,4700.0,1.6382558796394733
62860.52503718566,129635.0,75867.0,4737.0,1.6483065292122774
62860.535087835226,129607.0,75867.0,4687.0,1.6583571787778055
62860.5451384848,129600.0,75875.0,4716.0,1.6684078283506096
62860.555189134364,129614.0,75878.0,4710.0,1.6784584779161378
62860.56523978393,129587.0,75857.0,4721.0,1.688509127481666
62860.5752904335,129597.0,75854.0,4712.0,1.69855977705447
62860.58534108307,129619.0,75888.0,4711.0,1.7086104266199982
62860.59539173264,129618.0,75897.0,4712.0,1.7186610761928023
62860.605442382206,129614.0,75879.0,4724.0,1.7287117257583304
62860.61549303177,129651.0,75896.0,4725.0,1.7387623753238586
62860.625543681344,129622.0,75879.0,4717.0,1.7488130248966627
62860.63559433091,129633.0,75895.0,4746.0,1.7588636744621908
62860.64564498048,129598.0,75883.0,4705.0,1.768914324034995
62860.65569563005,129616.0,75890.0,4712.0,1.778964973600523
62860.665746279614,129617.0,75879.0,4712.0,1.7890156231660512
62860.67579692919,129604.0,75856.0,4728.0,1.7990662727388553
62860.68584757875,129661.0,75910.0,4740.0,1.8091169223043835
62860.695898228325,129641.0,75895.0,4713.0,1.8191675718771876
62860.70594887789,129618.0,75872.0,4730.0,1.8292182214427157
62860.715999527456,129595.0,75866.0,4727.0,1.8392688710082439
62860.72605017703,129646.0,75912.0,4742.0,1.849319520581048
62860.736100826594,129583.0,75861.0,4732.0,1.8593701701465761
62860.74615147616,129594.0,75881.0,4704.0,1.8694208197121043
62860.75620212573,129625.0,75879.0,4718.0,1.8794714692849084
62860.7662527753,129640.0,75895.0,4730.0,1.8895221188504365
62860.77630342487,129630.0,75891.0,4748.0,1.8995727684232406
62860.78635407444,129593.0,75865.0,4733.0,1.9096234179887688
62860.796404724,129622.0,75880.0,4727.0,1.919674067554297
62860.806455373575,129658.0,75901.0,4731.0,1.929724717127101
62860.81650602314,129624.0,75886.0,4702.0,1.9397753666926292
62860.82655667271,129648.0,75887.0,4699.0,1.9498260162654333
62860.83660732228,129633.0,75866.0,4726.0,1.9598766658309614
62860.846657971844,129619.0,75859.0,4738.0,1.9699273153964896
62860.85670862142,129607.0,75868.0,4693.0,1.9799779649692937
62860.86675927098,129622.0,75881.0,4716.0,1.9900286145348218
62860.876809920555,129636.0,75878.0,4720.0,2.000079264107626
62860.88686057012,129625.0,75863.0,4712.0,2.010129913673154
62860.89691121969,129654.0,75865.0,4734.0,2.0201805632386822
62860.90696186926,129651.0,75909.0,4749.0,2.0302312128114863
62860.917012518825,129646.0,75885.0,4723.0,2.0402818623770145
62860.9270631684,129663.0,75885.0,4722.0,2.0503325119498186
62860.93711381796,129632.0,75912.0,4734.0,2.0603831615153467
62860.94716446753,129639.0,75882.0,4721.0,2.070433811080875
62860.9572151171,129636.0,75856.0,4702.0,2.080484460653679
62860.96726576667,129632.0,75885.0,4713.0,2.090535110219207
62860.97731641623,129644.0,75881.0,4711.0,2.1005857597847353
62860.987367065805,129646.0,75877.0,4734.0,2.1106364093575394
62860.99741771537,129656.0,75887.0,4720.0,2.1206870589230675
62861.00746836494,129680.0,75916.0,4720.0,2.1307377084958716
62861.01751901451,129687.0,75892.0,4732.0,2.1407883580613998
62861.027569664075,129680.0,75893.0,4722.0,2.150839007626928
62861.03762031365,129654.0,75885.0,4732.0,2.160889657199732
62861.04767096321,129651.0,75877.0,4738.0,2.17094030676526
62861.057721612786,129648.0,75879.0,4715.0,2.1809909563380643
62861.06777226235,129675.0,75907.0,4717.0,2.1910416059035924
62861.07782291192,129672.0,75893.0,4731.0,2.2010922554691206
62861.08787356149,129630.0,75876.0,4740.0,2.2111429050419247
62861.097924211055,129668.0,75915.0,4751.0,2.221193554607453
62861.10797486063,129666.0,75868.0,4727.0,2.231244204180257
62861.11802551019,129670.0,75898.0,4728.0,2.241294853745785
62861.12807615976,129664.0,75891.0,4699.0,2.2513455033113132
62861.13812680933,129682.0,75907.0,4755.0,2.2613961528841173
62861.1481774589,129665.0,75890.0,4728.0,2.2714468024496455
62861.15822810847,129679.0,75883.0,4723.0,2.2814974520224496
62861.168278758036,129660.0,75872.0,4714.0,2.2915481015879777
62861.1783294076,129689.0,75882.0,4729.0,2.301598751153506
62861.188380057174,129658.0,75872.0,4737.0,2.31164940072631
62861.19843070674,129677.0,75889.0,4699.0,2.321700050291838
62861.208481356305,129643.0,75896.0,4746.0,2.3317506998573663
62861.21853200588,129650.0,75891.0,4731.0,2.3418013494301704
62861.22858265544,129662.0,75880.0,4716.0,2.3518519989956985
62861.238633305016,129659.0,75895.0,4696.0,2.3619026485685026
62861.24868395458,129672.0,75880.0,4728.0,2.3719532981340308
62861.25873460415,129665.0,75900.0,4719.0,2.382003947699559
62861.26878525372,129638.0,75887.0,4713.0,2.392054597272363
62861.278835903286,129676.0,75889.0,4741.0,2.402105246837891
62861.28888655286,129643.0,75914.0,4727.0,2.4121558964106953
62861.298937202424,129625.0,75863.0,4718.0,2.4222065459762234
62861.30898785199,129602.0,75877.0,4703.0,2.4322571955417516
62861.31903850156,129607.0,75886.0,4712.0,2.4423078451145557
62861.32908915113,129630.0,75878.0,4727.0,2.452358494680084
62861.3391398007,129599.0,75869.0,4709.0,2.462409144252888
62861.349190450266,129601.0,75849.0,4712.0,2.472459793818416
62861.35924109983,129615.0,75880.0,4702.0,2.482510443383944
62861.369291749405,129607.0,75884.0,4717.0,2.4925610929567483
62861.37934239897,129597.0,75851.0,4711.0,2.5026117425222765
62861.38939304854,129581.0,75849.0,4709.0,2.5126623920950806
62861.39944369811,129630.0,75898.0,4726.0,2.5227130416606087
62861.409494347674,129609.0,75875.0,4717.0,2.532763691226137
62861.41954499725,129617.0,75889.0,4712.0,2.542814340798941
62861.42959564681,129589.0,75884.0,4723.0,2.552864990364469
62861.43964629638,129624.0,75888.0,4743.0,2.5629156399299973
62861.44969694595,129616.0,75880.0,4716.0,2.5729662895028014
62861.459747595516,129606.0,75862.0,4718.0,2.5830169390683295
62861.46979824509,129600.0,75873.0,4700.0,2.5930675886411336
62861.479848894654,129574.0,75877.0,4715.0,2.6031182382066618
62861.48989954422,129582.0,75866.0,4744.0,2.61316888777219
62861.49995019379,129591.0,75865.0,4720.0,2.623219537344994
62861.51000084336,129582.0,75873.0,4696.0,2.633270186910522
62861.52005149293,129600.0,75868.0,4714.0,2.6433208364833263
62861.5301021425,129600.0,75892.0,4709.0,2.6533714860488544
62861.54015279206,129592.0,75855.0,4712.0,2.6634221356143826
62861.550203441635,129634.0,75870.0,4739.0,2.6734727851871867
62861.5602540912,129623.0,75909.0,4734.0,2.683523434752715
62861.57030474077,129607.0,75892.0,4719.0,2.693574084325519
62861.58035539034,129582.0,75882.0,4707.0,2.703624733891047
62861.590406039904,129641.0,75904.0,4719.0,2.713675383456575
62861.60045668948,129613.0,75858.0,4718.0,2.7237260330293793
62861.61050733904,129610.0,75893.0,4719.0,2.7337766825949075
62861.620557988615,129607.0,75893.0,4713.0,2.7438273321677116
62861.63060863818,129613.0,75866.0,4707.0,2.7538779817332397
62861.64065928775,129629.0,75891.0,4747.0,2.763928631298768
62861.65070993732,129615.0,75886.0,4721.0,2.773979280871572
62861.660760586885,129624.0,75869.0,4708.0,2.7840299304371
62861.67081123645,129632.0,75895.0,4740.0,2.7940805800026283
62861.68086188602,129633.0,75909.0,4727.0,2.8041312295754324
62861.69091253559,129611.0,75884.0,4715.0,2.8141818791409605
62861.70096318516,129616.0,75898.0,4723.0,2.8242325287137646
62861.71101383473,129644.0,75892.0,4725.0,2.8342831782792928
62861.72106448429,129628.0,75865.0,4732.0,2.844333827844821
62861.731115133865,129591.0,75881.0,4699.0,2.854384477417625
62861.74116578343,129661.0,75893.0,4718.0,2.864435126983153
62861.751216433004,129614.0,75909.0,4753.0,2.8744857765559573
62861.76126708257,129624.0,75871.0,4698.0,2.8845364261214854
62861.771317732135,129634.0,75874.0,4720.0,2.8945870756870136
62861.78136838171,129622.0,75865.0,4736.0,2.9046377252598177
62861.79141903127,129619.0,75882.0,4710.0,2.914688374825346
62861.801469680846,129610.0,75863.0,4697.0,2.92473902439815
62861.81152033041,129656.0,75892.0,4692.0,2.934789673963678
62861.82157097998,129622.0,75890.0,4725.0,2.944840323529206
62861.83162162955,129624.0,75879.0,4716.0,2.9548909731020103
62861.841672279115,129637.0,75896.0,4717.0,2.9649416226675385
62861.85172292869,129612.0,75908.0,4732.0,2.9749922722403426
62861.86177357825,129652.0,75892.0,4726.0,2.9850429218058707
62861.87182422782,129644.0,75886.0,4709.0,2.995093571371399
62861.88187487739,129659.0,75899.0,4700.0,3.005144220944203
62861.89192552696,129653.0,75895.0,4743.0,3.015194870509731
62861.90197617652,129637.0,75882.0,4731.0,3.0252455200752593
62861.912026826096,129614.0,75893.0,4711.0,3.0352961696480634
62861.92207747566,129644.0,75903.0,4747.0,3.0453468192135915
62861.932128125234,129634.0,75905.0,4723.0,3.0553974687863956
62861.9421787748,129651.0,75884.0,4725.0,3.0654481183519238
62861.952229424365,129633.0,75876.0,4703.0,3.075498767917452
62861.96228007394,129642.0,75903.0,4742.0,3.085549417490256
62861.9723307235,129662.0,75903.0,4749.0,3.095600067055784
62861.982381373076,129648.0,75875.0,4730.0,3.1056507166285883
62861.99243202264,129618.0,75911.0,4721.0,3.1157013661941164
62862.00248267221,129671.0,75872.0,4732.0,3.1257520157596446
62862.01253332178,129630.0,75887.0,4738.0,3.1358026653324487
62862.022583971346,129673.0,75893.0,4736.0,3.145853314897977
62862.03263462092,129645.0,75904.0,4737.0,3.155903964470781
62862.042685270484,129625.0,75870.0,4726.0,3.165954614036309
62862.05273592005,129628.0,75910.0,4733.0,3.176005263601837
62862.06278656962,129657.0,75894.0,4738.0,3.1860559131746413
62862.07283721919,129693.0,75887.0,4755.0,3.1961065627401695
62862.08288786876,129651.0,75895.0,4713.0,3.2061572123129736
62862.092938518326,129626.0,75897.0,4702.0,3.2162078618785017
62862.10298916789,129671.0,75890.0,4730.0,3.22625851144403
62862.113039817465,129643.0,75894.0,4731.0,3.236309161016834
62862.12309046703,129641.0,75902.0,4725.0,3.246359810582362
62862.133141116596,129678.0,75911.0,4758.0,3.2564104601478903
62862.14319176617,129672.0,75897.0,4728.0,3.2664611097206944
62862.153242415734,129651.0,75876.0,4726.0,3.2765117592862225
62862.16329306531,129687.0,75906.0,4739.0,3.2865624088590266
62862.17334371487,129652.0,75869.0,4756.0,3.2966130584245548
62862.18339436444,129668.0,75893.0,4726.0,3.306663707990083
62862.19344501401,129662.0,75898.0,4751.0,3.316714357562887
62862.203495663576,129653.0,75902.0,4710.0,3.326765007128415
62862.21354631315,129679.0,75850.0,4746.0,3.3368156567012193
62862.223596962715,129660.0,75889.0,4733.0,3.3468663062667474
62862.23364761228,129657.0,75875.0,4732.0,3.3569169558322756
62862.24369826185,129636.0,75885.0,4736.0,3.3669676054050797
62862.25374891142,129628.0,75866.0,4709.0,3.377018254970608
62862.26379956099,129647.0,75890.0,4757.0,3.387068904543412
62862.27385021056,129627.0,75902.0,4727.0,3.39711955410894
62862.28390086012,129576.0,75817.0,4717.0,3.407170203674468
62862.293951509695,129596.0,75861.0,4736.0,3.4172208532472723
62862.30400215926,129631.0,75888.0,4730.0,3.4272715028128005
62862.31405280883,129611.0,75875.0,4717.0,3.4373221523856046
62862.3241034584,129589.0,75869.0,4710.0,3.4473728019511327
62862.334154107964,129628.0,75888.0,4745.0,3.457423451516661
62862.34420475754,129611.0,75865.0,4731.0,3.467474101089465
62862.3542554071,129606.0,75881.0,4718.0,3.477524750654993
62862.36430605667,129578.0,75855.0,4714.0,3.4875754002205213
62862.37435670624,129646.0,75902.0,4699.0,3.4976260497933254
62862.38440735581,129587.0,75874.0,4704.0,3.5076766993588535
62862.39445800538,129598.0,75877.0,4721.0,3.5177273489316576
62862.404508654945,129594.0,75877.0,4728.0,3.5277779984971858
62862.41455930451,129617.0,75892.0,4733.0,3.537828648062714
62862.42460995408,129582.0,75825.0,4701.0,3.547879297635518
62862.43466060365,129603.0,75880.0,4730.0,3.557929947201046
62862.44471125322,129618.0,75895.0,4714.0,3.5679805967738503
62862.45476190279,129603.0,75874.0,4708.0,3.5780312463393784
62862.46481255235,129597.0,75884.0,4717.0,3.5880818959049066
62862.474863201925,129605.0,75877.0,4721.0,3.5981325454777107
62862.48491385149,129617.0,75872.0,4714.0,3.608183195043239
62862.494964501064,129586.0,75885.0,4714.0,3.618233844616043
62862.50501515063,129610.0,75895.0,4701.0,3.628284494181571
62862.515065800195,129604.0,75871.0,4727.0,3.638335143747099
62862.52511644977,129595.0,75894.0,4748.0,3.6483857933199033
62862.53516709933,129619.0,75890.0,4715.0,3.6584364428854315
62862.545217748906,129621.0,75910.0,4735.0,3.6684870924582356
62862.55526839847,129600.0,75884.0,4719.0,3.6785377420237637
62862.56531904804,129594.0,75858.0,4710.0,3.688588391589292
62862.57536969761,129621.0,75892.0,4699.0,3.698639041162096
62862.585420347175,129614.0,75860.0,4695.0,3.708689690727624
62862.59547099674,129624.0,75883.0,4724.0,3.7187403402931523
62862.605521646314,129601.0,75871.0,4711.0,3.7287909898659564
62862.61557229588,129604.0,75911.0,4732.0,3.7388416394314845
62862.62562294545,129600.0,75884.0,4712.0,3.7488922890042886
62862.63567359502,129619.0,75870.0,4717.0,3.7589429385698168
62862.64572424458,129616.0,75880.0,4697.0,3.768993588135345
62862.655774894156,129622.0,75903.0,4744.0,3.779044237708149
62862.66582554372,129586.0,75880.0,4702.0,3.789094887273677
62862.675876193294,129616.0,75882.0,4718.0,3.7991455368464813
62862.68592684286,129598.0,75881.0,4709.0,3.8091961864120094
62862.695977492425,129589.0,75877.0,4703.0,3.8192468359775376
62862.706028142,129637.0,75887.0,4746.0,3.8292974855503417
62862.71607879156,129620.0,75882.0,4735.0,3.83934813511587
62862.72612944114,129607.0,75900.0,4728.0,3.849398784688674
62862.7361800907,129623.0,75873.0,4721.0,3.859449434254202
62862.74623074027,129606.0,75886.0,4727.0,3.86950008381973
62862.75628138984,129624.0,75888.0,4713.0,3.8795507333925343
62862.766332039406,129633.0,75878.0,4726.0,3.8896013829580625
62862.77638268898,129638.0,75874.0,4695.0,3.8996520325308666
62862.786433338544,129644.0,75898.0,4740.0,3.9097026820963947
62862.79648398811,129604.0,75871.0,4731.0,3.919753331661923
62862.80653463768,129630.0,75895.0,4727.0,3.929803981234727
62862.81658528725,129609.0,75891.0,4717.0,3.939854630800255
62862.82663593681,129663.0,75897.0,4751.0,3.9499052803657833
62862.836686586386,129618.0,75869.0,4714.0,3.9599559299385874
62862.84673723595,129629.0,75882.0,4722.0,3.9700065795041155
62862.856787885525,129651.0,75874.0,4723.0,3.9800572290769196
62862.86683853509,129627.0,75900.0,4746.0,3.9901078786424478
62862.876889184656,129625.0,75885.0,4690.0,4.000158528207976
62862.88693983423,129646.0,75879.0,4728.0,4.01020917778078
62862.896990483794,129638.0,75882.0,4713.0,4.020259827346308
62862.90704113337,129662.0,75902.0,4735.0,4.030310476919112
62862.91709178293,129652.0,75875.0,4730.0,4.04036112648464
62862.9271424325,129657.0,75883.0,4734.0,4.0504117760501686
62862.93719308207,129661.0,75906.0,4745.0,4.060462425622973
62862.947243731636,129618.0,75887.0,4702.0,4.070513075188501
62862.95729438121,129667.0,75891.0,4746.0,4.080563724761305
62862.967345030775,129650.0,75878.0,4730.0,4.090614374326833
62862.97739568034,129638.0,75871.0,4731.0,4.100665023892361
62862.98744632991,129650.0,75862.0,4728.0,4.110715673465165
62862.99749697948,129632.0,75893.0,4739.0,4.1207663230306935
62863.00754762905,129651.0,75889.0,4718.0,4.130816972603498
62863.01759827862,129642.0,75873.0,4737.0,4.140867622169026
62863.02764892818,129668.0,75904.0,4727.0,4.150918271734554
62863.037699577755,129663.0,75881.0,4758.0,4.160968921307358
62863.04775022732,129653.0,75890.0,4738.0,4.171019570872886
62863.057800876886,129625.0,75882.0,4710.0,4.181070220438414
62863.06785152646,129670.0,75915.0,4731.0,4.191120870011218
62863.077902176025,129660.0,75874.0,4719.0,4.2011715195767465
62863.0879528256,129638.0,75888.0,4735.0,4.211222169149551
62863.09800347516,129680.0,75898.0,4748.0,4.221272818715079
62863.10805412473,129657.0,75857.0,4728.0,4.231323468280607
62863.1181047743,129662.0,75865.0,4736.0,4.241374117853411
62863.12815542387,129684.0,75902.0,4729.0,4.251424767418939
62863.13820607344,129690.0,75916.0,4715.0,4.261475416991743
62863.148256723005,129669.0,75875.0,4702.0,4.271526066557271
62863.15830737257,129682.0,75889.0,4735.0,4.2815767161227996
62863.16835802214,129677.0,75903.0,4743.0,4.291627365695604
62863.17840867171,129692.0,75894.0,4737.0,4.301678015261132
62863.18845932128,129684.0,75898.0,4725.0,4.311728664833936
62863.19850997085,129681.0,75905.0,4733.0,4.321779314399464
62863.20856062041,129662.0,75907.0,4762.0,4.331829963964992
62863.218611269986,129607.0,75868.0,4731.0,4.341880613537796
62863.22866191955,129609.0,75868.0,4710.0,4.3519312631033245
62863.238712569124,129644.0,75901.0,4757.0,4.361981912676129
62863.24876321869,129602.0,75879.0,4713.0,4.372032562241657
62863.258813868255,129609.0,75874.0,4733.0,4.382083211807185
62863.26886451783,129596.0,75876.0,4706.0,4.392133861379989
62863.27891516739,129623.0,75896.0,4745.0,4.402184510945517
62863.28896581696,129614.0,75881.0,4718.0,4.412235160511045
62863.29901646653,129610.0,75867.0,4724.0,4.422285810083849
62863.3090671161,129589.0,75897.0,4714.0,4.4323364596493775
62863.31911776567,129572.0,75875.0,4712.0,4.442387109222182
62863.329168415235,129640.0,75912.0,4705.0,4.45243775878771
62863.3392190648,129601.0,75881.0,4717.0,4.462488408353238
62863.349269714374,129592.0,75870.0,4717.0,4.472539057926042
62863.35932036394,129566.0,75857.0,4712.0,4.48258970749157
62863.36937101351,129581.0,75914.0,4744.0,4.492640357064374
62863.37942166308,129611.0,75890.0,4716.0,4.502691006629902
62863.38947231264,129649.0,75874.0,4731.0,4.5127416561954306
62863.399522962216,129614.0,75884.0,4699.0,4.522792305768235
62863.40957361178,129612.0,75898.0,4738.0,4.532842955333763
62863.419624261354,129591.0,75880.0,4724.0,4.542893604906567
62863.42967491092,129566.0,75892.0,4717.0,4.552944254472095
62863.439725560485,129582.0,75879.0,4709.0,4.562994904037623
62863.44977621006,129609.0,75905.0,4732.0,4.573045553610427
62863.459826859624,129608.0,75883.0,4711.0,4.5830962031759555
62863.4698775092,129576.0,75859.0,4718.0,4.59314685274876
62863.47992815876,129600.0,75851.0,4716.0,4.603197502314288
62863.48997880833,129604.0,75893.0,4745.0,4.613248151879816
62863.5000294579,129608.0,75878.0,4715.0,4.62329880145262
62863.510080107466,129553.0,75879.0,4707.0,4.633349451018148
62863.52013075703,129603.0,75875.0,4696.0,4.643400100583676
62863.530181406604,129596.0,75887.0,4730.0,4.65345075015648
62863.54023205617,129619.0,75880.0,4721.0,4.6635013997220085
62863.55028270574,129584.0,75865.0,4715.0,4.673552049294813
62863.56033335531,129620.0,75917.0,4746.0,4.683602698860341
62863.57038400487,129558.0,75902.0,4731.0,4.693653348425869
62863.58043465445,129613.0,75883.0,4720.0,4.703703997998673
62863.59048530401,129607.0,75886.0,4750.0,4.713754647564201
62863.600535953585,129593.0,75872.0,4706.0,4.723805297137005
62863.61058660315,129600.0,75851.0,4711.0,4.733855946702533
62863.620637252716,129626.0,75898.0,4727.0,4.7439065962680615
62863.63068790229,129589.0,75901.0,4730.0,4.753957245840866
62863.640738551854,129593.0,75875.0,4710.0,4.764007895406394
62863.65078920143,129617.0,75887.0,4727.0,4.774058544979198
62863.66083985099,129624.0,75895.0,4730.0,4.784109194544726
62863.67089050056,129591.0,75856.0,4723.0,4.794159844110254
62863.68094115013,129604.0,75869.0,4710.0,4.804210493683058
62863.690991799696,129642.0,75902.0,4736.0,4.8142611432485864
62863.70104244927,129633.0,75886.0,4711.0,4.8243117928213906
62863.711093098835,129604.0,75888.0,4734.0,4.834362442386919
62863.7211437484,129651.0,75894.0,4762.0,4.844413091952447
62863.73119439797,129645.0,75901.0,4747.0,4.854463741525251
62863.74124504754,129613.0,75891.0,4706.0,4.864514391090779
62863.751295697104,129625.0,75894.0,4708.0,4.874565040656307
62863.76134634668,129646.0,75902.0,4708.0,4.884615690229111
62863.77139699624,129621.0,75883.0,4732.0,4.8946663397946395
62863.781447645815,129633.0,75878.0,4725.0,4.904716989367444
62863.79149829538,129646.0,75896.0,4725.0,4.914767638932972
62863.801548944946,129640.0,75874.0,4726.0,4.9248182884985
62863.81159959452,129617.0,75883.0,4694.0,4.934868938071304
62863.821650244085,129664.0,75922.0,4757.0,4.944919587636832
62863.83170089366,129648.0,75893.0,4727.0,4.954970237209636
62863.84175154322,129639.0,75903.0,4759.0,4.965020886775164
62863.85180219279,129624.0,75893.0,4718.0,4.9750715363406925
62863.86185284236,129624.0,75915.0,4734.0,4.985122185913497
62863.87190349193,129658.0,75901.0,4730.0,4.995172835479025
62863.8819541415,129656.0,75860.0,4696.0,5.005223485051829
62863.892004791065,129640.0,75904.0,4704.0,5.015274134617357
62863.90205544063,129632.0,75869.0,4721.0,5.025324784182885
62863.9121060902,129650.0,75898.0,4735.0,5.035375433755689
62863.92215673977,129639.0,75878.0,4724.0,5.0454260833212174
62863.93220738934,129656.0,75919.0,4753.0,5.0554767328940216
62863.94225803891,129675.0,75892.0,4765.0,5.06552738245955
62863.95230868847,129658.0,75898.0,4735.0,5.075578032025078
62863.962359338046,129646.0,75890.0,4723.0,5.085628681597882
62863.97240998761,129673.0,75907.0,4755.0,5.09567933116341
62863.98246063718,129611.0,75875.0,4731.0,5.105729980728938
62863.99251128675,129661.0,75903.0,4726.0,5.115780630301742
62864.002561936315,129651.0,75925.0,4739.0,5.1258312798672705
62864.01261258589,129636.0,75891.0,4755.0,5.135881929440075
62864.02266323545,129645.0,75857.0,4706.0,5.145932579005603
62864.03271388502,129651.0,75902.0,4736.0,5.155983228571131
62864.04276453459,129672.0,75911.0,4756.0,5.166033878143935
62864.05281518416,129635.0,75878.0,4738.0,5.176084527709463
62864.06286583373,129632.0,75897.0,4719.0,5.186135177282267
62864.072916483296,129651.0,75900.0,4733.0,5.196185826847795
62864.08296713286,129687.0,75911.0,4752.0,5.2062364764133235
62864.093017782434,129644.0,75871.0,4738.0,5.216287125986128
62864.103068432,129696.0,75919.0,4740.0,5.226337775551656
62864.11311908157,129668.0,75907.0,4738.0,5.23638842512446
62864.12316973114,129678.0,75927.0,4753.0,5.246439074689988
62864.1332203807,129683.0,75911.0,4762.0,5.256489724255516
62864.143271030276,129656.0,75931.0,4753.0,5.26654037382832
62864.15332167984,129603.0,75888.0,4748.0,5.2765910233938484
62864.163372329414,129614.0,75868.0,4723.0,5.2866416729666525
62864.17342297898,129601.0,75869.0,4719.0,5.296692322532181
62864.183473628545,129638.0,75914.0,4745.0,5.306742972097709
62864.19352427812,129612.0,75891.0,4718.0,5.316793621670513
62864.203574927684,129595.0,75870.0,4750.0,5.326844271236041
62864.21362557725,129646.0,75897.0,4748.0,5.336894920801569
62864.22367622682,129612.0,75874.0,4704.0,5.346945570374373
62864.23372687639,129596.0,75894.0,4704.0,5.3569962199399015
62864.24377752596,129610.0,75861.0,4719.0,5.367046869512706
62864.253828175526,129611.0,75896.0,4694.0,5.377097519078234
62864.26387882509,129631.0,75886.0,4766.0,5.387148168643762
62864.273929474664,129620.0,75886.0,4752.0,5.397198818216566
62864.28398012423,129619.0,75932.0,4719.0,5.407249467782094
62864.2940307738,129608.0,75877.0,4714.0,5.417300117354898
62864.30408142337,129600.0,75893.0,4743.0,5.427350766920426
62864.314132072934,129620.0,75914.0,4744.0,5.4374014164859545
62864.32418272251,129604.0,75877.0,4733.0,5.447452066058759
62864.33423337207,129558.0,75907.0,4725.0,5.457502715624287
62864.344284021645,129580.0,75865.0,4735.0,5.467553365197091
62864.35433467121,129625.0,75917.0,4742.0,5.477604014762619
62864.364385320776,129591.0,75898.0,4727.0,5.487654664328147
62864.37443597035,129630.0,75880.0,4756.0,5.497705313900951
62864.384486619914,129618.0,75901.0,4707.0,5.507755963466479
62864.39453726949,129631.0,75909.0,4737.0,5.5178066130392835
62864.40458791905,129602.0,75887.0,4726.0,5.527857262604812
62864.41463856862,129623.0,75892.0,4737.0,5.53790791217034
62864.42468921819,129624.0,75906.0,4739.0,5.547958561743144
62864.43473986776,129586.0,75864.0,4708.0,5.558009211308672
62864.44479051732,129611.0,75880.0,4725.0,5.5680598608742
62864.454841166895,129597.0,75858.0,4726.0,5.578110510447004
62864.46489181646,129614.0,75864.0,4726.0,5.5881611600125325
62864.47494246603,129606.0,75880.0,4740.0,5.598211809585337
62864.4849931156,129612.0,75894.0,4725.0,5.608262459150865
62864.495043765164,129621.0,75876.0,4711.0,5.618313108716393
62864.50509441474,129629.0,75891.0,4741.0,5.628363758289197
62864.5151450643,129634.0,75912.0,4699.0,5.638414407854725
62864.525195713875,129616.0,75897.0,4726.0,5.648465057427529
62864.53524636344,129598.0,75882.0,4720.0,5.658515706993057
62864.545297013006,129605.0,75914.0,4680.0,5.6685663565585855
62864.55534766258,129574.0,75894.0,4707.0,5.67861700613139
62864.565398312145,129610.0,75890.0,4725.0,5.688667655696918
62864.57544896172,129646.0,75889.0,4743.0,5.698718305269722
62864.58549961128,129644.0,75907.0,4707.0,5.70876895483525
62864.59555026085,129616.0,75893.0,4707.0,5.718819604400778
62864.60560091042,129625.0,75900.0,4713.0,5.728870253973582
62864.61565155999,129601.0,75887.0,4708.0,5.73892090353911
62864.62570220956,129623.0,75913.0,4700.0,5.7489715531119145
62864.635752859125,129599.0,75886.0,4709.0,5.759022202677443
62864.64580350869,129627.0,75899.0,4724.0,5.769072852242971
62864.65585415826,129620.0,75876.0,4724.0,5.779123501815775
62864.66590480783,129666.0,75912.0,4740.0,5.789174151381303
62864.675955457395,129632.0,75921.0,4694.0,5.799224800946831
62864.68600610697,129614.0,75893.0,4702.0,5.809275450519635
62864.69605675653,129592.0,75890.0,4724.0,5.8193261000851635
62864.706107406106,129627.0,75897.0,4723.0,5.829376749657968
62864.71615805567,129630.0,75887.0,4718.0,5.839427399223496
62864.72620870524,129628.0,75898.0,4730.0,5.849478048789024
62864.73625935481,129632.0,75910.0,4739.0,5.859528698361828
62864.746310004375,129652.0,75919.0,4709.0,5.869579347927356
62864.75636065395,129637.0,75881.0,4711.0,5.87962999750016
62864.76641130351,129622.0,75873.0,4712.0,5.889680647065688
62864.77646195308,129643.0,75895.0,4729.0,5.8997312966312165
62864.78651260265,129629.0,75891.0,4723.0,5.909781946204021
62864.79656325222,129617.0,75906.0,4733.0,5.919832595769549
62864.80661390179,129643.0,75899.0,4702.0,5.929883245342353
62864.816664551356,129634.0,75892.0,4718.0,5.939933894907881
62864.82671520092,129623.0,75888.0,4743.0,5.949984544473409
62864.836765850494,129636.0,75914.0,4740.0,5.960035194046213
62864.84681650006,129643.0,75927.0,4746.0,5.970085843611741
62864.85686714963,129656.0,75902.0,4730.0,5.9801364931845455
62864.8669177992,129674.0,75897.0,4763.0,5.990187142750074
62864.87696844876,129639.0,75882.0,4731.0,6.000237792315602
62864.887019098336,129674.0,75918.0,4750.0,6.010288441888406
62864.8970697479,129666.0,75902.0,4730.0,6.020339091453934
62864.90712039747,129632.0,75902.0,4731.0,6.030389741019462
62864.91717104704,129641.0,75887.0,4721.0,6.040440390592266
62864.927221696606,129662.0,75905.0,4763.0,6.0504910401577945
62864.93727234618,129648.0,75903.0,4732.0,6.060541689730599
62864.947322995744,129661.0,75890.0,4725.0,6.070592339296127
62864.95737364531,129675.0,75888.0,4743.0,6.080642988861655
62864.96742429488,129639.0,75900.0,4735.0,6.090693638434459
62864.97747494445,129658.0,75905.0,4726.0,6.100744287999987
62864.98752559402,129661.0,75907.0,4737.0,6.110794937572791
62864.997576243586,129639.0,75887.0,4697.0,6.120845587138319
62865.00762689315,129657.0,75891.0,4736.0,6.1308962367038475
62865.017677542724,129667.0,75908.0,4737.0,6.140946886276652
62865.02772819229,129659.0,75898.0,4748.0,6.15099753584218
62865.03777884186,129689.0,75922.0,4743.0,6.161048185414984
62865.04782949143,129638.0,75904.0,4707.0,6.171098834980512
62865.057880140994,129669.0,75905.0,4731.0,6.18114948454604
62865.06793079057,129675.0,75901.0,4754.0,6.191200134118844
62865.07798144013,129619.0,75875.0,4709.0,6.201250783684372
62865.088032089705,129654.0,75908.0,4733.0,6.2113014332571765
62865.09808273927,129633.0,75889.0,4734.0,6.221352082822705
62865.108133388836,129637.0,75914.0,4751.0,6.231402732388233
62865.11818403841,129617.0,75884.0,4719.0,6.241453381961037
62865.128234687974,129630.0,75921.0,4740.0,6.251504031526565
62865.13828533754,129607.0,75891.0,4730.0,6.261554681092093
62865.14833598711,129570.0,75867.0,4735.0,6.271605330664897
62865.15838663668,129603.0,75867.0,4717.0,6.2816559802304255
62865.16843728625,129623.0,75911.0,4737.0,6.29170662980323
62865.17848793582,129605.0,75890.0,4701.0,6.301757279368758
62865.18853858538,129596.0,75883.0,4756.0,6.311807928934286
62865.198589234955,129633.0,75901.0,4716.0,6.32185857850709
62865.20863988452,129623.0,75886.0,4743.0,6.331909228072618
62865.21869053409,129587.0,75880.0,4737.0,6.341959877645422
62865.22874118366,129575.0,75869.0,4737.0,6.35201052721095
62865.238791833224,129622.0,75896.0,4730.0,6.3620611767764785
62865.2488424828,129589.0,75874.0,4707.0,6.372111826349283
62865.25889313236,129600.0,75904.0,4715.0,6.382162475914811
62865.268943781935,129607.0,75892.0,4719.0,6.392213125487615
62865.2789944315,129616.0,75922.0,4727.0,6.402263775053143
62865.28904508107,129587.0,75879.0,4702.0,6.412314424618671
62865.29909573064,129619.0,75907.0,4693.0,6.422365074191475
62865.309146380205,129599.0,75892.0,4715.0,6.432415723757003
62865.31919702978,129594.0,75891.0,4723.0,6.4424663733298075
62865.32924767934,129595.0,75888.0,4725.0,6.452517022895336
62865.33929832891,129581.0,75868.0,4715.0,6.462567672460864
62865.34934897848,129587.0,75880.0,4712.0,6.472618322033668
62865.35939962805,129598.0,75879.0,4711.0,6.482668971599196
62865.36945027761,129605.0,75910.0,4707.0,6.492719621164724
62865.379500927185,129609.0,75901.0,4744.0,6.502770270737528
62865.38955157675,129608.0,75889.0,4722.0,6.5128209203030565
62865.39960222632,129595.0,75875.0,4702.0,6.522871569875861
62865.40965287589,129640.0,75903.0,4737.0,6.532922219441389
62865.419703525455,129594.0,75892.0,4710.0,6.542972869006917
62865.42975417503,129605.0,75888.0,4711.0,6.553023518579721
62865.43980482459,129609.0,75902.0,4716.0,6.563074168145249
62865.449855474166,129600.0,75876.0,4700.0,6.573124817718053
62865.45990612373,129581.0,75888.0,4718.0,6.583175467283581
62865.4699567733,129614.0,75898.0,4721.0,6.5932261168491095
62865.48000742287,129580.0,75884.0,4717.0,6.603276766421914
62865.490058072435,129573.0,75870.0,4700.0,6.613327415987442
62865.50010872201,129589.0,75890.0,4725.0,6.623378065560246
62865.51015937157,129607.0,75894.0,4723.0,6.633428715125774
62865.52021002114,129588.0,75908.0,4757.0,6.643479364691302
62865.53026067071,129594.0,75875.0,4705.0,6.653530014264106
62865.54031132028,129589.0,75881.0,4719.0,6.663580663829634
62865.55036196985,129616.0,75891.0,4728.0,6.6736313134024385
62865.560412619416,129595.0,75888.0,4723.0,6.683681962967967
62865.57046326898,129614.0,75888.0,4705.0,6.693732612533495
62865.580513918554,129587.0,75886.0,4705.0,6.703783262106299
62865.59056456812,129621.0,75901.0,4726.0,6.713833911671827
62865.600615217685,129609.0,75879.0,4701.0,6.723884561237355
62865.61066586726,129632.0,75934.0,4733.0,6.733935210810159
62865.62071651682,129612.0,75906.0,4729.0,6.7439858603756875
62865.630767166396,129618.0,75894.0,4725.0,6.754036509948492
62865.64081781596,129612.0,75885.0,4701.0,6.76408715951402
62865.65086846553,129624.0,75884.0,4724.0,6.774137809079548
62865.6609191151,129596.0,75863.0,4732.0,6.784188458652352
62865.670969764666,129635.0,75900.0,4703.0,6.79423910821788
62865.68102041424,129601.0,75895.0,4740.0,6.804289757790684
62865.691071063804,129652.0,75901.0,4731.0,6.814340407356212
62865.70112171337,129616.0,75879.0,4726.0,6.8243910569217405
62865.71117236294,129635.0,75905.0,4724.0,6.834441706494545
62865.72122301251,129640.0,75882.0,4708.0,6.844492356060073
62865.73127366208,129614.0,75895.0,4739.0,6.854543005632877
62865.741324311646,129626.0,75898.0,4705.0,6.864593655198405
62865.75137496121,129679.0,75929.0,4756.0,6.874644304763933
62865.761425610784,129640.0,75927.0,4725.0,6.884694954336737
62865.77147626035,129625.0,75872.0,4737.0,6.894745603902265
62865.78152690992,129667.0,75891.0,4754.0,6.9047962534750695
62865.79157755949,129663.0,75933.0,4733.0,6.914846903040598
62865.801628209054,129645.0,75898.0,4734.0,6.924897552606126
62865.81167885863,129631.0,75894.0,4717.0,6.93494820217893
62865.82172950819,129674.0,75918.0,4747.0,6.944998851744458
62865.83178015776,129639.0,75885.0,4736.0,6.955049501309986
62865.84183080733,129639.0,75899.0,4732.0,6.96510015088279
62865.851881456896,129660.0,75903.0,4755.0,6.9751508004483185
62865.86193210647,129677.0,75919.0,4729.0,6.985201450021123
62865.871982756034,129651.0,75877.0,4707.0,6.995252099586651
62865.8820334056,129648.0,75894.0,4733.0,7.005302749152179
62865.89208405517,129652.0,75901.0,4749.0,7.015353398724983
62865.90213470474,129667.0,75886.0,4732.0,7.025404048290511
62865.91218535431,129636.0,75890.0,4706.0,7.035454697863315
62865.92223600388,129661.0,75901.0,4736.0,7.045505347428843
62865.93228665344,129688.0,75929.0,4734.0,7.0555559969943715
62865.942337303015,129668.0,75878.0,4726.0,7.065606646567176
62865.95238795258,129678.0,75921.0,4724.0,7.075657296132704
62865.96243860215,129662.0,75911.0,4738.0,7.085707945705508
62865.97248925172,129687.0,75914.0,4731.0,7.095758595271036
62865.982539901284,129647.0,75892.0,4718.0,7.105809244836564
62865.99259055086,129689.0,75929.0,4723.0,7.115859894409368
62866.00264120042,129663.0,75905.0,4729.0,7.125910543974896
62866.012691849995,129626.0,75883.0,4758.0,7.1359611935477005
62866.02274249956,129640.0,75890.0,4725.0,7.146011843113229
62866.03279314913,129641.0,75885.0,4749.0,7.156062492678757
62866.0428437987,129639.0,75886.0,4720.0,7.166113142251561
62866.052894448265,129568.0,75852.0,4708.0,7.176163791817089
62866.06294509783,129614.0,75905.0,4706.0,7.186214441382617
62866.0729957474,129621.0,75900.0,4746.0,7.196265090955421
62866.08304639697,129605.0,75894.0,4728.0,7.2063157405209495
62866.09309704654,129586.0,75868.0,4714.0,7.216366390093754
62866.10314769611,129584.0,75906.0,4735.0,7.226417039659282
62866.11319834567,129588.0,75896.0,4697.0,7.23646768922481
62866.123248995245,129612.0,75897.0,4714.0,7.246518338797614
62866.13329964481,129615.0,75907.0,4706.0,7.256568988363142
62866.143350294384,129608.0,75908.0,4732.0,7.266619637935946
62866.15340094395,129572.0,75886.0,4707.0,7.276670287501474
62866.163451593515,129594.0,75890.0,4716.0,7.2867209370670025
62866.17350224309,129572.0,75897.0,4725.0,7.296771586639807
62866.18355289265,129609.0,75912.0,4729.0,7.306822236205335
62866.193603542226,129559.0,75869.0,4721.0,7.316872885778139
62866.20365419179,129594.0,75896.0,4724.0,7.326923535343667
62866.21370484136,129574.0,75865.0,4713.0,7.336974184909195
62866.22375549093,129581.0,75896.0,4705.0,7.347024834481999
62866.233806140495,129571.0,75874.0,4696.0,7.357075484047527
62866.24385679007,129603.0,75892.0,4740.0,7.3671261336203315
62866.25390743963,129582.0,75911.0,4723.0,7.37717678318586
62866.2639580892,129580.0,75872.0,4708.0,7.387227432751388
62866.27400873877,129631.0,75916.0,4727.0,7.397278082324192
62866.28405938834,129582.0,75886.0,4705.0,7.40732873188972
62866.2941100379,129585.0,75884.0,4713.0,7.417379381455248
62866.304160687476,129559.0,75896.0,4716.0,7.427430031028052
62866.31421133704,129615.0,75906.0,4733.0,7.4374806805935805
62866.324261986614,129582.0,75893.0,4697.0,7.447531330166385
62866.33431263618,129602.0,75898.0,4723.0,7.457581979731913
62866.344363285745,129571.0,75859.0,4708.0,7.467632629297441
62866.35441393532,129613.0,75915.0,4729.0,7.477683278870245
62866.36446458488,129571.0,75916.0,4707.0,7.487733928435773
62866.374515234456,129582.0,75883.0,4721.0,7.497784578008577
62866.38456588402,129609.0,75888.0,4738.0,7.507835227574105
62866.39461653359,129580.0,75875.0,4719.0,7.5178858771396335
62866.40466718316,129575.0,75874.0,4711.0,7.527936526712438
62866.414717832726,129602.0,75901.0,4725.0,7.537987176277966
62866.4247684823,129601.0,75917.0,4738.0,7.54803782585077
62866.434819131864,129571.0,75874.0,4711.0,7.558088475416298
62866.44486978143,129590.0,75935.0,4741.0,7.568139124981826
62866.454920431,129598.0,75891.0,4708.0,7.57818977455463
62866.46497108057,129605.0,75886.0,4712.0,7.588240424120158
62866.47502173014,129604.0,75915.0,4751.0,7.5982910736929625
62866.485072379706,129567.0,75873.0,4707.0,7.608341723258491
62866.49512302927,129606.0,75896.0,4715.0,7.618392372824019
62866.505173678845,129609.0,75881.0,4725.0,7.628443022396823
62866.51522432841,129601.0,75895.0,4707.0,7.638493671962351
62866.525274977976,129587.0,75884.0,4714.0,7.648544321527879
62866.53532562755,129607.0,75901.0,4724.0,7.658594971100683
62866.545376277114,129587.0,75886.0,4713.0,7.6686456206662115
62866.55542692669,129620.0,75906.0,4703.0,7.678696270239016
62866.56547757625,129612.0,75906.0,4751.0,7.688746919804544
62866.57552822582,129599.0,75901.0,4720.0,7.698797569370072
62866.58557887539,129616.0,75917.0,4728.0,7.708848218942876
62866.595629524956,129620.0,75888.0,4725.0,7.718898868508404
62866.60568017453,129594.0,75887.0,4699.0,7.728949518081208
62866.615730824094,129613.0,75896.0,4709.0,7.739000167646736
62866.62578147366,129621.0,75908.0,4690.0,7.7490508172122645
62866.63583212323,129623.0,75915.0,4734.0,7.759101466785069
62866.6458827728,129598.0,75865.0,4707.0,7.769152116350597
62866.65593342237,129612.0,75894.0,4723.0,7.779202765923401
62866.66598407194,129653.0,75897.0,4726.0,7.789253415488929
62866.6760347215,129597.0,75893.0,4670.0,7.799304065054457
62866.686085371075,129633.0,75905.0,4699.0,7.809354714627261
62866.69613602064,129609.0,75905.0,4723.0,7.819405364192789
62866.70618667021,129604.0,75895.0,4741.0,7.8294560137655935
62866.71623731978,129601.0,75892.0,4721.0,7.839506663331122
62866.726287969344,129587.0,75919.0,4720.0,7.84955731289665
62866.73633861892,129627.0,75899.0,4741.0,7.859607962469454
62866.74638926848,129629.0,75896.0,4728.0,7.869658612034982
62866.75643991805,129609.0,75892.0,4705.0,7.87970926160051
62866.76649056762,129646.0,75894.0,4722.0,7.889759911173314
62866.77654121719,129609.0,75885.0,4721.0,7.8998105607388425
62866.78659186676,129640.0,75895.0,4722.0,7.909861210311647
62866.796642516325,129643.0,75920.0,4735.0,7.919911859877175
62866.80669316589,129655.0,75919.0,4733.0,7.929962509442703
62866.81674381546,129595.0,75867.0,4734.0,7.940013159015507
62866.82679446503,129632.0,75901.0,4727.0,7.950063808581035
62866.8368451146,129619.0,75888.0,4722.0,7.960114458153839
62866.84689576417,129638.0,75910.0,4748.0,7.970165107719367
62866.85694641373,129605.0,75907.0,4722.0,7.9802157572848955
62866.866997063305,129635.0,75893.0,4730.0,7.9902664068577
62866.87704771287,129669.0,75889.0,4744.0,8.000317056423228
62866.887098362444,129635.0,75894.0,4711.0,8.010367705996032
62866.89714901201,129670.0,75920.0,4748.0,8.02041835556156
62866.907199661575,129636.0,75910.0,4731.0,8.030469005127088
62866.91725031115,129659.0,75926.0,4746.0,8.040519654699892
62866.92730096071,129639.0,75888.0,4706.0,8.05057030426542
62866.937351610286,129630.0,75915.0,4724.0,8.060620953838225
62866.94740225985,129586.0,75894.0,4752.0,8.070671603403753
62866.95745290942,129576.0,75873.0,4712.0,8.08072225296928
62866.96750355899,129561.0,75869.0,4711.0,8.090772902542085
62866.977554208555,129559.0,75861.0,4707.0,8.100823552107613
62866.98760485812,129567.0,75897.0,4719.0,8.110874201673141
62866.997655507694,129555.0,75889.0,4710.0,8.120924851245945
62867.00770615726,129593.0,75912.0,4728.0,8.130975500811473
62867.01775680683,129565.0,75887.0,4730.0,8.141026150384278
62867.0278074564,129567.0,75890.0,4712.0,8.151076799949806
62867.03785810596,129553.0,75863.0,4699.0,8.161127449515334
62867.047908755536,129583.0,75900.0,4696.0,8.171178099088138
62867.0579594051,129568.0,75887.0,4709.0,8.181228748653666
62867.068010054674,129576.0,75891.0,4708.0,8.19127939822647
62867.07806070424,129577.0,75871.0,4740.0,8.201330047791998
62867.088111353805,129576.0,75879.0,4725.0,8.211380697357527
62867.09816200338,129543.0,75856.0,4703.0,8.22143134693033
62867.10821265294,129553.0,75890.0,4708.0,8.231481996495859
62867.11826330252,129579.0,75907.0,4686.0,8.241532646068663
62867.12831395208,129570.0,75889.0,4736.0,8.251583295634191
62867.13836460165,129535.0,75860.0,4708.0,8.26163394519972
62867.14841525122,129568.0,75893.0,4701.0,8.271684594772523
62867.158465900786,129541.0,75906.0,4714.0,8.281735244338051
62867.16851655036,129537.0,75882.0,4706.0,8.291785893910856
62867.178567199924,129593.0,75907.0,4733.0,8.301836543476384
62867.18861784949,129563.0,75905.0,4727.0,8.311887193041912
62867.19866849906,129568.0,75910.0,4713.0,8.321937842614716
62867.20871914863,129544.0,75883.0,4689.0,8.331988492180244
62867.21876979819,129587.0,75903.0,4745.0,8.342039141745772
62867.228820447766,129577.0,75883.0,4739.0,8.352089791318576
62867.23887109733,129576.0,75899.0,4723.0,8.362140440884104
62867.248921746905,129562.0,75899.0,4702.0,8.372191090456909
62867.25897239647,129569.0,75896.0,4749.0,8.382241740022437
62867.269023046036,129546.0,75864.0,4693.0,8.392292389587965
62867.27907369561,129571.0,75905.0,4711.0,8.402343039160769
62867.289124345174,129577.0,75881.0,4697.0,8.412393688726297
62867.29917499475,129560.0,75877.0,4688.0,8.422444338299101
62867.30922564431,129568.0,75899.0,4706.0,8.43249498786463
62867.31927629388,129569.0,75893.0,4714.0,8.442545637430158
62867.32932694345,129555.0,75920.0,4740.0,8.452596287002962
62867.339377593016,129538.0,75876.0,4692.0,8.46264693656849
62867.34942824259,129533.0,75894.0,4683.0,8.472697586141294
62867.359478892155,129571.0,75897.0,4714.0,8.482748235706822
62867.36952954172,129569.0,75884.0,4742.0,8.49279888527235
62867.37958019129,129549.0,75862.0,4714.0,8.502849534845154
62867.38963084086,129599.0,75918.0,4728.0,8.512900184410682
62867.39968149043,129575.0,75899.0,4710.0,8.522950833983487
62867.40973214,129564.0,75871.0,4695.0,8.533001483549015
62867.41978278956,129546.0,75904.0,4706.0,8.543052133114543
62867.429833439135,129587.0,75928.0,4736.0,8.553102782687347
62867.4398840887,129575.0,75893.0,4715.0,8.563153432252875
62867.44993473827,129551.0,75921.0,4729.0,8.57320408182568
62867.45998538784,129558.0,75876.0,4712.0,8.583254731391207
62867.470036037404,129551.0,75880.0,4705.0,8.593305380956735
62867.48008668698,129552.0,75897.0,4697.0,8.60335603052954
62867.49013733654,129597.0,75900.0,4720.0,8.613406680095068
62867.50018798611,129612.0,75925.0,4739.0,8.623457329660596
62867.51023863568,129558.0,75878.0,4727.0,8.6335079792334
62867.52028928525,129599.0,75907.0,4719.0,8.643558628798928
62867.53033993482,129579.0,75904.0,4676.0,8.653609278371732
62867.540390584385,129606.0,75924.0,4727.0,8.66365992793726
62867.55044123395,129629.0,75925.0,4738.0,8.673710577502789
62867.56049188352,129603.0,75901.0,4726.0,8.683761227075593
62867.57054253309,129584.0,75900.0,4713.0,8.69381187664112
62867.58059318266,129585.0,75940.0,4724.0,8.703862526213925
62867.59064383223,129595.0,75887.0,4714.0,8.713913175779453
62867.60069448179,129603.0,75896.0,4705.0,8.723963825344981
62867.610745131366,129646.0,75910.0,4762.0,8.734014474917785
62867.62079578093,129583.0,75894.0,4692.0,8.744065124483313
62867.630846430504,129581.0,75891.0,4736.0,8.754115774056118
62867.64089708007,129603.0,75909.0,4715.0,8.764166423621646
62867.650947729635,129578.0,75923.0,4728.0,8.774217073187174
62867.66099837921,129613.0,75885.0,4716.0,8.784267722759978
62867.67104902877,129627.0,75924.0,4704.0,8.794318372325506
62867.681099678346,129612.0,75909.0,4740.0,8.80436902189831
62867.69115032791,129607.0,75913.0,4723.0,8.814419671463838
62867.70120097748,129630.0,75929.0,4730.0,8.824470321029366
62867.71125162705,129598.0,75897.0,4732.0,8.83452097060217
62867.721302276615,129604.0,75915.0,4722.0,8.844571620167699
62867.73135292618,129612.0,75912.0,4726.0,8.854622269733227
62867.741403575754,129637.0,75919.0,4716.0,8.864672919306031
62867.75145422532,129627.0,75926.0,4753.0,8.874723568871559
62867.76150487489,129581.0,75874.0,4734.0,8.884774218444363
62867.77155552446,129617.0,75905.0,4734.0,8.894824868009891
62867.78160617402,129583.0,75908.0,4718.0,8.90487551757542
62867.791656823596,129593.0,75883.0,4712.0,8.914926167148224
62867.80170747316,129602.0,75898.0,4721.0,8.924976816713752
62867.811758122734,129625.0,75906.0,4726.0,8.935027466286556
62867.8218087723,129576.0,75894.0,4747.0,8.945078115852084
62867.831859421865,129613.0,75934.0,4740.0,8.955128765417612
62867.84191007144,129553.0,75900.0,4708.0,8.965179414990416
62867.851960721004,129575.0,75900.0,4718.0,8.975230064555944
62867.86201137058,129578.0,75889.0,4735.0,8.985280714128749
62867.87206202014,129552.0,75894.0,4698.0,8.995331363694277
62867.88211266971,129568.0,75887.0,4702.0,9.005382013259805
62867.89216331928,129542.0,75886.0,4709.0,9.015432662832609
62867.902213968846,129539.0,75878.0,4710.0,9.025483312398137
62867.91226461842,129562.0,75915.0,4726.0,9.035533961970941
62867.922315267984,129576.0,75922.0,4726.0,9.04558461153647
62867.93236591755,129546.0,75910.0,4713.0,9.055635261101997
62867.94241656712,129547.0,75897.0,4705.0,9.065685910674802
62867.95246721669,129514.0,75880.0,4697.0,9.07573656024033
62867.96251786625,129539.0,75890.0,4704.0,9.085787209805858
62867.97256851583,129529.0,75899.0,4706.0,9.095837859378662
62867.98261916539,129497.0,75889.0,4669.0,9.10588850894419
62867.992669814965,129558.0,75914.0,4741.0,9.115939158516994
62868.00272046453,129518.0,75870.0,4710.0,9.125989808082522
62868.012771114096,129497.0,75866.0,4696.0,9.13604045764805
62868.02282176367,129508.0,75901.0,4722.0,9.146091107220855
62868.032872413234,129534.0,75902.0,4697.0,9.156141756786383
62868.04292306281,129537.0,75900.0,4709.0,9.166192406359187
62868.05297371237,129538.0,75896.0,4710.0,9.176243055924715
62868.06302436194,129516.0,75883.0,4684.0,9.186293705490243
62868.07307501151,129510.0,75861.0,4711.0,9.196344355063047
62868.083125661076,129494.0,75902.0,4686.0,9.206395004628575
62868.09317631065,129537.0,75891.0,4704.0,9.21644565420138
62868.103226960215,129520.0,75903.0,4708.0,9.226496303766908
62868.11327760978,129530.0,75901.0,4737.0,9.236546953332436
62868.12332825935,129540.0,75888.0,4708.0,9.24659760290524
62868.13337890892,129535.0,75890.0,4709.0,9.256648252470768
62868.14342955849,129510.0,75885.0,4709.0,9.266698902043572
62868.15348020806,129506.0,75904.0,4693.0,9.2767495516091
62868.16353085762,129527.0,75883.0,4711.0,9.286800201174628
62868.173581507195,129532.0,75891.0,4731.0,9.296850850747433
62868.18363215676,129528.0,75912.0,4705.0,9.30690150031296
62868.193682806326,129503.0,75870.0,4724.0,9.316952149878489
62868.2037334559,129561.0,75921.0,4713.0,9.327002799451293
62868.213784105465,129541.0,75897.0,4713.0,9.337053449016821
62868.22383475504,129547.0,75906.0,4714.0,9.347104098589625
62868.2338854046,129524.0,75888.0,4716.0,9.357154748155153
62868.24393605417,129566.0,75906.0,4731.0,9.367205397720682
62868.25398670374,129515.0,75891.0,4724.0,9.377256047293486
62868.26403735331,129546.0,75904.0,4713.0,9.387306696859014
62868.27408800288,129547.0,75902.0,4733.0,9.397357346431818
62868.284138652445,129550.0,75910.0,4737.0,9.407407995997346
62868.29418930201,129565.0,75919.0,4725.0,9.417458645562874
62868.30423995158,129542.0,75893.0,4713.0,9.427509295135678
62868.31429060115,129528.0,75871.0,4716.0,9.437559944701206
62868.32434125072,129542.0,75921.0,4721.0,9.44761059427401
62868.33439190029,129520.0,75891.0,4695.0,9.457661243839539
62868.34444254985,129551.0,75894.0,4709.0,9.467711893405067
62868.354493199426,129571.0,75904.0,4720.0,9.477762542977871
62868.36454384899,129535.0,75874.0,4700.0,9.487813192543399
62868.374594498564,129547.0,75873.0,4713.0,9.497863842116203
62868.38464514813,129554.0,75892.0,4709.0,9.507914491681731
62868.394695797695,129577.0,75921.0,4719.0,9.51796514124726
62868.40474644727,129549.0,75893.0,4699.0,9.528015790820064
62868.41479709683,129540.0,75907.0,4696.0,9.538066440385592
62868.4248477464,129557.0,75902.0,4709.0,9.54811708995112
62868.43489839597,129566.0,75878.0,4712.0,9.558167739523924
62868.44494904554,129562.0,75876.0,4699.0,9.568218389089452
62868.45499969511,129574.0,75915.0,4730.0,9.578269038662256
62868.465050344676,129566.0,75907.0,4711.0,9.588319688227784
62868.47510099424,129541.0,75892.0,4720.0,9.598370337793313
62868.485151643814,129586.0,75923.0,4737.0,9.608420987366117
62868.49520229338,129575.0,75900.0,4700.0,9.618471636931645
62868.50525294295,129578.0,75897.0,4709.0,9.628522286504449
62868.51530359252,129541.0,75884.0,4692.0,9.638572936069977
62868.52535424208,129541.0,75869.0,4690.0,9.648623585635505
62868.535404891656,129571.0,75888.0,4738.0,9.65867423520831
62868.54545554122,129565.0,75893.0,4709.0,9.668724884773837
62868.555506190794,129568.0,75892.0,4701.0,9.678775534346642
62868.56555684036,129579.0,75920.0,4742.0,9.68882618391217
62868.575607489925,129556.0,75896.0,4710.0,9.698876833477698
62868.5856581395,129577.0,75902.0,4719.0,9.708927483050502
62868.595708789064,129586.0,75921.0,4696.0,9.71897813261603
62868.60575943864,129547.0,75898.0,4689.0,9.729028782188834
62868.6158100882,129608.0,75915.0,4740.0,9.739079431754362
62868.62586073777,129580.0,75901.0,4722.0,9.74913008131989
62868.63591138734,129578.0,75900.0,4729.0,9.759180730892695
62868.645962036906,129557.0,75906.0,4716.0,9.769231380458223
62868.65601268647,129599.0,75917.0,4702.0,9.77928203002375
62868.666063336044,129594.0,75904.0,4747.0,9.789332679596555
62868.67611398561,129594.0,75944.0,4751.0,9.799383329162083
62868.68616463518,129557.0,75895.0,4712.0,9.809433978734887
62868.69621528475,129587.0,75914.0,4744.0,9.819484628300415
62868.706265934314,129568.0,75913.0,4703.0,9.829535277865943
62868.71631658389,129589.0,75896.0,4726.0,9.839585927438748
62868.72636723345,129590.0,75922.0,4694.0,9.849636577004276
62868.736417883025,129605.0,75920.0,4744.0,9.85968722657708
62868.74646853259,129574.0,75896.0,4707.0,9.869737876142608
62868.756519182156,129603.0,75906.0,4713.0,9.879788525708136
62868.76656983173,129570.0,75922.0,4715.0,9.88983917528094
62868.776620481294,129552.0,75881.0,4705.0,9.899889824846468
62868.78667113087,129557.0,75893.0,4731.0,9.909940474419273
62868.79672178043,129575.0,75903.0,4719.0,9.9199911239848
62868.80677243,129525.0,75898.0,4730.0,9.930041773550329
62868.81682307957,129513.0,75859.0,4700.0,9.940092423123133
62868.82687372914,129533.0,75922.0,4729.0,9.950143072688661
62868.83692437871,129522.0,75889.0,4709.0,9.960193722261465
62868.846975028275,129555.0,75882.0,4743.0,9.970244371826993
62868.85702567784,129505.0,75881.0,4692.0,9.980295021392521
62868.86707632741,129525.0,75863.0,4731.0,9.990345670965326
62868.87712697698,129518.0,75894.0,4708.0,10.000396320530854
62868.887177626544,129487.0,75877.0,4678.0,10.010446970096382
62868.89722827612,129495.0,75903.0,4722.0,10.020497619669186
62868.90727892568,129544.0,75906.0,4745.0,10.030548269234714
62868.917329575255,129508.0,75887.0,4705.0,10.040598918807518
62868.92738022482,129502.0,75862.0,4712.0,10.050649568373046
62868.937430874386,129540.0,75888.0,4710.0,10.060700217938574
62868.94748152396,129499.0,75890.0,4753.0,10.070750867511379
62868.957532173525,129509.0,75880.0,4712.0,10.080801517076907
62868.9675828231,129468.0,75891.0,4692.0,10.09085216664971
62868.97763347266,129503.0,75904.0,4725.0,10.100902816215239
62868.98768412223,129495.0,75856.0,4730.0,10.110953465780767
62868.9977347718,129497.0,75885.0,4709.0,10.121004115353571
62869.00778542137,129503.0,75892.0,4715.0,10.1310547649191
62869.01783607094,129475.0,75874.0,4710.0,10.141105414491904
62869.027886720505,129481.0,75863.0,4680.0,10.151156064057432
62869.03793737007,129499.0,75884.0,4704.0,10.16120671362296
62869.04798801964,129515.0,75909.0,4714.0,10.171257363195764
62869.05803866921,129492.0,75867.0,4701.0,10.181308012761292
62869.06808931878,129494.0,75842.0,4705.0,10.191358662334096
62869.07813996835,129491.0,75913.0,4680.0,10.201409311899624
62869.08819061791,129477.0,75879.0,4690.0,10.211459961465152
62869.098241267486,129490.0,75873.0,4689.0,10.221510611037957
62869.10829191705,129516.0,75888.0,4727.0,10.231561260603485
62869.11834256662,129507.0,75880.0,4708.0,10.241611910169013
62869.12839321619,129503.0,75864.0,4710.0,10.251662559741817
62869.138443865755,129491.0,75867.0,4702.0,10.261713209307345
62869.14849451533,129514.0,75906.0,4703.0,10.27176385888015
62869.15854516489,129498.0,75898.0,4702.0,10.281814508445677
62869.16859581446,129495.0,75874.0,4739.0,10.291865158011205
62869.17864646403,129501.0,75891.0,4700.0,10.30191580758401
62869.1886971136,129518.0,75886.0,4724.0,10.311966457149538
62869.19874776317,129481.0,75880.0,4691.0,10.322017106722342
62869.208798412736,129515.0,75878.0,4705.0,10.33206775628787
62869.2188490623,129520.0,75920.0,4724.0,10.342118405853398
62869.228899711874,129494.0,75847.0,4684.0,10.352169055426202
62869.23895036144,129498.0,75882.0,4709.0,10.36221970499173
62869.24900101101,129495.0,75891.0,4716.0,10.372270354564535
62869.25905166058,129534.0,75903.0,4703.0,10.382321004130063
62869.26910231014,129491.0,75872.0,4689.0,10.39237165369559
62869.279152959716,129522.0,75900.0,4708.0,10.402422303268395
62869.28920360928,129517.0,75882.0,4723.0,10.412472952833923
62869.299254258854,129498.0,75886.0,4745.0,10.422523602406727
62869.30930490842,129509.0,75892.0,4698.0,10.432574251972255
62869.319355557986,129512.0,75901.0,4741.0,10.442624901537783
62869.32940620756,129510.0,75891.0,4714.0,10.452675551110588
62869.339456857124,129494.0,75860.0,4655.0,10.462726200676116
62869.34950750669,129536.0,75904.0,4688.0,10.472776850241644
62869.35955815626,129516.0,75891.0,4731.0,10.482827499814448
62869.36960880583,129517.0,75891.0,4714.0,10.492878149379976
62869.3796594554,129493.0,75856.0,4692.0,10.50292879895278
62869.389710104966,129524.0,75905.0,4728.0,10.512979448518308
62869.39976075453,129532.0,75891.0,4700.0,10.523030098083836
62869.409811404104,129517.0,75883.0,4707.0,10.53308074765664
62869.41986205367,129543.0,75884.0,4689.0,10.543131397222169
62869.42991270324,129548.0,75903.0,4733.0,10.553182046794973
62869.43996335281,129503.0,75868.0,4706.0,10.563232696360501
62869.450014002374,129528.0,75896.0,4707.0,10.57328334592603
62869.46006465195,129523.0,75901.0,4723.0,10.583333995498833
62869.47011530151,129556.0,75862.0,4720.0,10.593384645064361
62869.480165951085,129502.0,75856.0,4726.0,10.603435294637165
62869.49021660065,129522.0,75886.0,4707.0,10.613485944202694
62869.500267250216,129523.0,75904.0,4750.0,10.623536593768222
62869.51031789979,129531.0,75892.0,4703.0,10.633587243341026
62869.520368549354,129516.0,75916.0,4721.0,10.643637892906554
62869.53041919893,129538.0,75898.0,4710.0,10.653688542479358
62869.54046984849,129557.0,75902.0,4710.0,10.663739192044886
62869.55052049806,129541.0,75886.0,4708.0,10.673789841610414
62869.56057114763,129567.0,75900.0,4709.0,10.683840491183219
62869.5706217972,129535.0,75898.0,4716.0,10.693891140748747
62869.58067244676,129532.0,75895.0,4727.0,10.703941790314275
62869.590723096335,129518.0,75895.0,4693.0,10.713992439887079
62869.6007737459,129582.0,75904.0,4737.0,10.724043089452607
62869.61082439547,129524.0,75864.0,4741.0,10.734093739025411
62869.62087504504,129532.0,75894.0,4694.0,10.74414438859094
62869.630925694604,129565.0,75913.0,4745.0,10.754195038156467
62869.64097634418,129531.0,75914.0,4721.0,10.764245687729272
62869.65102699374,129561.0,75886.0,4716.0,10.7742963372948
62869.661077643315,129531.0,75926.0,4705.0,10.784346986867604
62869.67112829288,129570.0,75920.0,4748.0,10.794397636433132
62869.68117894245,129544.0,75888.0,4720.0,10.80444828599866
62869.69122959202,129542.0,75897.0,4714.0,10.814498935571464
62869.701280241585,129559.0,75860.0,4721.0,10.824549585136992
62869.71133089116,129579.0,75916.0,4731.0,10.834600234709796
62869.72138154072,129544.0,75896.0,4707.0,10.844650884275325
62869.73143219029,129595.0,75895.0,4761.0,10.854701533840853
62869.74148283986,129571.0,75914.0,4733.0,10.864752183413657
62869.75153348943,129567.0,75879.0,4711.0,10.874802832979185
62869.761584139,129537.0,75872.0,4699.0,10.88485348255199
62869.771634788565,129576.0,75915.0,4735.0,10.894904132117517
62869.78168543813,129566.0,75907.0,4718.0,10.904954781683045
62869.7917360877,129555.0,75883.0,4724.0,10.91500543125585
62869.80178673727,129552.0,75885.0,4723.0,10.925056080821378
62869.811837386835,129530.0,75889.0,4716.0,10.935106730386906
62869.82188803641,129554.0,75909.0,4718.0,10.94515737995971
62869.83193868597,129530.0,75891.0,4703.0,10.955208029525238
62869.841989335546,129544.0,75899.0,4700.0,10.965258679098042
62869.85203998511,129494.0,75876.0,4711.0,10.97530932866357
62869.86209063468,129505.0,75888.0,4696.0,10.985359978229098
62869.87214128425,129506.0,75901.0,4717.0,10.995410627801903
62869.882191933815,129501.0,75876.0,4719.0,11.00546127736743
62869.89224258339,129477.0,75893.0,4695.0,11.015511926940235
62869.90229323295,129497.0,75888.0,4711.0,11.025562576505763
62869.91234388252,129509.0,75905.0,4678.0,11.035613226071291
62869.92239453209,129501.0,75874.0,4694.0,11.045663875644095
62869.93244518166,129499.0,75904.0,4707.0,11.055714525209623
62869.94249583123,129492.0,75887.0,4711.0,11.065765174782427
62869.952546480796,129516.0,75910.0,4722.0,11.075815824347956
62869.96259713036,129482.0,75885.0,4692.0,11.085866473913484
62869.972647779934,129492.0,75878.0,4685.0,11.095917123486288
62869.9826984295,129500.0,75882.0,4706.0,11.105967773051816
62869.99274907907,129490.0,75868.0,4717.0,11.11601842262462
62870.00279972864,129452.0,75868.0,4686.0,11.126069072190148
62870.0128503782,129510.0,75921.0,4718.0,11.136119721755676
62870.022901027776,129483.0,75870.0,4713.0,11.14617037132848
62870.03295167734,129467.0,75877.0,4675.0,11.156221020894009
62870.04300232691,129503.0,75883.0,4677.0,11.166271670459537
62870.05305297648,129498.0,75901.0,4725.0,11.176322320032341
62870.063103626046,129483.0,75874.0,4705.0,11.186372969597869
62870.07315427562,129454.0,75868.0,4694.0,11.196423619170673
62870.083204925184,129509.0,75912.0,4716.0,11.206474268736201
62870.09325557475,129521.0,75911.0,4736.0,11.21652491830173
62870.10330622432,129492.0,75898.0,4703.0,11.226575567874534
62870.11335687389,129472.0,75867.0,4705.0,11.236626217440062
62870.12340752346,129491.0,75893.0,4722.0,11.246676867012866
62870.133458173026,129457.0,75875.0,4697.0,11.256727516578394
62870.14350882259,129468.0,75882.0,4694.0,11.266778166143922
62870.153559472164,129472.0,75906.0,4707.0,11.276828815716726
62870.16361012173,129497.0,75897.0,4717.0,11.286879465282254
62870.1736607713,129474.0,75862.0,4699.0,11.296930114855058
62870.18371142087,129487.0,75887.0,4710.0,11.306980764420587
62870.193762070434,129493.0,75870.0,4714.0,11.317031413986115
62870.20381272001,129462.0,75875.0,4699.0,11.327082063558919
62870.21386336957,129477.0,75866.0,4678.0,11.337132713124447
62870.223914019145,129473.0,75883.0,4697.0,11.347183362697251
62870.23396466871,129504.0,75888.0,4707.0,11.35723401226278
62870.244015318276,129487.0,75879.0,4690.0,11.367284661828307
62870.25406596785,129486.0,75853.0,4712.0,11.377335311401112
62870.264116617414,129533.0,75909.0,4730.0,11.38738596096664
62870.27416726698,129487.0,75878.0,4696.0,11.397436610532168
62870.28421791655,129483.0,75902.0,4712.0,11.407487260104972
62870.29426856612,129486.0,75897.0,4710.0,11.4175379096705
62870.30431921569,129497.0,75876.0,4713.0,11.427588559243304
62870.31436986526,129503.0,75888.0,4710.0,11.437639208808832
62870.32442051482,129531.0,75884.0,4738.0,11.44768985837436
62870.334471164395,129538.0,75900.0,4722.0,11.457740507947165
62870.34452181396,129486.0,75914.0,4725.0,11.467791157512693
62870.35457246353,129513.0,75891.0,4711.0,11.477841807085497
62870.3646231131,129521.0,75884.0,4706.0,11.487892456651025
62870.374673762664,129534.0,75878.0,4715.0,11.497943106216553
62870.38472441224,129492.0,75865.0,4686.0,11.507993755789357
62870.3947750618,129513.0,75885.0,4720.0,11.518044405354885
62870.404825711375,129559.0,75884.0,4707.0,11.52809505492769
62870.41487636094,129500.0,75871.0,4716.0,11.538145704493218
62870.42492701051,129536.0,75903.0,4723.0,11.548196354058746
62870.43497766008,129529.0,75888.0,4711.0,11.55824700363155
62870.445028309645,129510.0,75859.0,4703.0,11.568297653197078
62870.45507895922,129498.0,75898.0,4692.0,11.578348302769882
62870.46512960878,129558.0,75913.0,4700.0,11.58839895233541
62870.47518025835,129525.0,75892.0,4720.0,11.598449601900938
62870.48523090792,129529.0,75869.0,4755.0,11.608500251473743
62870.49528155749,129555.0,75914.0,4727.0,11.61855090103927
62870.50533220705,129553.0,75923.0,4743.0,11.628601550604799
62870.515382856625,129534.0,75896.0,4720.0,11.638652200177603
62870.52543350619,129565.0,75916.0,4707.0,11.648702849743131
62870.535484155764,129571.0,75914.0,4709.0,11.658753499315935
62870.54553480533,129502.0,75873.0,4697.0,11.668804148881463
62870.555585454895,129533.0,75902.0,4724.0,11.678854798446991
62870.56563610447,129502.0,75894.0,4700.0,11.688905448019796
62870.57568675403,129515.0,75912.0,4728.0,11.698956097585324
62870.585737403606,129540.0,75894.0,4715.0,11.709006747158128
62870.59578805317,129545.0,75894.0,4717.0,11.719057396723656
62870.60583870274,129528.0,75891.0,4712.0,11.729108046289184
62870.61588935231,129579.0,75909.0,4738.0,11.739158695861988
62870.625940001875,129554.0,75919.0,4711.0,11.749209345427516
62870.63599065145,129554.0,75907.0,4699.0,11.75925999500032
62870.64604130101,129520.0,75913.0,4709.0,11.769310644565849
62870.65609195058,129530.0,75884.0,4708.0,11.779361294131377
62870.66614260015,129543.0,75893.0,4718.0,11.78941194370418
62870.67619324972,129553.0,75909.0,4742.0,11.799462593269709
62870.68624389929,129543.0,75906.0,4716.0,11.809513242842513
62870.696294548856,129526.0,75881.0,4715.0,11.819563892408041
62870.70634519842,129518.0,75893.0,4711.0,11.82961454197357
62870.716395847994,129586.0,75899.0,4731.0,11.839665191546374
62870.72644649756,129564.0,75921.0,4716.0,11.849715841111902
62870.736497147125,129555.0,75919.0,4719.0,11.85976649067743
62870.7465477967,129567.0,75920.0,4736.0,11.869817140250234
62870.75659844626,129546.0,75905.0,4730.0,11.879867789815762
62870.766649095836,129554.0,75911.0,4722.0,11.889918439388566
62870.7766997454,129534.0,75901.0,4713.0,11.899969088954094
62870.78675039497,129590.0,75911.0,4742.0,11.910019738519622
62870.79680104454,129539.0,75883.0,4721.0,11.920070388092427
62870.806851694106,129563.0,75906.0,4714.0,11.930121037657955
62870.81690234368,129549.0,75879.0,4707.0,11.940171687230759
62870.826952993244,129516.0,75872.0,4709.0,11.950222336796287
62870.83700364281,129511.0,75893.0,4695.0,11.960272986361815
62870.84705429238,129517.0,75897.0,4718.0,11.97032363593462
62870.85710494195,129504.0,75903.0,4701.0,11.980374285500147
62870.86715559152,129503.0,75856.0,4709.0,11.990424935072951
62870.877206241086,129508.0,75866.0,4712.0,12.00047558463848
62870.88725689065,129504.0,75901.0,4712.0,12.010526234204008
62870.897307540225,129532.0,75933.0,4731.0,12.020576883776812
62870.90735818979,129513.0,75894.0,4702.0,12.03062753334234
62870.91740883936,129477.0,75865.0,4713.0,12.040678182915144
62870.92745948893,129500.0,75885.0,4704.0,12.050728832480672
62870.937510138494,129456.0,75848.0,4662.0,12.0607794820462
62870.94756078807,129515.0,75909.0,4714.0,12.070830131619005
62870.95761143763,129514.0,75917.0,4717.0,12.080880781184533
62870.9676620872,129498.0,75893.0,4703.0,12.09093143075006
62870.97771273677,129498.0,75883.0,4726.0,12.100982080322865
62870.987763386336,129519.0,75898.0,4725.0,12.111032729888393
62870.99781403591,129474.0,75906.0,4709.0,12.121083379461197
62871.007864685474,129507.0,75889.0,4711.0,12.131134029026725
62871.01791533504,129474.0,75891.0,4696.0,12.141184678592253
62871.02796598461,129486.0,75891.0,4704.0,12.151235328165058
62871.03801663418,129493.0,75885.0,4675.0,12.161285977730586
62871.04806728375,129495.0,75887.0,4711.0,12.17133662730339
62871.05811793332,129525.0,75881.0,4713.0,12.181387276868918
62871.06816858288,129501.0,75939.0,4704.0,12.191437926434446
62871.078219232455,129481.0,75870.0,4682.0,12.20148857600725
62871.08826988202,129489.0,75887.0,4714.0,12.211539225572778
62871.09832053159,129521.0,75898.0,4691.0,12.221589875145582
62871.10837118116,129519.0,75906.0,4730.0,12.23164052471111
62871.118421830724,129488.0,75879.0,4722.0,12.241691174276639
62871.1284724803,129499.0,75896.0,4712.0,12.251741823849443
62871.13852312986,129519.0,75883.0,4710.0,12.261792473414971
62871.148573779436,129483.0,75874.0,4687.0,12.271843122987775
62871.158624429,129522.0,75900.0,4696.0,12.281893772553303
62871.16867507857,129488.0,75904.0,4719.0,12.291944422118831
62871.17872572814,129512.0,75902.0,4707.0,12.301995071691636
62871.188776377705,129494.0,75900.0,4726.0,12.312045721257164
62871.19882702727,129501.0,75892.0,4681.0,12.322096370822692
62871.20887767684,129538.0,75918.0,4743.0,12.332147020395496
62871.21892832641,129495.0,75912.0,4703.0,12.342197669961024
62871.22897897598,129475.0,75869.0,4700.0,12.352248319533828
62871.23902962555,129523.0,75901.0,4739.0,12.362298969099356
62871.24908027511,129506.0,75899.0,4712.0,12.372349618664884
62871.259130924685,129512.0,75903.0,4710.0,12.382400268237689
62871.26918157425,129495.0,75877.0,4722.0,12.392450917803217
62871.279232223824,129507.0,75896.0,4697.0,12.40250156737602
62871.28928287339,129521.0,75929.0,4746.0,12.412552216941549
62871.299333522955,129520.0,75905.0,4715.0,12.422602866507077
62871.30938417253,129514.0,75883.0,4684.0,12.432653516079881
62871.31943482209,129487.0,75880.0,4699.0,12.44270416564541
62871.329485471666,129528.0,75897.0,4737.0,12.452754815218213
62871.33953612123,129519.0,75900.0,4711.0,12.462805464783742
62871.3495867708,129509.0,75886.0,4686.0,12.47285611434927
62871.35963742037,129524.0,75916.0,4757.0,12.482906763922074
62871.369688069935,129525.0,75911.0,4730.0,12.492957413487602
62871.37973871951,129525.0,75906.0,4722.0,12.503008063060406
62871.389789369074,129550.0,75909.0,4705.0,12.513058712625934
62871.39984001864,129489.0,75904.0,4696.0,12.523109362191462
62871.40989066821,129512.0,75897.0,4704.0,12.533160011764267
62871.41994131778,129522.0,75903.0,4713.0,12.543210661329795
62871.42999196734,129548.0,75908.0,4724.0,12.553261310895323
62871.440042616916,129537.0,75884.0,4703.0,12.563311960468127
62871.45009326648,129521.0,75924.0,4705.0,12.573362610033655
62871.460143916054,129544.0,75901.0,4718.0,12.58341325960646
62871.47019456562,129525.0,75918.0,4743.0,12.593463909171987
62871.480245215185,129523.0,75887.0,4705.0,12.603514558737515
62871.49029586476,129522.0,75883.0,4720.0,12.61356520831032
62871.50034651432,129538.0,75908.0,4716.0,12.623615857875848
62871.5103971639,129538.0,75889.0,4721.0,12.633666507448652
62871.52044781346,129533.0,75893.0,4697.0,12.64371715701418
62871.53049846303,129565.0,75918.0,4746.0,12.653767806579708
62871.5405491126,129547.0,75911.0,4720.0,12.663818456152512
62871.550599762166,129501.0,75899.0,4711.0,12.67386910571804
62871.56065041174,129527.0,75918.0,4723.0,12.683919755290844
62871.570701061304,129551.0,75898.0,4722.0,12.693970404856373
62871.58075171087,129546.0,75899.0,4717.0,12.7040210544219
62871.59080236044,129535.0,75902.0,4707.0,12.714071703994705
62871.60085301001,129532.0,75903.0,4740.0,12.724122353560233
62871.61090365958,129517.0,75886.0,4704.0,12.734173003133037
62871.620954309146,129545.0,75891.0,4688.0,12.744223652698565
62871.63100495871,129530.0,75908.0,4727.0,12.754274302264093
62871.641055608285,129582.0,75923.0,4744.0,12.764324951836898
62871.65110625785,129578.0,75939.0,4726.0,12.774375601402426
62871.661156907416,129554.0,75907.0,4724.0,12.784426250967954
62871.67120755699,129552.0,75905.0,4733.0,12.794476900540758
62871.681258206554,129566.0,75922.0,4748.0,12.804527550106286
62871.69130885613,129585.0,75899.0,4735.0,12.81457819967909
62871.70135950569,129584.0,75903.0,4750.0,12.824628849244618
62871.71141015526,129554.0,75921.0,4725.0,12.834679498810146
62871.72146080483,129537.0,75889.0,4731.0,12.84473014838295
62871.731511454396,129564.0,75880.0,4729.0,12.854780797948479
62871.74156210397,129584.0,75941.0,4757.0,12.864831447521283
62871.751612753535,129525.0,75898.0,4713.0,12.874882097086811
62871.7616634031,129507.0,75885.0,4701.0,12.88493274665234
62871.77171405267,129492.0,75885.0,4697.0,12.894983396225143
62871.78176470224,129519.0,75864.0,4696.0,12.905034045790671
62871.79181535181,129506.0,75895.0,4716.0,12.915084695363475
62871.80186600138,129504.0,75874.0,4705.0,12.925135344929004
62871.81191665094,129521.0,75875.0,4733.0,12.935185994494532
62871.821967300515,129504.0,75871.0,4685.0,12.945236644067336
62871.83201795008,129502.0,75902.0,4708.0,12.955287293632864
62871.84206859965,129505.0,75885.0,4723.0,12.965337943205668
62871.85211924922,129509.0,75890.0,4716.0,12.975388592771196
62871.862169898784,129463.0,75880.0,4689.0,12.985439242336724
62871.87222054836,129507.0,75921.0,4702.0,12.995489891909529
62871.88227119792,129513.0,75915.0,4669.0,13.005540541475057
62871.89232184749,129470.0,75914.0,4715.0,13.015591191040585
62871.90237249706,129490.0,75889.0,4714.0,13.025641840613389
62871.91242314663,129502.0,75897.0,4710.0,13.035692490178917
62871.9224737962,129497.0,75883.0,4716.0,13.045743139751721
62871.932524445765,129487.0,75891.0,4683.0,13.05579378931725
62871.94257509533,129519.0,75923.0,4716.0,13.065844438882777
62871.9526257449,129491.0,75903.0,4710.0,13.075895088455582
62871.96267639447,129503.0,75907.0,4704.0,13.08594573802111
62871.97272704404,129529.0,75894.0,4747.0,13.095996387593914
62871.98277769361,129495.0,75900.0,4683.0,13.106047037159442
62871.99282834317,129506.0,75894.0,4711.0,13.11609768672497
62872.002878992746,129512.0,75928.0,4734.0,13.126148336297774
62872.01292964231,129512.0,75924.0,4695.0,13.136198985863302
62872.022980291884,129485.0,75879.0,4715.0,13.146249635436106
62872.03303094145,129507.0,75889.0,4715.0,13.156300285001635
62872.043081591015,129492.0,75915.0,4694.0,13.166350934567163
62872.05313224059,129477.0,75901.0,4730.0,13.176401584139967
62872.06318289015,129472.0,75886.0,4700.0,13.186452233705495
62872.073233539726,129502.0,75894.0,4712.0,13.1965028832783
62872.08328418929,129528.0,75924.0,4689.0,13.206553532843827
62872.09333483886,129519.0,75918.0,4732.0,13.216604182409355
62872.10338548843,129489.0,75899.0,4698.0,13.22665483198216
62872.113436137995,129500.0,75886.0,4710.0,13.236705481547688
62872.12348678756,129475.0,75918.0,4702.0,13.246756131113216
62872.133537437134,129487.0,75883.0,4674.0,13.25680678068602
62872.1435880867,129506.0,75896.0,4703.0,13.266857430251548
62872.15363873627,129515.0,75893.0,4736.0,13.276908079824352
62872.16368938584,129520.0,75908.0,4707.0,13.28695872938988
62872.1737400354,129491.0,75890.0,4701.0,13.297009378955408
62872.183790684976,129517.0,75922.0,4722.0,13.307060028528213
62872.19384133454,129500.0,75906.0,4701.0,13.31711067809374
62872.203891984114,129517.0,75923.0,4715.0,13.327161327666545
62872.21394263368,129508.0,75894.0,4703.0,13.337211977232073
62872.223993283245,129542.0,75935.0,4729.0,13.347262626797601
62872.23404393282,129504.0,75888.0,4719.0,13.357313276370405
62872.244094582384,129519.0,75898.0,4716.0,13.367363925935933
62872.25414523196,129514.0,75907.0,4691.0,13.377414575508737
62872.26419588152,129551.0,75898.0,4730.0,13.387465225074266
62872.27424653109,129493.0,75887.0,4703.0,13.397515874639794
62872.28429718066,129526.0,75903.0,4713.0,13.407566524212598
62872.294347830226,129541.0,75906.0,4739.0,13.417617173778126
62872.3043984798,129527.0,75889.0,4694.0,13.42766782335093
62872.314449129364,129520.0,75905.0,4702.0,13.437718472916458
62872.32449977893,129532.0,75913.0,4711.0,13.447769122481986
62872.3345504285,129560.0,75892.0,4744.0,13.45781977205479
62872.34460107807,129526.0,75887.0,4710.0,13.467870421620319
62872.35465172763,129566.0,75922.0,4709.0,13.477921071185847
62872.36470237721,129548.0,75915.0,4707.0,13.487971720758651
62872.37475302677,129534.0,75905.0,4733.0,13.498022370324179
62872.384803676345,129516.0,75914.0,4707.0,13.508073019896983
62872.39485432591,129561.0,75934.0,4734.0,13.518123669462511
62872.404904975476,129550.0,75886.0,4753.0,13.52817431902804
62872.41495562505,129533.0,75882.0,4718.0,13.538224968600844
62872.425006274614,129544.0,75903.0,4708.0,13.548275618166372
62872.43505692419,129571.0,75932.0,4710.0,13.558326267739176
62872.44510757375,129551.0,75917.0,4713.0,13.568376917304704
62872.45515822332,129545.0,75903.0,4748.0,13.578427566870232
62872.46520887289,129559.0,75949.0,4719.0,13.588478216443036
62872.475259522456,129571.0,75893.0,4732.0,13.598528866008564
62872.48531017203,129567.0,75917.0,4716.0,13.608579515581368
62872.495360821595,129539.0,75891.0,4711.0,13.618630165146897
62872.50541147116,129530.0,75906.0,4707.0,13.628680814712425
62872.51546212073,129545.0,75901.0,4697.0,13.638731464285229
62872.5255127703,129572.0,75921.0,4727.0,13.648782113850757
62872.53556341987,129574.0,75921.0,4729.0,13.658832763423561
62872.54561406944,129569.0,75907.0,4727.0,13.66888341298909
62872.555664719,129540.0,75894.0,4693.0,13.678934062554617
62872.565715368575,129577.0,75915.0,4721.0,13.688984712127422
62872.57576601814,129585.0,75925.0,4723.0,13.69903536169295
62872.585816667706,129562.0,75893.0,4705.0,13.709086011258478
62872.59586731728,129574.0,75935.0,4721.0,13.719136660831282
62872.605917966845,129572.0,75920.0,4718.0,13.72918731039681
62872.61596861642,129561.0,75899.0,4707.0,13.739237959969614
62872.62601926598,129551.0,75908.0,4700.0,13.749288609535142
62872.63606991555,129562.0,75917.0,4688.0,13.75933925910067
62872.64612056512,129557.0,75912.0,4710.0,13.769389908673475
62872.65617121469,129526.0,75899.0,4718.0,13.779440558239003
62872.66622186426,129537.0,75903.0,4697.0,13.789491207811807
62872.676272513825,129509.0,75939.0,4741.0,13.799541857377335
62872.68632316339,129493.0,75896.0,4691.0,13.809592506942863
62872.69637381296,129502.0,75902.0,4715.0,13.819643156515667
62872.70642446253,129532.0,75905.0,4707.0,13.829693806081195
62872.7164751121,129498.0,75914.0,4747.0,13.839744455654
62872.72652576167,129472.0,75878.0,4712.0,13.849795105219528
62872.73657641123,129498.0,75904.0,4714.0,13.859845754785056
62872.746627060806,129501.0,75925.0,4729.0,13.86989640435786
62872.75667771037,129528.0,75914.0,4739.0,13.879947053923388
62872.766728359944,129510.0,75891.0,4700.0,13.889997703496192
62872.77677900951,129489.0,75907.0,4706.0,13.90004835306172
62872.786829659075,129492.0,75921.0,4741.0,13.910099002627248
62872.79688030865,129476.0,75901.0,4696.0,13.920149652200053
62872.80693095821,129467.0,75907.0,4706.0,13.93020030176558
62872.81698160778,129492.0,75892.0,4706.0,13.940250951331109
62872.82703225735,129509.0,75889.0,4736.0,13.950301600903913
62872.83708290692,129476.0,75875.0,4714.0,13.960352250469441
62872.84713355649,129514.0,75897.0,4711.0,13.970402900042245
62872.857184206056,129502.0,75903.0,4707.0,13.980453549607773
62872.86723485562,129459.0,75906.0,4706.0,13.990504199173301
62872.877285505194,129475.0,75888.0,4696.0,14.000554848746106
62872.88733615476,129468.0,75905.0,4732.0,14.010605498311634
62872.89738680433,129496.0,75899.0,4700.0,14.020656147884438
62872.9074374539,129464.0,75875.0,4707.0,14.030706797449966
62872.91748810346,129513.0,75911.0,4722.0,14.040757447015494
62872.927538753036,129524.0,75923.0,4728.0,14.050808096588298
62872.9375894026,129476.0,75888.0,4696.0,14.060858746153826
62872.947640052174,129452.0,75894.0,4698.0,14.07090939572663
62872.95769070174,129499.0,75923.0,4712.0,14.080960045292159
62872.967741351305,129478.0,75878.0,4718.0,14.091010694857687
62872.97779200088,129509.0,75906.0,4710.0,14.10106134443049
62872.987842650444,129497.0,75904.0,4711.0,14.111111993996019
62872.99789330002,129510.0,75902.0,4735.0,14.121162643568823
62873.00794394958,129517.0,75890.0,4719.0,14.131213293134351
62873.01799459915,129500.0,75900.0,4701.0,14.14126394269988
62873.02804524872,129502.0,75926.0,4714.0,14.151314592272684
62873.038095898286,129535.0,75918.0,4719.0,14.161365241838212
62873.04814654785,129500.0,75887.0,4678.0,14.17141589140374
62873.058197197424,129501.0,75912.0,4722.0,14.181466540976544
62873.06824784699,129554.0,75890.0,4723.0,14.191517190542072
62873.07829849656,129499.0,75888.0,4724.0,14.201567840114876
62873.08834914613,129540.0,75908.0,4709.0,14.211618489680404
62873.098399795694,129515.0,75892.0,4706.0,14.221669139245932
62873.10845044527,129531.0,75891.0,4716.0,14.231719788818737
62873.11850109483,129516.0,75876.0,4705.0,14.241770438384265
62873.128551744405,129513.0,75903.0,4670.0,14.251821087957069
62873.13860239397,129521.0,75905.0,4725.0,14.261871737522597
62873.148653043536,129527.0,75898.0,4737.0,14.271922387088125
62873.15870369311,129507.0,75890.0,4697.0,14.28197303666093
62873.168754342674,129535.0,75911.0,4728.0,14.292023686226457
62873.17880499225,129497.0,75905.0,4701.0,14.302074335799261
62873.18885564181,129538.0,75905.0,4714.0,14.31212498536479
62873.19890629138,129559.0,75905.0,4705.0,14.322175634930318
62873.20895694095,129525.0,75907.0,4735.0,14.332226284503122
62873.21900759052,129527.0,75901.0,4707.0,14.34227693406865
62873.22905824009,129528.0,75908.0,4714.0,14.352327583641454
62873.239108889655,129522.0,75936.0,4712.0,14.362378233206982
62873.24915953922,129562.0,75915.0,4735.0,14.37242888277251
62873.25921018879,129542.0,75899.0,4702.0,14.382479532345315
62873.26926083836,129548.0,75910.0,4719.0,14.392530181910843
62873.279311487924,129547.0,75928.0,4731.0,14.40258083147637
62873.2893621375,129514.0,75891.0,4705.0,14.412631481049175
62873.29941278706,129556.0,75932.0,4738.0,14.422682130614703
62873.309463436635,129544.0,75907.0,4727.0,14.432732780187507
62873.3195140862,129558.0,75900.0,4690.0,14.442783429753035
62873.329564735766,129537.0,75892.0,4714.0,14.452834079318563
62873.33961538534,129572.0,75918.0,4727.0,14.462884728891368
62873.349666034905,129554.0,75908.0,4719.0,14.472935378456896
62873.35971668448,129543.0,75926.0,4716.0,14.4829860280297
62873.36976733404,129531.0,75944.0,4709.0,14.493036677595228
62873.37981798361,129570.0,75909.0,4738.0,14.503087327160756
62873.38986863318,129557.0,75916.0,4729.0,14.51313797673356
62873.39991928275,129558.0,75923.0,4706.0,14.523188626299088
62873.40996993232,129579.0,75926.0,4731.0,14.533239275871892
62873.420020581885,129519.0,75908.0,4733.0,14.54328992543742
62873.43007123145,129566.0,75919.0,4715.0,14.553340575002949
62873.44012188102,129545.0,75911.0,4719.0,14.563391224575753
62873.45017253059,129569.0,75946.0,4742.0,14.573441874141281
62873.46022318016,129576.0,75898.0,4738.0,14.583492523714085
62873.47027382973,129538.0,75903.0,4698.0,14.593543173279613
62873.48032447929,129540.0,75901.0,4713.0,14.603593822845141
62873.490375128866,129583.0,75938.0,4749.0,14.613644472417946
62873.50042577843,129551.0,75929.0,4722.0,14.623695121983474
62873.510476428,129569.0,75922.0,4719.0,14.633745771549002
62873.52052707757,129607.0,75893.0,4738.0,14.643796421121806
62873.530577727135,129562.0,75895.0,4717.0,14.653847070687334
62873.54062837671,129557.0,75896.0,4717.0,14.663897720260138
62873.55067902627,129567.0,75910.0,4719.0,14.673948369825666
62873.56072967584,129586.0,75924.0,4722.0,14.683999019391194
62873.57078032541,129545.0,75886.0,4713.0,14.694049668963999
62873.58083097498,129554.0,75909.0,4740.0,14.704100318529527
62873.59088162455,129535.0,75904.0,4716.0,14.71415096810233
62873.600932274116,129476.0,75867.0,4684.0,14.724201617667859
62873.61098292368,129492.0,75877.0,4706.0,14.734252267233387
62873.621033573254,129496.0,75896.0,4721.0,14.744302916806191
62873.63108422282,129506.0,75901.0,4731.0,14.75435356637172
62873.64113487239,129484.0,75893.0,4721.0,14.764404215944523
62873.65118552196,129500.0,75932.0,4722.0,14.774454865510052
62873.66123617152,129514.0,75908.0,4745.0,14.78450551507558
62873.671286821096,129498.0,75895.0,4686.0,14.794556164648384
62873.68133747066,129508.0,75895.0,4707.0,14.804606814213912
62873.691388120234,129512.0,75898.0,4689.0,14.814657463786716
62873.7014387698,129496.0,75895.0,4683.0,14.824708113352244
62873.711489419366,129537.0,75901.0,4737.0,14.834758762917772
62873.72154006894,129510.0,75922.0,4703.0,14.844809412490577
62873.731590718504,129508.0,75955.0,4723.0,14.854860062056105
62873.74164136807,129495.0,75901.0,4691.0,14.864910711621633
62873.75169201764,129499.0,75896.0,4712.0,14.874961361194437
62873.76174266721,129494.0,75902.0,4708.0,14.885012010759965
62873.77179331678,129521.0,75910.0,4717.0,14.89506266033277
62873.781843966346,129479.0,75876.0,4687.0,14.905113309898297
62873.79189461591,129482.0,75895.0,4699.0,14.915163959463825
62873.801945265484,129503.0,75896.0,4710.0,14.92521460903663
62873.81199591505,129477.0,75890.0,4698.0,14.935265258602158
62873.82204656462,129523.0,75902.0,4687.0,14.945315908174962
62873.83209721419,129521.0,75920.0,4743.0,14.95536655774049
62873.842147863754,129507.0,75908.0,4705.0,14.965417207306018
62873.85219851333,129481.0,75947.0,4729.0,14.975467856878822
62873.86224916289,129492.0,75893.0,4695.0,14.98551850644435
62873.872299812465,129537.0,75925.0,4741.0,14.995569156017154
62873.88235046203,129498.0,75905.0,4705.0,15.005619805582683
62873.892401111596,129485.0,75887.0,4701.0,15.01567045514821
62873.90245176117,129499.0,75912.0,4734.0,15.025721104721015
62873.912502410734,129493.0,75888.0,4720.0,15.035771754286543
62873.92255306031,129512.0,75914.0,4716.0,15.045822403859347
62873.93260370987,129485.0,75906.0,4701.0,15.055873053424875
62873.94265435944,129536.0,75930.0,4733.0,15.065923702990403
62873.95270500901,129507.0,75875.0,4711.0,15.075974352563208
62873.96275565858,129521.0,75917.0,4704.0,15.086025002128736
62873.97280630814,129491.0,75868.0,4707.0,15.096075651694264
62873.982856957715,129496.0,75893.0,4704.0,15.106126301267068
62873.99290760728,129518.0,75893.0,4701.0,15.116176950832596
62874.00295825685,129544.0,75924.0,4735.0,15.1262276004054
62874.01300890642,129514.0,75912.0,4726.0,15.136278249970928
62874.023059555984,129504.0,75884.0,4710.0,15.146328899536456
62874.03311020556,129524.0,75870.0,4703.0,15.15637954910926
62874.04316085512,129523.0,75913.0,4712.0,15.166430198674789
62874.053211504695,129570.0,75929.0,4727.0,15.176480848247593
62874.06326215426,129557.0,75923.0,4741.0,15.186531497813121
62874.07331280383,129530.0,75920.0,4719.0,15.196582147378649
62874.0833634534,129521.0,75917.0,4712.0,15.206632796951453
62874.093414102965,129548.0,75939.0,4731.0,15.216683446516981
62874.10346475254,129517.0,75889.0,4702.0,15.226734096089785
62874.1135154021,129557.0,75935.0,4738.0,15.236784745655314
62874.12356605167,129525.0,75915.0,4688.0,15.246835395220842
62874.13361670124,129490.0,75909.0,4728.0,15.256886044793646
62874.14366735081,129516.0,75915.0,4706.0,15.266936694359174
62874.15371800038,129553.0,75910.0,4734.0,15.276987343931978
62874.163768649945,129525.0,75916.0,4703.0,15.287037993497506
62874.17381929951,129539.0,75902.0,4721.0,15.297088643063034
62874.18386994908,129577.0,75937.0,4721.0,15.307139292635839
62874.19392059865,129540.0,75900.0,4736.0,15.317189942201367
62874.203971248215,129541.0,75909.0,4733.0,15.327240591766895
62874.21402189779,129543.0,75931.0,4706.0,15.337291241339699
62874.22407254735,129537.0,75887.0,4708.0,15.347341890905227
62874.234123196926,129539.0,75913.0,4707.0,15.357392540478031
62874.24417384649,129565.0,75893.0,4726.0,15.36744319004356
62874.25422449606,129550.0,75908.0,4718.0,15.377493839609087
62874.26427514563,129523.0,75921.0,4708.0,15.387544489181892
62874.274325795195,129515.0,75881.0,4696.0,15.39759513874742
62874.28437644477,129540.0,75892.0,4693.0,15.407645788320224
62874.29442709433,129544.0,75898.0,4717.0,15.417696437885752
62874.3044777439,129564.0,75908.0,4728.0,15.42774708745128
62874.31452839347,129572.0,75946.0,4696.0,15.437797737024084
62874.32457904304,129552.0,75910.0,4731.0,15.447848386589612
62874.33462969261,129550.0,75922.0,4728.0,15.457899036162416
62874.344680342176,129539.0,75927.0,4707.0,15.467949685727945
62874.35473099174,129569.0,75895.0,4714.0,15.478000335293473
62874.364781641314,129570.0,75912.0,4696.0,15.488050984866277
62874.37483229088,129566.0,75923.0,4712.0,15.498101634431805
62874.38488294045,129553.0,75894.0,4720.0,15.508152284004609
62874.39493359002,129583.0,75939.0,4731.0,15.518202933570137
62874.40498423958,129563.0,75918.0,4712.0,15.528253583135665
62874.415034889156,129570.0,75914.0,4721.0,15.53830423270847
62874.42508553872,129548.0,75920.0,4715.0,15.548354882273998
62874.43513618829,129546.0,75932.0,4710.0,15.558405531839526
62874.44518683786,129538.0,75934.0,4742.0,15.56845618141233
62874.455237487426,129543.0,75922.0,4717.0,15.578506830977858
62874.465288137,129516.0,75891.0,4697.0,15.588557480550662
62874.475338786564,129545.0,75928.0,4733.0,15.59860813011619
62874.48538943613,129504.0,75879.0,4733.0,15.608658779681718
62874.4954400857,129501.0,75908.0,4713.0,15.618709429254523
62874.50549073527,129496.0,75906.0,4704.0,15.62876007882005
62874.51554138484,129487.0,75888.0,4698.0,15.638810728392855
62874.525592034406,129516.0,75911.0,4712.0,15.648861377958383
62874.53564268397,129472.0,75888.0,4702.0,15.658912027523911
62874.545693333544,129495.0,75910.0,4721.0,15.668962677096715
62874.55574398311,129487.0,75905.0,4721.0,15.679013326662243
62874.56579463268,129489.0,75883.0,4715.0,15.689063976235047
62874.57584528225,129498.0,75904.0,4704.0,15.699114625800576
62874.585895931814,129499.0,75879.0,4687.0,15.709165275366104
62874.59594658139,129474.0,75882.0,4698.0,15.719215924938908
62874.60599723095,129476.0,75895.0,4719.0,15.729266574504436
62874.616047880525,129489.0,75901.0,4706.0,15.73931722407724
62874.62609853009,129497.0,75889.0,4724.0,15.749367873642768
62874.636149179656,129506.0,75903.0,4732.0,15.759418523208296
62874.64619982923,129501.0,75886.0,4709.0,15.7694691727811
62874.656250478794,129492.0,75902.0,4726.0,15.779519822346629
62874.66630112836,129484.0,75924.0,4673.0,15.789570471912157
62874.67635177793,129489.0,75894.0,4690.0,15.799621121484961
62874.6864024275,129500.0,75890.0,4733.0,15.809671771050489
62874.69645307707,129486.0,75897.0,4717.0,15.819722420623293
62874.70650372664,129501.0,75905.0,4705.0,15.829773070188821
62874.7165543762,129478.0,75887.0,4715.0,15.83982371975435
62874.726605025775,129530.0,75932.0,4736.0,15.849874369327154
62874.73665567534,129504.0,75906.0,4733.0,15.859925018892682
62874.74670632491,129498.0,75906.0,4717.0,15.869975668465486
62874.75675697448,129484.0,75906.0,4707.0,15.880026318031014
62874.766807624044,129493.0,75900.0,4718.0,15.890076967596542
62874.77685827362,129473.0,75925.0,4721.0,15.900127617169346
62874.78690892318,129500.0,75907.0,4711.0,15.910178266734874
62874.796959572755,129518.0,75884.0,4703.0,15.920228916307678
62874.80701022232,129515.0,75878.0,4729.0,15.930279565873207
62874.81706087189,129489.0,75903.0,4710.0,15.940330215438735
62874.82711152146,129502.0,75907.0,4709.0,15.950380865011539
62874.837162171025,129494.0,75896.0,4708.0,15.960431514577067
62874.8472128206,129499.0,75903.0,4692.0,15.970482164149871
62874.85726347016,129518.0,75942.0,4712.0,15.9805328137154
62874.86731411973,129496.0,75907.0,4714.0,15.990583463280927
62874.8773647693,129505.0,75881.0,4689.0,16.00063411285373
62874.88741541887,129500.0,75889.0,4688.0,16.01068476241926
62874.89746606843,129535.0,75919.0,4718.0,16.020735411984788
62874.907516718005,129511.0,75906.0,4704.0,16.030786061557592
62874.91756736757,129513.0,75930.0,4732.0,16.04083671112312
62874.927618017144,129516.0,75919.0,4669.0,16.050887360695924
62874.93766866671,129497.0,75887.0,4707.0,16.060938010261452
62874.947719316275,129514.0,75905.0,4714.0,16.07098865982698
62874.95776996585,129481.0,75889.0,4695.0,16.081039309399785
62874.96782061541,129534.0,75932.0,4698.0,16.091089958965313
62874.977871264986,129494.0,75941.0,4720.0,16.101140608538117
62874.98792191455,129518.0,75915.0,4715.0,16.111191258103645
62874.99797256412,129519.0,75909.0,4701.0,16.121241907669173
62875.00802321369,129547.0,75903.0,4731.0,16.131292557241977
62875.018073863255,129554.0,75924.0,4733.0,16.141343206807505
62875.02812451283,129517.0,75918.0,4715.0,16.15139385638031
62875.03817516239,129546.0,75944.0,4704.0,16.161444505945838
62875.04822581196,129531.0,75928.0,4701.0,16.171495155511366
62875.05827646153,129504.0,75909.0,4709.0,16.18154580508417
62875.0683271111,129520.0,75929.0,4733.0,16.191596454649698
62875.07837776067,129527.0,75930.0,4718.0,16.201647104222502
62875.088428410236,129502.0,75913.0,4697.0,16.21169775378803
62875.0984790598,129527.0,75938.0,4701.0,16.22174840335356
62875.108529709374,129530.0,75921.0,4745.0,16.231799052926362
62875.11858035894,129522.0,75936.0,4731.0,16.24184970249189
62875.128631008505,129515.0,75898.0,4711.0,16.25190035205742
62875.13868165808,129520.0,75909.0,4713.0,16.261951001630223
62875.14873230764,129525.0,75919.0,4703.0,16.27200165119575
62875.158782957216,129544.0,75920.0,4720.0,16.282052300768555
62875.16883360678,129523.0,75921.0,4714.0,16.292102950334083
62875.17888425635,129537.0,75924.0,4730.0,16.30215359989961
62875.18893490592,129508.0,75893.0,4709.0,16.312204249472416
62875.198985555486,129552.0,75928.0,4721.0,16.322254899037944
62875.20903620506,129528.0,75935.0,4721.0,16.332305548610748
62875.219086854624,129563.0,75930.0,4725.0,16.342356198176276
62875.22913750419,129543.0,75919.0,4699.0,16.352406847741804
62875.23918815376,129551.0,75923.0,4718.0,16.362457497314608
62875.24923880333,129537.0,75943.0,4733.0,16.372508146880136
62875.2592894529,129522.0,75885.0,4717.0,16.38255879645294
62875.269340102466,129507.0,75936.0,4720.0,16.39260944601847
62875.27939075203,129530.0,75915.0,4711.0,16.402660095583997
62875.289441401605,129527.0,75887.0,4723.0,16.4127107451568
62875.29949205117,129487.0,75899.0,4707.0,16.42276139472233
62875.30954270074,129527.0,75931.0,4736.0,16.432812044295133
62875.31959335031,129493.0,75910.0,4710.0,16.44286269386066
62875.329643999874,129456.0,75905.0,4712.0,16.45291334342619
62875.33969464945,129501.0,75885.0,4717.0,16.462963992998993
62875.34974529901,129498.0,75895.0,4726.0,16.47301464256452
62875.359795948585,129482.0,75903.0,4706.0,16.483065292137326
62875.36984659815,129476.0,75894.0,4701.0,16.493115941702854
62875.379897247716,129488.0,75907.0,4740.0,16.503166591268382
62875.38994789729,129454.0,75891.0,4723.0,16.513217240841186
62875.399998546854,129478.0,75914.0,4709.0,16.523267890406714
62875.41004919642,129468.0,75890.0,4716.0,16.533318539972242
62875.42009984599,129502.0,75911.0,4724.0,16.543369189545047
62875.43015049556,129483.0,75916.0,4674.0,16.553419839110575
62875.44020114513,129480.0,75912.0,4707.0,16.56347048868338
62875.4502517947,129468.0,75899.0,4694.0,16.573521138248907
62875.46030244426,129429.0,75893.0,4707.0,16.583571787814435
62875.470353093835,129441.0,75907.0,4700.0,16.59362243738724
62875.4804037434,129453.0,75895.0,4699.0,16.603673086952767
62875.49045439297,129475.0,75919.0,4710.0,16.61372373652557
62875.50050504254,129475.0,75916.0,4708.0,16.6237743860911
62875.510555692104,129476.0,75894.0,4704.0,16.633825035656628
62875.52060634168,129456.0,75906.0,4708.0,16.643875685229432
62875.53065699124,129445.0,75891.0,4713.0,16.65392633479496
62875.540707640816,129453.0,75902.0,4690.0,16.663976984367764
62875.55075829038,129482.0,75923.0,4721.0,16.674027633933292
62875.56080893995,129474.0,75915.0,4706.0,16.68407828349882
62875.57085958952,129485.0,75897.0,4705.0,16.694128933071624
62875.580910239085,129469.0,75883.0,4695.0,16.704179582637153
62875.59096088866,129492.0,75933.0,4718.0,16.714230232209957
62875.60101153822,129467.0,75884.0,4685.0,16.724280881775485
62875.61106218779,129466.0,75897.0,4724.0,16.734331531341013
62875.62111283736,129473.0,75910.0,4693.0,16.744382180913817
62875.63116348693,129478.0,75894.0,4699.0,16.754432830479345
62875.64121413649,129479.0,75907.0,4734.0,16.764483480044873
62875.651264786065,129469.0,75925.0,4707.0,16.774534129617678
62875.66131543563,129500.0,75926.0,4717.0,16.784584779183206
62875.671366085204,129469.0,75884.0,4693.0,16.79463542875601
62875.68141673477,129465.0,75909.0,4705.0,16.804686078321538
62875.691467384335,129479.0,75905.0,4708.0,16.814736727887066
62875.70151803391,129490.0,75935.0,4693.0,16.82478737745987
62875.71156868347,129455.0,75903.0,4687.0,16.8348380270254
62875.721619333046,129484.0,75918.0,4674.0,16.844888676598202
62875.73166998261,129508.0,75909.0,4730.0,16.85493932616373
62875.74172063218,129465.0,75912.0,4705.0,16.86498997572926
62875.75177128175,129481.0,75914.0,4700.0,16.875040625302063
62875.761821931315,129496.0,75928.0,4737.0,16.88509127486759
62875.77187258089,129481.0,75914.0,4711.0,16.895141924440395
62875.781923230454,129500.0,75909.0,4693.0,16.905192574005923
62875.79197388002,129504.0,75938.0,4705.0,16.91524322357145
62875.80202452959,129496.0,75912.0,4734.0,16.925293873144255
62875.81207517916,129492.0,75905.0,4711.0,16.935344522709784
62875.82212582873,129470.0,75901.0,4697.0,16.945395172282588
62875.832176478296,129499.0,75917.0,4697.0,16.955445821848116
62875.84222712786,129486.0,75875.0,4691.0,16.965496471413644
62875.852277777434,129493.0,75917.0,4708.0,16.975547120986448
62875.862328427,129517.0,75927.0,4701.0,16.985597770551976
62875.872379076565,129501.0,75917.0,4719.0,16.995648420117504
62875.88242972614,129474.0,75891.0,4701.0,17.00569906969031
62875.8924803757,129509.0,75921.0,4710.0,17.015749719255837
62875.90253102528,129497.0,75936.0,4720.0,17.02580036882864
62875.91258167484,129504.0,75918.0,4702.0,17.03585101839417
62875.92263232441,129507.0,75919.0,4713.0,17.045901667959697
62875.93268297398,129505.0,75924.0,4708.0,17.0559523175325
62875.942733623546,129512.0,75930.0,4730.0,17.06600296709803
62875.95278427312,129484.0,75893.0,4687.0,17.076053616670833
62875.962834922684,129471.0,75925.0,4702.0,17.08610426623636
62875.97288557225,129515.0,75918.0,4711.0,17.09615491580189
62875.98293622182,129506.0,75913.0,4734.0,17.106205565374694
62875.99298687139,129510.0,75900.0,4696.0,17.116256214940222
62876.00303752096,129536.0,75932.0,4733.0,17.126306864513026
62876.013088170526,129518.0,75912.0,4701.0,17.136357514078554
62876.02313882009,129493.0,75943.0,4723.0,17.146408163644082
62876.033189469665,129514.0,75941.0,4728.0,17.156458813216886
62876.04324011923,129538.0,75932.0,4736.0,17.166509462782415
62876.0532907688,129523.0,75916.0,4707.0,17.17656011235522
62876.06334141837,129502.0,75914.0,4704.0,17.186610761920747
62876.073392067934,129548.0,75936.0,4721.0,17.196661411486275
62876.08344271751,129557.0,75935.0,4739.0,17.20671206105908
62876.09349336707,129519.0,75921.0,4695.0,17.216762710624607
62876.10354401664,129515.0,75918.0,4735.0,17.226813360190135
62876.11359466621,129545.0,75926.0,4738.0,17.23686400976294
62876.123645315776,129551.0,75910.0,4721.0,17.246914659328468
62876.13369596535,129507.0,75906.0,4719.0,17.256965308901272
62876.143746614915,129513.0,75924.0,4721.0,17.2670159584668
62876.15379726448,129495.0,75887.0,4689.0,17.277066608032328
62876.16384791405,129489.0,75905.0,4697.0,17.287117257605132
62876.17389856362,129505.0,75919.0,4734.0,17.29716790717066
62876.18394921319,129488.0,75942.0,4716.0,17.307218556743464
62876.19399986276,129470.0,75897.0,4701.0,17.317269206308993
62876.20405051232,129449.0,75882.0,4686.0,17.32731985587452
62876.214101161895,129495.0,75933.0,4721.0,17.337370505447325
62876.22415181146,129458.0,75911.0,4706.0,17.347421155012853
62876.23420246103,129454.0,75874.0,4728.0,17.357471804585657
62876.2442531106,129474.0,75925.0,4709.0,17.367522454151185
62876.254303760164,129458.0,75903.0,4700.0,17.377573103716713
62876.26435440974,129427.0,75880.0,4685.0,17.387623753289517
62876.2744050593,129421.0,75877.0,4699.0,17.397674402855046
62876.284455708876,129463.0,75915.0,4686.0,17.40772505242785
62876.29450635844,129443.0,75882.0,4722.0,17.417775701993378
62876.30455700801,129453.0,75902.0,4700.0,17.427826351558906
62876.31460765758,129466.0,75906.0,4728.0,17.43787700113171
62876.324658307145,129454.0,75913.0,4719.0,17.44792765069724
62876.33470895671,129468.0,75911.0,4710.0,17.457978300262766
62876.34475960628,129444.0,75913.0,4700.0,17.46802894983557
62876.35481025585,129459.0,75919.0,4689.0,17.4780795994011
62876.36486090542,129432.0,75902.0,4684.0,17.488130248973903
62876.37491155499,129405.0,75901.0,4704.0,17.49818089853943
62876.38496220455,129445.0,75900.0,4695.0,17.50823154810496
62876.395012854126,129420.0,75924.0,4727.0,17.518282197677763
62876.40506350369,129458.0,75907.0,4723.0,17.52833284724329
62876.415114153264,129409.0,75884.0,4710.0,17.538383496816095
62876.42516480283,129430.0,75894.0,4690.0,17.548434146381624
62876.435215452395,129452.0,75904.0,4703.0,17.55848479594715
62876.44526610197,129423.0,75899.0,4711.0,17.568535445519956
62876.45531675153,129415.0,75899.0,4683.0,17.578586095085484
62876.465367401106,129448.0,75901.0,4698.0,17.588636744658288
62876.47541805067,129416.0,75888.0,4689.0,17.598687394223816
62876.48546870024,129447.0,75904.0,4670.0,17.608738043789344
62876.49551934981,129409.0,75899.0,4686.0,17.61878869336215
62876.505569999375,129459.0,75909.0,4695.0,17.628839342927677
62876.51562064895,129443.0,75884.0,4689.0,17.63888999250048
62876.525671298514,129419.0,75912.0,4725.0,17.64894064206601
62876.53572194808,129467.0,75902.0,4722.0,17.658991291631537
62876.54577259765,129450.0,75902.0,4705.0,17.66904194120434
62876.55582324722,129433.0,75902.0,4682.0,17.67909259076987
62876.56587389678,129471.0,75900.0,4713.0,17.689143240335397
62876.575924546356,129429.0,75885.0,4687.0,17.6991938899082
62876.58597519592,129454.0,75905.0,4704.0,17.70924453947373
62876.596025845494,129448.0,75929.0,4723.0,17.719295189046534
62876.60607649506,129467.0,75914.0,4710.0,17.729345838612062
62876.616127144625,129430.0,75874.0,4710.0,17.73939648817759
62876.6261777942,129458.0,75908.0,4706.0,17.749447137750394
62876.636228443764,129438.0,75897.0,4708.0,17.759497787315922
62876.64627909334,129452.0,75911.0,4673.0,17.769548436888726
62876.6563297429,129442.0,75895.0,4694.0,17.779599086454255
62876.66638039247,129433.0,75928.0,4699.0,17.789649736019783
62876.67643104204,129460.0,75899.0,4709.0,17.799700385592587
62876.686481691606,129436.0,75888.0,4699.0,17.809751035158115
62876.69653234118,129483.0,75923.0,4711.0,17.81980168473092
62876.706582990744,129490.0,75932.0,4734.0,17.829852334296447
62876.71663364031,129466.0,75908.0,4708.0,17.839902983861975
62876.72668428988,129448.0,75902.0,4708.0,17.84995363343478
62876.73673493945,129466.0,75930.0,4719.0,17.860004283000308
62876.74678558902,129481.0,75893.0,4722.0,17.87005493257311
62876.75683623859,129468.0,75907.0,4704.0,17.88010558213864
62876.76688688815,129449.0,75872.0,4704.0,17.890156231704168
62876.776937537725,129465.0,75918.0,4717.0,17.900206881276972
62876.78698818729,129458.0,75923.0,4712.0,17.9102575308425
62876.797038836856,129461.0,75908.0,4720.0,17.92030818040803
62876.80708948643,129496.0,75915.0,4730.0,17.930358829980833
62876.817140135994,129475.0,75891.0,4723.0,17.94040947954636
62876.82719078557,129446.0,75906.0,4674.0,17.950460129119165
62876.83724143513,129481.0,75910.0,4711.0,17.960510778684693
62876.8472920847,129480.0,75922.0,4699.0,17.97056142825022
62876.85734273427,129484.0,75896.0,4720.0,17.980612077823025
62876.867393383836,129493.0,75927.0,4722.0,17.990662727388553
62876.87744403341,129483.0,75910.0,4708.0,18.000713376961357
62876.887494682975,129475.0,75904.0,4691.0,18.010764026526886
62876.89754533254,129463.0,75886.0,4698.0,18.020814676092414
62876.90759598211,129501.0,75924.0,4677.0,18.030865325665218
62876.91764663168,129497.0,75915.0,4713.0,18.040915975230746
62876.92769728125,129457.0,75862.0,4722.0,18.05096662480355
62876.93774793082,129474.0,75909.0,4713.0,18.061017274369078
62876.94779858038,129491.0,75897.0,4723.0,18.071067923934606
62876.957849229955,129483.0,75906.0,4705.0,18.08111857350741
62876.96789987952,129483.0,75914.0,4696.0,18.09116922307294
62876.97795052909,129518.0,75913.0,4712.0,18.101219872645743
62876.98800117866,129483.0,75912.0,4728.0,18.11127052221127
62876.998051828225,129486.0,75919.0,4717.0,18.1213211717768
62877.0081024778,129511.0,75920.0,4731.0,18.131371821349603
62877.01815312736,129479.0,75919.0,4717.0,18.14142247091513
62877.02820377693,129470.0,75894.0,4709.0,18.15147312048066
62877.0382544265,129474.0,75908.0,4712.0,18.161523770053464
62877.04830507607,129463.0,75908.0,4682.0,18.17157441961899
62877.05835572564,129454.0,75884.0,4689.0,18.181625069191796
62877.068406375205,129462.0,75913.0,4729.0,18.191675718757324
62877.07845702477,129436.0,75904.0,4702.0,18.201726368322852
62877.08850767434,129447.0,75923.0,4700.0,18.211777017895656
62877.09855832391,129404.0,75895.0,4681.0,18.221827667461184
62877.10860897348,129424.0,75900.0,4710.0,18.23187831703399
62877.11865962305,129424.0,75901.0,4728.0,18.241928966599517
62877.12871027261,129412.0,75912.0,4709.0,18.251979616165045
62877.138760922186,129395.0,75888.0,4692.0,18.26203026573785
62877.14881157175,129405.0,75920.0,4712.0,18.272080915303377
62877.158862221324,129422.0,75900.0,4715.0,18.28213156487618
62877.16891287089,129414.0,75899.0,4704.0,18.29218221444171
62877.178963520455,129431.0,75899.0,4679.0,18.302232864007237
62877.18901417003,129431.0,75909.0,4715.0,18.31228351358004
62877.19906481959,129349.0,75850.0,4663.0,18.32233416314557
62877.209115469166,129412.0,75900.0,4695.0,18.332384812718374
62877.21916611873,129393.0,75876.0,4702.0,18.342435462283902
62877.2292167683,129421.0,75925.0,4711.0,18.35248611184943
62877.23926741787,129388.0,75883.0,4711.0,18.362536761422234
62877.249318067436,129406.0,75900.0,4692.0,18.372587410987762
62877.259368717,129360.0,75844.0,4686.0,18.38263806055329
62877.269419366574,129396.0,75884.0,4692.0,18.392688710126095
62877.27947001614,129414.0,75912.0,4726.0,18.402739359691623
62877.28952066571,129415.0,75904.0,4702.0,18.412790009264427
62877.29957131528,129448.0,75889.0,4704.0,18.422840658829955
62877.30962196484,129397.0,75897.0,4698.0,18.432891308395483
62877.319672614416,129408.0,75876.0,4690.0,18.442941957968287
62877.32972326398,129428.0,75908.0,4719.0,18.452992607533815
62877.339773913554,129408.0,75906.0,4698.0,18.46304325710662
62877.34982456312,129410.0,75877.0,4687.0,18.473093906672148
62877.359875212685,129403.0,75937.0,4696.0,18.483144556237676
62877.36992586226,129418.0,75905.0,4696.0,18.49319520581048
62877.379976511824,129422.0,75892.0,4693.0,18.503245855376008
62877.3900271614,129415.0,75872.0,4688.0,18.513296504948812
62877.40007781096,129385.0,75881.0,4709.0,18.52334715451434
62877.41012846053,129415.0,75914.0,4706.0,18.53339780407987
62877.4201791101,129437.0,75890.0,4729.0,18.543448453652672
62877.430229759666,129388.0,75893.0,4703.0,18.5534991032182
62877.44028040924,129434.0,75922.0,4726.0,18.563549752791005
62877.450331058804,129419.0,75899.0,4692.0,18.573600402356533
62877.46038170837,129450.0,75920.0,4724.0,18.58365105192206
62877.47043235794,129434.0,75930.0,4717.0,18.593701701494865
62877.48048300751,129381.0,75907.0,4679.0,18.603752351060393
62877.490533657074,129422.0,75910.0,4699.0,18.61380300062592
62877.50058430665,129438.0,75912.0,4719.0,18.623853650198726
62877.51063495621,129398.0,75884.0,4706.0,18.633904299764254
62877.520685605785,129406.0,75904.0,4678.0,18.643954949337058
62877.53073625535,129432.0,75904.0,4699.0,18.654005598902586
62877.540786904916,129418.0,75895.0,4701.0,18.664056248468114
62877.55083755449,129437.0,75889.0,4728.0,18.674106898040918
62877.560888204054,129433.0,75897.0,4706.0,18.684157547606446
62877.57093885363,129437.0,75914.0,4678.0,18.69420819717925
62877.58098950319,129414.0,75895.0,4721.0,18.70425884674478
62877.59104015276,129406.0,75890.0,4671.0,18.714309496310307
62877.60109080233,129450.0,75932.0,4684.0,18.72436014588311
62877.6111414519,129439.0,75903.0,4720.0,18.73441079544864
62877.62119210147,129422.0,75900.0,4730.0,18.744461445021443
62877.631242751035,129414.0,75884.0,4727.0,18.75451209458697
62877.6412934006,129465.0,75938.0,4729.0,18.7645627441525
62877.65134405017,129454.0,75908.0,4712.0,18.774613393725303
62877.66139469974,129433.0,75923.0,4702.0,18.78466404329083
62877.67144534931,129467.0,75932.0,4703.0,18.794714692863636
62877.68149599888,129457.0,75888.0,4702.0,18.804765342429164
62877.69154664844,129470.0,75932.0,4689.0,18.814815991994692
62877.701597298015,129451.0,75900.0,4713.0,18.824866641567496
62877.71164794758,129448.0,75939.0,4719.0,18.834917291133024
62877.721698597146,129465.0,75931.0,4719.0,18.844967940698552
62877.73174924672,129428.0,75890.0,4690.0,18.855018590271357
62877.741799896285,129446.0,75909.0,4703.0,18.865069239836885
62877.75185054586,129441.0,75881.0,4708.0,18.87511988940969
62877.76190119542,129485.0,75938.0,4711.0,18.885170538975217
62877.77195184499,129460.0,75896.0,4697.0,18.895221188540745
62877.78200249456,129458.0,75917.0,4709.0,18.90527183811355
62877.79205314413,129470.0,75914.0,4733.0,18.915322487679077
62877.8021037937,129469.0,75904.0,4689.0,18.92537313725188
62877.812154443265,129439.0,75912.0,4692.0,18.93542378681741
62877.82220509283,129455.0,75910.0,4720.0,18.945474436382938
62877.8322557424,129475.0,75931.0,4712.0,18.955525085955742
62877.84230639197,129451.0,75902.0,4714.0,18.96557573552127
62877.85235704154,129460.0,75930.0,4731.0,18.975626385094074
62877.86240769111,129435.0,75881.0,4727.0,18.985677034659602
62877.87245834067,129471.0,75899.0,4716.0,18.99572768422513
62877.882508990246,129487.0,75921.0,4724.0,19.005778333797934
62877.89255963981,129479.0,75934.0,4691.0,19.015828983363463
62877.902610289384,129459.0,75918.0,4710.0,19.025879632936267
62877.91266093895,129459.0,75912.0,4710.0,19.035930282501795
62877.922711588515,129447.0,75893.0,4698.0,19.045980932067323
62877.93276223809,129441.0,75943.0,4709.0,19.056031581640127
62877.94281288765,129479.0,75926.0,4711.0,19.066082231205655
62877.95286353722,129448.0,75894.0,4701.0,19.076132880771183
62877.96291418679,129448.0,75916.0,4682.0,19.086183530343988
62877.97296483636,129420.0,75901.0,4685.0,19.096234179909516
62877.98301548593,129424.0,75912.0,4706.0,19.10628482948232
62877.993066135496,129462.0,75926.0,4725.0,19.116335479047848
62878.00311678506,129403.0,75900.0,4700.0,19.126386128613376
62878.013167434634,129426.0,75928.0,4724.0,19.13643677818618
62878.0232180842,129392.0,75892.0,4708.0,19.14648742775171
62878.03326873377,129383.0,75883.0,4693.0,19.156538077324512
62878.04331938334,129415.0,75898.0,4697.0,19.16658872689004
62878.0533700329,129382.0,75893.0,4718.0,19.17663937645557
62878.063420682476,129396.0,75901.0,4699.0,19.186690026028373
62878.07347133204,129364.0,75898.0,4709.0,19.1967406755939
62878.083521981614,129374.0,75884.0,4681.0,19.206791325166705
62878.09357263118,129408.0,75931.0,4691.0,19.216841974732233
62878.103623280746,129395.0,75902.0,4686.0,19.22689262429776
62878.11367393032,129358.0,75895.0,4693.0,19.236943273870565
62878.123724579884,129358.0,75929.0,4702.0,19.246993923436094
62878.13377522946,129388.0,75879.0,4677.0,19.257044573008898
62878.14382587902,129387.0,75912.0,4719.0,19.267095222574426
62878.15387652859,129375.0,75931.0,4701.0,19.277145872139954
62878.16392717816,129363.0,75871.0,4696.0,19.287196521712758
62878.173977827726,129365.0,75881.0,4689.0,19.297247171278286
62878.18402847729,129378.0,75899.0,4691.0,19.307297820843814
62878.194079126864,129380.0,75894.0,4692.0,19.31734847041662
62878.20412977643,129384.0,75879.0,4703.0,19.327399119982147
62878.214180426,129410.0,75904.0,4714.0,19.33744976955495
62878.22423107557,129398.0,75890.0,4701.0,19.34750041912048
62878.234281725134,129381.0,75913.0,4703.0,19.357551068686007
62878.24433237471,129375.0,75888.0,4667.0,19.36760171825881
62878.25438302427,129409.0,75929.0,4670.0,19.37765236782434
62878.264433673845,129347.0,75924.0,4692.0,19.387703017397143
62878.27448432341,129394.0,75908.0,4702.0,19.39775366696267
62878.284534972976,129424.0,75891.0,4703.0,19.4078043165282
62878.29458562255,129380.0,75907.0,4683.0,19.417854966101004
62878.304636272114,129387.0,75913.0,4718.0,19.427905615666532
62878.31468692169,129389.0,75909.0,4697.0,19.437956265239336
62878.32473757125,129397.0,75909.0,4693.0,19.448006914804864
62878.33478822082,129389.0,75927.0,4685.0,19.458057564370392
62878.34483887039,129376.0,75898.0,4678.0,19.468108213943196
62878.35488951996,129381.0,75904.0,4703.0,19.478158863508725
62878.36494016953,129396.0,75927.0,4715.0,19.48820951308153
62878.374990819095,129362.0,75904.0,4683.0,19.498260162647057
62878.38504146866,129395.0,75924.0,4674.0,19.508310812212585
62878.39509211823,129369.0,75899.0,4690.0,19.51836146178539
62878.4051427678,129376.0,75910.0,4741.0,19.528412111350917
62878.415193417364,129419.0,75903.0,4726.0,19.538462760916445
62878.42524406694,129408.0,75921.0,4716.0,19.54851341048925
62878.4352947165,129406.0,75904.0,4703.0,19.558564060054778
62878.445345366075,129419.0,75903.0,4691.0,19.56861470962758
62878.45539601564,129392.0,75907.0,4690.0,19.57866535919311
62878.46544666521,129421.0,75917.0,4725.0,19.588716008758638
62878.47549731478,129416.0,75897.0,4699.0,19.598766658331442
62878.485547964345,129386.0,75885.0,4694.0,19.60881730789697
62878.49559861392,129385.0,75890.0,4709.0,19.618867957469774
62878.50564926348,129384.0,75894.0,4685.0,19.628918607035303
62878.51569991305,129423.0,75909.0,4706.0,19.63896925660083
62878.52575056262,129412.0,75906.0,4727.0,19.649019906173635
62878.53580121219,129438.0,75927.0,4725.0,19.659070555739163
62878.54585186176,129400.0,75876.0,4709.0,19.669121205311967
62878.555902511325,129415.0,75908.0,4702.0,19.679171854877495
62878.56595316089,129416.0,75919.0,4710.0,19.689222504443023
62878.57600381046,129429.0,75909.0,4711.0,19.699273154015827
62878.58605446003,129405.0,75887.0,4714.0,19.709323803581356
62878.5961051096,129434.0,75911.0,4724.0,19.71937445315416
62878.60615575917,129413.0,75923.0,4706.0,19.729425102719688
62878.61620640873,129402.0,75886.0,4669.0,19.739475752285216
62878.626257058306,129413.0,75917.0,4711.0,19.74952640185802
62878.63630770787,129456.0,75913.0,4729.0,19.75957705142355
62878.64635835744,129425.0,75907.0,4710.0,19.769627700989076
62878.65640900701,129405.0,75898.0,4703.0,19.77967835056188
62878.666459656575,129445.0,75908.0,4731.0,19.78972900012741
62878.67651030615,129409.0,75894.0,4722.0,19.799779649700213
62878.68656095571,129428.0,75900.0,4713.0,19.80983029926574
62878.69661160528,129419.0,75883.0,4708.0,19.81988094883127
62878.70666225485,129458.0,75931.0,4732.0,19.829931598404073
62878.71671290442,129402.0,75891.0,4704.0,19.8399822479696
62878.72676355399,129441.0,75918.0,4703.0,19.850032897542405
