timestamp,time_from_segment_start_sec,selected_channel_name,backup_channel_name,selected_channel_raw,selected_channel_clipped,selected_channel_detrended,selected_channel_filtered,selected_channel_filtered_z
63102.98669988278,0.0,PPG_1,PPG_2,185778.0,185778.0,44.230312558822334,74.03424848726586,0.7457128331318339
63102.99670265272,0.0100027699372731,PPG_1,PPG_2,185822.0,185822.0,88.19648992992006,81.06948839012848,0.8165970328632367
63103.00670542266,0.0200055398818221,PPG_1,PPG_2,185771.0,185771.0,37.16266730098869,88.02354980970998,0.8866633114004452
63103.0167081926,0.0300083098190953,PPG_1,PPG_2,185797.0,185797.0,63.12884467205731,94.85586728349054,0.9555029477350573
63103.02671096254,0.0400110797636443,PPG_1,PPG_2,185842.0,185842.0,108.09502204315504,101.55866597986754,1.0230376058438797
63103.03671373248,0.0500138497009174,PPG_1,PPG_2,185841.0,185841.0,107.06119941422367,108.16399949738906,1.0895902446754298
63103.046716502424,0.0600166196454665,PPG_1,PPG_2,185826.0,185826.0,92.02737678529229,114.74487311534465,1.155896435563458
63103.05671927236,0.0700193895827396,PPG_1,PPG_2,185833.0,185833.0,98.99355415639002,121.40668355452172,1.2230181127576112
63103.066722042306,0.0800221595272887,PPG_1,PPG_2,185827.0,185827.0,92.95973152745864,128.26866437762277,1.2921566248671743
63103.07672481225,0.0900249294718378,PPG_1,PPG_2,185853.0,185853.0,118.92590889852727,135.43968093865766,1.364408854671415
63103.08672758219,0.1000276994091109,PPG_1,PPG_2,185869.0,185869.0,134.892086269625,142.9934010323241,1.440517048738357
63103.09673035213,0.11003046935366,PPG_1,PPG_2,185828.0,185828.0,93.85826364069362,150.94548200147017,1.5206389640504243
63103.10673312207,0.1200332392909331,PPG_1,PPG_2,185859.0,185859.0,124.82444101176225,159.23428640968103,1.6041535670090354
63103.116735892014,0.1300360092354822,PPG_1,PPG_2,185878.0,185878.0,143.79061838285998,167.7084282393243,1.689535554019919
63103.12673866195,0.1400387791727553,PPG_1,PPG_2,185893.0,185893.0,158.7567957539286,176.12520721372204,1.7743395763637084
63103.136741431896,0.1500415491173043,PPG_1,PPG_2,185913.0,185913.0,178.72297312499722,184.16061307413977,1.8553010391989664
63103.14674420183,0.1600443190545775,PPG_1,PPG_2,185894.0,185894.0,159.68915049609495,191.42758045272979,1.928520030195416
63103.15674697178,0.1700470889991265,PPG_1,PPG_2,185908.0,185908.0,173.65532786716358,197.49881426452697,1.9896912988477284
63103.166749741715,0.1800498589363997,PPG_1,PPG_2,185926.0,185926.0,191.6215052382613,201.9329402888598,2.034367739037796
63103.17675251166,0.1900526288809487,PPG_1,PPG_2,185919.0,185919.0,184.58768260932993,204.30422083739023,2.0582597919517025
63103.1867552816,0.2000553988182218,PPG_1,PPG_2,185948.0,185948.0,213.55385998039856,204.2348503337285,2.057560843130494
63103.19675805154,0.2100581687627709,PPG_1,PPG_2,185948.0,185948.0,213.52003735149628,201.42649553740762,2.0292650088664694
63103.20676082148,0.220060938700044,PPG_1,PPG_2,185912.0,185912.0,177.4862147225649,195.68624662533222,1.9714286086854385
63103.21676359142,0.2300637086445931,PPG_1,PPG_2,185900.0,185900.0,165.45239209363353,186.94298671631867,1.8833350979805792
63103.22676636136,0.2400664785818662,PPG_1,PPG_2,185898.0,185898.0,163.41856946473126,175.25397340548537,1.765561380860998
63103.236769131305,0.2500692485264153,PPG_1,PPG_2,185905.0,185905.0,170.3847468357999,160.80479942246225,1.6199774137599405
63103.24677190124,0.2600720184636884,PPG_1,PPG_2,185912.0,185912.0,177.3509242068685,143.9045378674905,1.4496972908194112
63103.25677467119,0.2700747884082375,PPG_1,PPG_2,185826.0,185826.0,91.31710157796624,124.97351665035855,1.25895606413735
63103.26677744113,0.2800775583527866,PPG_1,PPG_2,185844.0,185844.0,109.28327894903487,104.52016447396306,1.0528764533683683
63103.27678021107,0.2900803282900597,PPG_1,PPG_2,185809.0,185809.0,74.24945632010349,83.10765632653124,0.8371327793459299
63103.28678298101,0.3000830982346087,PPG_1,PPG_2,185767.0,185767.0,32.21563369120122,61.31520486168593,0.6175609518603534
63103.29678575095,0.3100858681718819,PPG_1,PPG_2,185769.0,185769.0,34.181811062269844,39.69912710298153,0.399766193698081
63103.306788520895,0.3200886381164309,PPG_1,PPG_2,185709.0,185709.0,-25.85201156666153,18.757977911813704,0.18877173972532518
63103.31679129083,0.330091408053704,PPG_1,PPG_2,185736.0,185736.0,1.1141658044361975,-1.094144141994544,-0.011250122241562568
63103.32679406078,0.3400941779982531,PPG_1,PPG_2,185698.0,185698.0,-36.91965682449518,-19.543091532848155,-0.19713417022623647
63103.336796830714,0.3500969479355262,PPG_1,PPG_2,185682.0,185682.0,-52.95347945342655,-36.37835653290017,-0.36675941446406374
63103.34679960066,0.3600997178800753,PPG_1,PPG_2,185703.0,185703.0,-31.987302082328824,-51.486564155545096,-0.5189835349622579
63103.35680237059,0.3701024878173484,PPG_1,PPG_2,185682.0,185682.0,-53.0211247112602,-64.83771737472074,-0.6535042939554977
63103.36680514054,0.3801052577618975,PPG_1,PPG_2,185647.0,185647.0,-88.05494734019157,-76.46842723594507,-0.7706905693638971
63103.37680791048,0.3901080276991706,PPG_1,PPG_2,185640.0,185640.0,-95.08876996909385,-86.46624120508257,-0.8714244536451407
63103.38681068042,0.4001107976437197,PPG_1,PPG_2,185641.0,185641.0,-94.12259259802522,-94.95604852769031,-0.956964279755688
63103.39681345036,0.4101135675809928,PPG_1,PPG_2,185655.0,185655.0,-80.1564152269566,-102.08694096114604,-1.028812235261875
63103.406816220304,0.4201163375255419,PPG_1,PPG_2,185626.0,185626.0,-109.19023785585887,-108.0194161615595,-1.0885854289004588
63103.41681899024,0.430119107462815,PPG_1,PPG_2,185613.0,185613.0,-122.22406048479024,-112.91537822770496,-1.1379151401492271
63103.426821760186,0.4401218774073641,PPG_1,PPG_2,185600.0,185600.0,-135.25788311372162,-116.93238807657679,-1.1783888883627858
63103.43682453012,0.4501246473446372,PPG_1,PPG_2,185607.0,185607.0,-128.2917057426239,-120.22000707118842,-1.2115135926617793
63103.44682730007,0.4601274172891862,PPG_1,PPG_2,185633.0,185633.0,-102.32552837155527,-122.91459177049862,-1.2386631259621814
63103.456830070005,0.4701301872264594,PPG_1,PPG_2,185632.0,185632.0,-103.35935100048664,-125.13172588661499,-1.2610020624715321
63103.46683283995,0.4801329571710084,PPG_1,PPG_2,185588.0,185588.0,-147.3931736293889,-126.95969152442149,-1.2794198965697972
63103.476835609894,0.4901357271155575,PPG_1,PPG_2,185625.0,185625.0,-110.42699625832029,-128.457985646324,-1.294516095314933
63103.48683837983,0.5001384970528306,PPG_1,PPG_2,185612.0,185612.0,-123.46081888725166,-129.66150712454578,-1.3066422854692437
63103.496841149776,0.5101412669973797,PPG_1,PPG_2,185575.0,185575.0,-160.49464151615393,-130.58853470374626,-1.3159826361876077
63103.50684391971,0.5201440369346528,PPG_1,PPG_2,185617.0,185617.0,-118.52846414508531,-131.25038848305357,-1.3226512041587315
63103.51684668966,0.5301468068792019,PPG_1,PPG_2,185585.0,185585.0,-150.56228677398758,-131.66018336701956,-1.3267801297966664
63103.526849459595,0.540149576816475,PPG_1,PPG_2,185613.0,185613.0,-122.59610940291896,-131.83811830083914,-1.3285729294114925
63103.53685222954,0.5501523467610241,PPG_1,PPG_2,185601.0,185601.0,-134.62993203185033,-131.81256892168,-1.328315504317205
63103.54685499948,0.5601551166982972,PPG_1,PPG_2,185591.0,185591.0,-144.6637546607526,-131.61780344279708,-1.326353127014293
63103.55685776942,0.5701578866428463,PPG_1,PPG_2,185623.0,185623.0,-112.69757728968398,-131.28916421328134,-1.3230418925565897
63103.56686053936,0.5801606565801194,PPG_1,PPG_2,185610.0,185610.0,-125.73139991861535,-130.8563638746016,-1.3186811733665718
63103.5768633093,0.5901634265246685,PPG_1,PPG_2,185590.0,185590.0,-145.76522254751762,-130.33622646969206,-1.3134404816195313
63103.58686607924,0.6001661964619416,PPG_1,PPG_2,185645.0,185645.0,-90.799045176449,-129.7265735161477,-1.3072978678177911
63103.596868849185,0.6101689664064907,PPG_1,PPG_2,185606.0,185606.0,-129.83286780538037,-129.00245586787125,-1.3000019545698893
63103.60687161912,0.6201717363437638,PPG_1,PPG_2,185613.0,185613.0,-122.86669043428265,-128.11615096195263,-1.2910719088512643
63103.61687438907,0.6301745062883128,PPG_1,PPG_2,185595.0,185595.0,-140.90051306321402,-127.00216595955443,-1.279847851605448
63103.62687715901,0.640177276225586,PPG_1,PPG_2,185622.0,185622.0,-113.9343356921454,-125.58601558959943,-1.2655792997067778
63103.63687992895,0.650180046170135,PPG_1,PPG_2,185610.0,185610.0,-125.96815832104767,-123.7936645005988,-1.2475203032353395
63103.646882698886,0.6601828161074081,PPG_1,PPG_2,185613.0,185613.0,-123.00198094997904,-121.55968367403548,-1.2250116261621093
63103.65688546883,0.6701855860519572,PPG_1,PPG_2,185621.0,185621.0,-115.03580357891042,-118.83389719715957,-1.197547716513
63103.666888238775,0.6801883559965063,PPG_1,PPG_2,185635.0,185635.0,-101.06962620781269,-115.58661534058011,-1.1648294327182598
63103.67689100871,0.6901911259337794,PPG_1,PPG_2,185604.0,185604.0,-132.10344883674406,-111.81260656749384,-1.126804063952845
63103.68689377866,0.7001938958783285,PPG_1,PPG_2,185631.0,185631.0,-105.13727146567544,-107.53387736773685,-1.083693338607324
63103.696896548594,0.7101966658156016,PPG_1,PPG_2,185628.0,185628.0,-108.17109409457771,-102.80018090289383,-1.035998549187956
63103.70689931854,0.7201994357601507,PPG_1,PPG_2,185632.0,185632.0,-104.20491672350909,-97.68544403993504,-0.9844645525690182
63103.71690208848,0.7302022056974238,PPG_1,PPG_2,185672.0,185672.0,-64.23873935244046,-92.27953749215983,-0.929996849299102
63103.72690485842,0.7402049756419729,PPG_1,PPG_2,185666.0,185666.0,-70.27256198134273,-86.67716986312895,-0.8735496845302954
63103.73690762836,0.750207745579246,PPG_1,PPG_2,185643.0,185643.0,-93.30638461027411,-80.96764219636867,-0.8160228190515606
63103.7469103983,0.760210515523795,PPG_1,PPG_2,185671.0,185671.0,-65.34020723920548,-75.228677245006,-0.7581993555335098
63103.75691316824,0.7702132854610682,PPG_1,PPG_2,185667.0,185667.0,-69.37402986810775,-69.52429503749936,-0.7007243335976365
63103.766915938184,0.7802160554056172,PPG_1,PPG_2,185669.0,185669.0,-67.40785249703913,-63.90452530972701,-0.644101832399658
63103.77691870812,0.7902188253428903,PPG_1,PPG_2,185674.0,185674.0,-62.441675125970505,-58.40533739893147,-0.5886942642695739
63103.786921478066,0.8002215952874394,PPG_1,PPG_2,185689.0,185689.0,-47.47549775487278,-53.0479794815547,-0.5347157171423571
63103.796924248,0.8102243652247125,PPG_1,PPG_2,185705.0,185705.0,-31.509320383804152,-47.837304844965466,-0.48221509075646
63103.80692701795,0.8202271351692616,PPG_1,PPG_2,185704.0,185704.0,-32.54314301273553,-42.76003376147699,-0.43105858400733965
63103.816929787885,0.8302299051065347,PPG_1,PPG_2,185703.0,185703.0,-33.5769656416378,-37.78534330960758,-0.3809356377452328
63103.82693255783,0.8402326750510838,PPG_1,PPG_2,185700.0,185700.0,-36.610788270569174,-32.869610358135105,-0.3314067231425296
63103.83693532777,0.8502354449883569,PPG_1,PPG_2,185687.0,185687.0,-49.64461089950055,-27.96461007874281,-0.28198594655386533
63103.84693809771,0.860238214932906,PPG_1,PPG_2,185728.0,185728.0,-8.67843352840282,-23.026044970670352,-0.2322269844799916
63103.856940867656,0.870240984877455,PPG_1,PPG_2,185702.0,185702.0,-34.712256157334195,-18.01901281510118,-0.18177817643969935
63103.86694363759,0.8802437548147282,PPG_1,PPG_2,185718.0,185718.0,-18.746078786236467,-12.918896053148528,-0.13039148597863542
63103.87694640754,0.8902465247592772,PPG_1,PPG_2,185753.0,185753.0,16.220098584832158,-7.707932569177339,-0.07788794928466113
63103.886949177475,0.9002492946965504,PPG_1,PPG_2,185763.0,185763.0,26.186275955900783,-2.3689964388354805,-0.024095012548791518
63103.89695194742,0.9102520646410994,PPG_1,PPG_2,185722.0,185722.0,-14.847546673001489,3.119831797550986,0.03120817573922536
63103.90695471736,0.9202548345783724,PPG_1,PPG_2,185746.0,185746.0,9.118630698067136,8.786046881275203,0.08829864134685385
63103.9169574873,0.9302576045229216,PPG_1,PPG_2,185747.0,185747.0,10.084808069135761,14.658893558730524,0.1474710423771669
63103.92696025724,0.9402603744601948,PPG_1,PPG_2,185775.0,185775.0,38.05098544023349,20.764441480306715,0.20898804596457227
63103.93696302718,0.9502631444047438,PPG_1,PPG_2,185727.0,185727.0,-9.982837188697886,27.12201465096836,0.2730443528792545
63103.94696579712,0.9602659143420168,PPG_1,PPG_2,185780.0,185780.0,42.98334018237074,33.74251042592014,0.3397497604150568
63103.956968567065,0.970268684286566,PPG_1,PPG_2,185807.0,185807.0,69.94951755346847,40.62937338182082,0.409138974717504
63103.966971337,0.9802714542238392,PPG_1,PPG_2,185804.0,185804.0,66.91569492453709,47.78179571264651,0.4812038566635054
63103.97697410695,0.9902742241683882,PPG_1,PPG_2,185762.0,185762.0,24.881872295605717,55.19631281011981,0.5559094982771401
63103.98697687688,1.0002769941056613,PPG_1,PPG_2,185813.0,185813.0,75.84804966670345,62.863406941245636,0.6331600027736605
63103.99697964683,1.0102797640502104,PPG_1,PPG_2,185790.0,185790.0,52.81422703777207,70.76083726538405,0.7127312805396514
63104.006982416766,1.0202825339874837,PPG_1,PPG_2,185815.0,185815.0,77.7804044088407,78.84813001136106,0.7942155344112074
63104.01698518671,1.0302853039320323,PPG_1,PPG_2,185809.0,185809.0,71.74658177993842,87.06493764171965,0.8770047272840557
63104.02698795665,1.0402880738693057,PPG_1,PPG_2,185814.0,185814.0,76.71275915100705,95.33425038430735,0.9603229401922625
63104.03699072659,1.0502908438138547,PPG_1,PPG_2,185870.0,185870.0,132.67893652207567,103.57109696602906,1.0433140373427818
63104.04699349654,1.0602936137584038,PPG_1,PPG_2,185854.0,185854.0,116.6451138931734,111.69589492092807,1.1251761783591832
63104.056996266474,1.070296383695677,PPG_1,PPG_2,185854.0,185854.0,116.61129126424203,119.64871984840262,1.2053055894910771
63104.06699903642,1.080299153640226,PPG_1,PPG_2,185882.0,185882.0,144.57746863531065,127.39992510973191,1.28340356333268
63104.07700180635,1.090301923577499,PPG_1,PPG_2,185872.0,185872.0,134.54364600640838,134.95492574143165,1.3595246595770838
63104.0870045763,1.1003046935220482,PPG_1,PPG_2,185874.0,185874.0,136.509823377477,142.35317195980357,1.4340663624679526
63104.09700734624,1.1103074634593213,PPG_1,PPG_2,185924.0,185924.0,186.47600074854563,149.66179536854662,1.507705062586217
63104.10701011618,1.1203102334038704,PPG_1,PPG_2,185873.0,185873.0,135.44217811964336,156.9641607576485,1.5812807094582106
63104.11701288612,1.1303130033411437,PPG_1,PPG_2,185935.0,185935.0,197.40835549071198,164.34306916311974,1.6556275724557785
63104.127015656064,1.1403157732856926,PPG_1,PPG_2,185908.0,185908.0,170.3745328617806,171.85848978532115,1.7313498767133582
63104.137018426,1.1503185432229657,PPG_1,PPG_2,185898.0,185898.0,160.34071023287834,179.52074701847437,1.808551646604278
63104.147021195946,1.1603213131675147,PPG_1,PPG_2,185885.0,185885.0,147.30688760394696,187.26200572923,1.8865494030706047
63104.15702396588,1.170324083104788,PPG_1,PPG_2,185911.0,185911.0,173.2730649750156,194.91216979161672,1.963629327119189
63104.16702673583,1.180326853049337,PPG_1,PPG_2,185939.0,185939.0,201.23924234611331,202.18708685564047,2.036928415894516
63104.177029505765,1.19032962298661,PPG_1,PPG_2,185912.0,185912.0,174.20541971718194,208.69373093701725,2.102486700333088
63104.18703227571,1.2003323929311591,PPG_1,PPG_2,185929.0,185929.0,191.17159708825056,213.9519945266372,2.1554668135450514
63104.19703504565,1.2103351628684322,PPG_1,PPG_2,185955.0,185955.0,217.1377744593483,217.43104778778883,2.1905203312139108
63104.20703781559,1.2203379328129813,PPG_1,PPG_2,185969.0,185969.0,231.10395183041692,218.59818337571542,2.20227991202004
63104.21704058553,1.2303407027502544,PPG_1,PPG_2,185964.0,185964.0,226.07012920151465,216.97547453089553,2.185930161414474
63104.22704335547,1.2403434726948035,PPG_1,PPG_2,185985.0,185985.0,247.03630657258327,212.19615270241675,2.137775669492643
63104.23704612541,1.2503462426320766,PPG_1,PPG_2,185940.0,185940.0,202.0024839436519,204.05212453790958,2.0557197727497045
63104.247048895355,1.2603490125766257,PPG_1,PPG_2,185982.0,185982.0,243.96866131474962,192.526179640212,1.9395890662631925
63104.2570516653,1.2703517825211748,PPG_1,PPG_2,185933.0,185933.0,194.93483868581825,177.80476602620382,1.7912621239908553
63104.26705443524,1.280354552458448,PPG_1,PPG_2,185923.0,185923.0,184.90101605688687,160.26856590913596,1.6145745442080683
63104.27705720518,1.290357322402997,PPG_1,PPG_2,185903.0,185903.0,164.8671934279846,140.45956949235966,1.4149871985208136
63104.28705997512,1.30036009234027,PPG_1,PPG_2,185764.0,185764.0,25.833370799053228,119.02686691522963,1.1990400536845929
63104.29706274506,1.3103628622848191,PPG_1,PPG_2,185815.0,185815.0,76.79954817012185,96.65969830517571,0.973677611312742
63104.307065515,1.3203656322220922,PPG_1,PPG_2,185810.0,185810.0,71.76572554121958,74.02221896848097,0.7455916286208302
63104.317068284945,1.330368402166641,PPG_1,PPG_2,185750.0,185750.0,11.731902912288206,51.70285037678054,0.5207107996829085
63104.32707105488,1.3403711721039144,PPG_1,PPG_2,185759.0,185759.0,20.69808028335683,30.18232752635998,0.30387881369296116
63104.33707382483,1.3503739420484635,PPG_1,PPG_2,185737.0,185737.0,-1.335742345545441,9.818685144245464,0.09870308211836026
63104.34707659477,1.3603767119857366,PPG_1,PPG_2,185723.0,185723.0,-15.369564974476816,-9.152788491905984,-0.09244572659203114
63104.35707936471,1.3703794819302857,PPG_1,PPG_2,185731.0,185731.0,-7.403387603408191,-26.607065280165415,-0.268307880421745
63104.367082134646,1.3803822518675588,PPG_1,PPG_2,185687.0,185687.0,-51.43721023231046,-42.508716628089985,-0.4285264153642093
63104.37708490459,1.390385021812108,PPG_1,PPG_2,185695.0,185695.0,-43.47103286124184,-56.888116834002396,-0.5734073704257316
63104.38708767453,1.400387791749381,PPG_1,PPG_2,185678.0,185678.0,-60.50485549017321,-69.81843756780911,-0.7036879934238626
63104.39709044447,1.41039056169393,PPG_1,PPG_2,185647.0,185647.0,-91.53867811907548,-81.39579673715984,-0.8203367290822617
63104.40709321441,1.4203933316312032,PPG_1,PPG_2,185674.0,185674.0,-64.57250074800686,-91.7238924581046,-0.9243983972039991
63104.417095984354,1.4303961015757525,PPG_1,PPG_2,185614.0,185614.0,-124.60632337693824,-100.90374864814123,-1.0168908734613247
63104.42709875429,1.4403988715130254,PPG_1,PPG_2,185608.0,185608.0,-130.6401460058405,-109.02823928842398,-1.0987499181013491
63104.43710152424,1.4504016414575744,PPG_1,PPG_2,185640.0,185640.0,-98.67396863477188,-116.17936652569405,-1.170801751214399
63104.44710429418,1.4604044114021235,PPG_1,PPG_2,185626.0,185626.0,-112.70779126370326,-122.42561930171152,-1.2337364393645347
63104.45710706412,1.4704071813393966,PPG_1,PPG_2,185624.0,185624.0,-114.74161389260553,-127.81964632264474,-1.2880844493809147
63104.46710983406,1.4804099512839457,PPG_1,PPG_2,185588.0,185588.0,-150.7754365215369,-132.39973964865786,-1.334231596399665
63104.477112604,1.4904127212212188,PPG_1,PPG_2,185577.0,185577.0,-161.80925915046828,-136.19700547275787,-1.3724912936985745
63104.487115373944,1.500415491165768,PPG_1,PPG_2,185609.0,185609.0,-129.84308177937055,-139.24528758309052,-1.4032045374443296
63104.49711814388,1.510418261103041,PPG_1,PPG_2,185591.0,185591.0,-147.87690440830193,-141.58903140889902,-1.4268191416030664
63104.507120913826,1.52042103104759,PPG_1,PPG_2,185584.0,185584.0,-154.9107270372333,-143.28707746267307,-1.4439279591118857
63104.51712368376,1.5304238009848632,PPG_1,PPG_2,185620.0,185620.0,-118.94454966613557,-144.41355225166814,-1.455277858338922
63104.52712645371,1.5404265709294125,PPG_1,PPG_2,185559.0,185559.0,-179.97837229506695,-145.05753117580338,-1.4617663265804446
63104.537129223645,1.5504293408666854,PPG_1,PPG_2,185586.0,185586.0,-153.01219492399832,-145.32206081639893,-1.4644316190420736
63104.54713199359,1.5604321108112345,PPG_1,PPG_2,185601.0,185601.0,-138.0460175529006,-145.32142028366815,-1.4644251652962668
63104.55713476353,1.5704348807485076,PPG_1,PPG_2,185592.0,185592.0,-147.07984018183197,-145.17487289300098,-1.4629486137282186
63104.56713753347,1.5804376506930566,PPG_1,PPG_2,185576.0,185576.0,-163.11366281076334,-144.99717190025697,-1.4611581712079842
63104.57714030341,1.5904404206303298,PPG_1,PPG_2,185597.0,185597.0,-142.14748543966562,-144.88758878354125,-1.4600540565452693
63104.58714307335,1.6004431905748788,PPG_1,PPG_2,185601.0,185601.0,-138.181308068597,-144.91816494602867,-1.4603621294523348
63104.59714584329,1.610445960512152,PPG_1,PPG_2,185625.0,185625.0,-114.21513069749926,-145.12183171607194,-1.462414192524203
63104.607148613235,1.620448730456701,PPG_1,PPG_2,185572.0,185572.0,-167.24895332643064,-145.4833272235019,-1.4660564733994073
63104.61715138317,1.630451500393974,PPG_1,PPG_2,185605.0,185605.0,-134.282775955362,-145.93638328074155,-1.47062128092471
63104.62715415312,1.6404542703385232,PPG_1,PPG_2,185627.0,185627.0,-112.31659858426428,-146.36799842733575,-1.4749700586040373
63104.63715692306,1.6504570402830725,PPG_1,PPG_2,185583.0,185583.0,-156.35042121319566,-146.62909344844167,-1.477600745244505
63104.647159693,1.6604598102203454,PPG_1,PPG_2,185573.0,185573.0,-166.38424384212703,-146.5517265214517,-1.476821227732511
63104.65716246294,1.6704625801648945,PPG_1,PPG_2,185586.0,185586.0,-153.4180664710293,-145.97154840754948,-1.4709755903593063
63104.66716523288,1.6804653501021676,PPG_1,PPG_2,185589.0,185589.0,-150.45188909996068,-144.75039217917387,-1.4586717196753511
63104.677168002825,1.6904681200467166,PPG_1,PPG_2,185578.0,185578.0,-161.48571172889206,-142.79353748711125,-1.438955252184163
63104.68717077276,1.7004708899839898,PPG_1,PPG_2,185584.0,185584.0,-155.51953435779433,-140.05908933829318,-1.411404071071332
63104.69717354271,1.7104736599285388,PPG_1,PPG_2,185609.0,185609.0,-130.5533569867257,-136.55860876402943,-1.3761346605596814
63104.70717631264,1.720476429865812,PPG_1,PPG_2,185622.0,185622.0,-117.58717961565708,-132.34903196934536,-1.3337206865631943
63104.71717908259,1.730479199810361,PPG_1,PPG_2,185600.0,185600.0,-139.62100224455935,-127.51822129324545,-1.2850474140725254
63104.727181852526,1.740481969747634,PPG_1,PPG_2,185653.0,185653.0,-86.65482487349072,-122.16829886038373,-1.2311437838460457
63104.73718462247,1.7504847396921832,PPG_1,PPG_2,185639.0,185639.0,-100.6886475024221,-116.40056322956708,-1.1730304387295019
63104.74718739241,1.7604875096294563,PPG_1,PPG_2,185606.0,185606.0,-133.72247013132437,-110.3049763801862,-1.1116137988312926
63104.75719016235,1.7704902795740054,PPG_1,PPG_2,185621.0,185621.0,-118.75629276025575,-103.95542100114993,-1.047638275905618
63104.76719293229,1.7804930495112783,PPG_1,PPG_2,185680.0,185680.0,-59.79011538918712,-97.40812685140953,-0.9816704180047663
63104.777195702234,1.7904958194558276,PPG_1,PPG_2,185671.0,185671.0,-68.8239380180894,-90.69986724336745,-0.9140807379836099
63104.78719847217,1.8004985893931007,PPG_1,PPG_2,185653.0,185653.0,-86.85776064702077,-83.84734048980043,-0.8450374812118002
63104.79720124211,1.8105013593376496,PPG_1,PPG_2,185669.0,185669.0,-70.89158327595214,-76.85214726034572,-0.7745567753819017
63104.80720401205,1.8205041292749229,PPG_1,PPG_2,185657.0,185657.0,-82.92540590485441,-69.71212702070642,-0.7026168518340334
63104.817206782,1.830506899219472,PPG_1,PPG_2,185662.0,185662.0,-77.95922853378579,-62.43497010933055,-0.6292951952729214
63104.827209551935,1.840509669156745,PPG_1,PPG_2,185670.0,185670.0,-69.99305116271717,-55.048695498048396,-0.5548741133985032
63104.83721232188,1.850512439101294,PPG_1,PPG_2,185717.0,185717.0,-23.026873791619437,-47.60484517611652,-0.4798729222129993
63104.847215091824,1.8605152090458432,PPG_1,PPG_2,185689.0,185689.0,-51.06069642055081,-40.17323699776372,-0.4049950778589584
63104.85721786176,1.8705179789831163,PPG_1,PPG_2,185724.0,185724.0,-16.094519049482187,-32.830688488732946,-0.3310145623061238
63104.867220631706,1.8805207489276656,PPG_1,PPG_2,185731.0,185731.0,-9.128341678384459,-25.647461085021764,-0.2586393010455141
63104.87722340164,1.8905235188649383,PPG_1,PPG_2,185753.0,185753.0,12.837835692684166,-18.674571860828323,-0.18838332124992
63104.88722617159,1.9005262888094876,PPG_1,PPG_2,185735.0,185735.0,-5.195986936247209,-11.935133831005166,-0.12047950020338925
63104.897228941525,1.9105290587467607,PPG_1,PPG_2,185749.0,185749.0,8.77019043485052,-5.422670467238493,-0.05486258305563952
63104.90723171147,1.9205318286913096,PPG_1,PPG_2,185727.0,185727.0,-13.263632194080856,0.8931024624119718,0.008772561727606116
63104.91723448141,1.930534598628583,PPG_1,PPG_2,185739.0,185739.0,-1.297454823012231,7.0560097108372295,0.07086749443142637
63104.92723725135,1.940537368573132,PPG_1,PPG_2,185762.0,185762.0,21.668722548085498,13.113629362311245,0.13190159237273988
63104.93724002129,1.950540138510405,PPG_1,PPG_2,185781.0,185781.0,40.63489991915412,19.111918221385654,0.19233789751711336
63104.94724279123,1.9605429084549544,PPG_1,PPG_2,185787.0,185787.0,46.60107729025185,25.09434293166132,0.2526143619868908
63104.95724556117,1.9705456783922273,PPG_1,PPG_2,185774.0,185774.0,33.567254661320476,31.102053063838174,0.3131455920255875
63104.967248331115,1.9805484483367763,PPG_1,PPG_2,185773.0,185773.0,32.5334320323891,37.17191036292395,0.3743029914988362
63104.97725110105,1.9905512182740497,PPG_1,PPG_2,185795.0,185795.0,54.49960940348683,43.332724492578656,0.4363768347940447
63104.987253871,2.0005539882185985,PPG_1,PPG_2,185815.0,185815.0,74.46578677455545,49.60243521549507,0.4995478756224448
63104.997256640934,2.0105567581558716,PPG_1,PPG_2,185781.0,185781.0,40.43196414562408,55.987700788696586,0.5638831998584667
63105.00725941088,2.0205595281004207,PPG_1,PPG_2,185812.0,185812.0,71.39814151672181,62.4854036053923,0.6293513957712381
63105.017262180816,2.030562298037694,PPG_1,PPG_2,185844.0,185844.0,103.36431888779043,69.08604632849038,0.6958567720767902
63105.02726495076,2.040565067982243,PPG_1,PPG_2,185834.0,185834.0,93.33049625885906,75.77914413760779,0.7632936880134089
63105.037267720705,2.050567837926792,PPG_1,PPG_2,185822.0,185822.0,81.29667362995679,82.55848347528563,0.8315995383175865
63105.04727049064,2.060570607864065,PPG_1,PPG_2,185841.0,185841.0,100.26285100102541,89.42469632897861,0.9007806906364234
63105.05727326059,2.070573377808614,PPG_1,PPG_2,185872.0,185872.0,131.22902837209404,96.38547306764507,0.970914629982055
63105.06727603053,2.0805761477458873,PPG_1,PPG_2,185857.0,185857.0,116.19520574319176,103.45481221609325,1.0421423997648207
63105.07727880047,2.0905789176904364,PPG_1,PPG_2,185842.0,185842.0,101.16138311426039,110.65077559105157,1.114645983462493
63105.087281570406,2.1005816876277095,PPG_1,PPG_2,185874.0,185874.0,133.127560485329,117.99127947697767,1.1886058982292096
63105.09728434035,2.1105844575722585,PPG_1,PPG_2,185887.0,185887.0,146.09373785642674,125.49005751137216,1.2641605185791411
63105.10728711029,2.1205872275095317,PPG_1,PPG_2,185891.0,185891.0,150.05991522749537,133.15502481226667,1.3413895940041596
63105.11728988023,2.1305899974540807,PPG_1,PPG_2,185885.0,185885.0,144.026092598564,140.98848345862044,1.4203163193102697
63105.12729265017,2.140592767391354,PPG_1,PPG_2,185919.0,185919.0,177.99226996966172,148.98755143987745,1.5009116565378995
63105.137295420114,2.150595537335903,PPG_1,PPG_2,185928.0,185928.0,186.95844734073034,157.14425319964406,1.5830952472429611
63105.14729819005,2.160598307273176,PPG_1,PPG_2,185927.0,185927.0,185.92462471179897,165.44450081157476,1.6667251472417932
63105.15730096,2.170601077217725,PPG_1,PPG_2,185930.0,185930.0,188.8908020828967,173.86413030132206,1.7515578902123368
63105.16730372993,2.180603847154998,PPG_1,PPG_2,185932.0,185932.0,190.85697945396532,182.3612130537884,1.8371710205783678
63105.17730649988,2.1906066170995473,PPG_1,PPG_2,185960.0,185960.0,218.82315682503395,190.86636712796738,1.922865474280671
63105.187309269815,2.2006093870368204,PPG_1,PPG_2,185963.0,185963.0,221.78933419613168,199.2735173829774,2.0075724815862155
63105.19731203976,2.2106121569813695,PPG_1,PPG_2,185980.0,185980.0,238.7555115672003,207.43184714348433,2.0897724753608578
63105.2073148097,2.2206149269186426,PPG_1,PPG_2,185983.0,185983.0,241.72168893826893,215.13786550894082,2.167415164521836
63105.21731757964,2.2306176968631917,PPG_1,PPG_2,185922.0,185922.0,180.68786630936665,222.1269106240317,2.237833924466085
63105.227320349586,2.2406204668077407,PPG_1,PPG_2,185986.0,185986.0,244.65404368043528,228.06676438613562,2.2976814614743084
63105.23732311952,2.250623236745014,PPG_1,PPG_2,185959.0,185959.0,217.6202210515039,232.55986954116517,2.342952151261833
63105.24732588947,2.260626006689563,PPG_1,PPG_2,185996.0,185996.0,254.58639842260163,235.16013509421683,2.3691513634226298
63105.257328659405,2.270628776626836,PPG_1,PPG_2,185977.0,185977.0,235.55257579367026,235.40536001324375,2.3716221494056846
63105.26733142935,2.280631546571385,PPG_1,PPG_2,186013.0,186013.0,271.5187531647389,232.86187222527215,2.3459950067827866
63105.27733419929,2.2906343165086582,PPG_1,PPG_2,185999.0,185999.0,257.4849305358366,227.17594022713976,2.2887058816101264
63105.28733696923,2.3006370864532073,PPG_1,PPG_2,186050.0,186050.0,308.45110790690524,218.1247790382489,2.1975100835459553
63105.29733973917,2.3106398563904804,PPG_1,PPG_2,185978.0,185978.0,236.41728527800296,205.657877392162,2.0718986817295937
63105.30734250911,2.3206426263350295,PPG_1,PPG_2,185983.0,185983.0,241.3834626490716,189.91928304521193,1.9133230424359298
63105.31734527905,2.3306453962723026,PPG_1,PPG_2,185949.0,185949.0,207.3496400201402,171.24566223177337,1.7251752769404474
63105.327348048995,2.3406481662168517,PPG_1,PPG_2,185924.0,185924.0,182.31581739123794,150.14106903428058,1.5125340280112713
63105.33735081893,2.350650936154125,PPG_1,PPG_2,185876.0,185876.0,134.28199476230657,127.23316240406935,1.2817233305191373
63105.34735358888,2.360653706098674,PPG_1,PPG_2,185845.0,185845.0,103.24817213337519,103.21737387473796,1.0397500681535456
63105.357356358814,2.370656476035947,PPG_1,PPG_2,185837.0,185837.0,95.21434950447292,78.79723178457266,0.7937027046963067
63105.36735912876,2.380659245980496,PPG_1,PPG_2,185791.0,185791.0,49.180526875541545,54.629323270419604,0.5501967435832494
63105.377361898696,2.390662015917769,PPG_1,PPG_2,185761.0,185761.0,19.14670424661017,31.279322158488593,0.3149316829172844
63105.38736466864,2.4006647858623182,PPG_1,PPG_2,185777.0,185777.0,35.1128816177079,9.193373288942475,0.09240269562725063
63105.39736743858,2.4106675557995914,PPG_1,PPG_2,185759.0,185759.0,17.079058988776524,-11.312782305462473,-0.11420894078412039
63105.40737020852,2.4206703257441404,PPG_1,PPG_2,185745.0,185745.0,3.0452363598451484,-30.04835413771017,-0.3029808994061292
63105.41737297847,2.4306730956886895,PPG_1,PPG_2,185737.0,185737.0,-4.988586269057123,-46.931269848651844,-0.4730862527169494
63105.4273757484,2.4406758656259626,PPG_1,PPG_2,185716.0,185716.0,-26.022408897988498,-61.96766328813945,-0.6245868028788427
63105.43737851835,2.4506786355705117,PPG_1,PPG_2,185674.0,185674.0,-68.05623152691987,-75.23158390552469,-0.7582286418560238
63105.447381288286,2.460681405507785,PPG_1,PPG_2,185676.0,185676.0,-66.09005415582214,-86.84624105570681,-0.8752531767137871
63105.45738405823,2.470684175452334,PPG_1,PPG_2,185708.0,185708.0,-34.12387678475352,-96.96530471849437,-0.9772087233151122
63105.46738682817,2.480686945389607,PPG_1,PPG_2,185679.0,185679.0,-63.157699413684895,-105.75350852630842,-1.0657550703614853
63105.47738959811,2.490689715334156,PPG_1,PPG_2,185646.0,185646.0,-96.19152204258717,-113.36972450916062,-1.1424929474460073
63105.48739236805,2.500692485271429,PPG_1,PPG_2,185640.0,185640.0,-102.22534467151854,-119.95648298470148,-1.2088584317520603
63105.497395137994,2.5106952552159782,PPG_1,PPG_2,185665.0,185665.0,-77.25916730044992,-125.63556136777201,-1.2660785027025996
63105.50739790793,2.5206980251532514,PPG_1,PPG_2,185645.0,185645.0,-97.29298992935219,-130.5064377268079,-1.3151554606270022
63105.51740067787,2.5307007950978004,PPG_1,PPG_2,185651.0,185651.0,-91.32681255828356,-134.6467566670142,-1.3568716208093827
63105.52740344781,2.5407035650350736,PPG_1,PPG_2,185620.0,185620.0,-122.36063518721494,-138.11657979465423,-1.3918321394282571
63105.53740621776,2.550706334979622,PPG_1,PPG_2,185617.0,185617.0,-125.39445781611721,-140.96689192337462,-1.420550718612294
63105.547408987695,2.5607091049168957,PPG_1,PPG_2,185636.0,185636.0,-106.42828044504859,-143.2496590295429,-1.443550946284426
63105.55741175764,2.570711874861445,PPG_1,PPG_2,185618.0,185618.0,-124.46210307397996,-145.02568098035817,-1.4614454170383973
63105.56741452758,2.580714644798718,PPG_1,PPG_2,185595.0,185595.0,-147.49592570288223,-146.3681070703044,-1.4749711532461525
63105.57741729752,2.590717414743267,PPG_1,PPG_2,185638.0,185638.0,-104.52974833181361,-147.36063660792968,-1.484971474906217
63105.58742006746,2.60072018468054,PPG_1,PPG_2,185649.0,185649.0,-93.56357096074498,-148.0895429854959,-1.4923156374317728
63105.5974228374,2.610722954625089,PPG_1,PPG_2,185622.0,185622.0,-120.59739358964725,-148.6309895241408,-1.4977710312945414
63105.60742560734,2.6207257245623623,PPG_1,PPG_2,185666.0,185666.0,-76.63121621857863,-149.03859006288877,-1.5018778476075831
63105.617428377285,2.6307284945069114,PPG_1,PPG_2,185609.0,185609.0,-133.66503884751,-149.33633543071036,-1.5048778081509582
63105.62743114723,2.6407312644514604,PPG_1,PPG_2,185641.0,185641.0,-101.69886147641228,-149.51910119256453,-1.5067192812131718
63105.63743391717,2.6507340343887336,PPG_1,PPG_2,185603.0,185603.0,-139.73268410534365,-149.55973341671722,-1.5071286748844805
63105.64743668711,2.660736804333282,PPG_1,PPG_2,185630.0,185630.0,-112.76650673424592,-149.41932803403108,-1.505714007676666
63105.65743945705,2.6707395742705557,PPG_1,PPG_2,185604.0,185604.0,-138.8003293631773,-149.05658617311838,-1.502059169053549
63105.66744222699,2.680742344215105,PPG_1,PPG_2,185640.0,185640.0,-102.83415199210867,-148.43310479634786,-1.4957772257154365
63105.67744499693,2.690745114152378,PPG_1,PPG_2,185639.0,185639.0,-103.86797462101094,-147.51346152109247,-1.4865112762233204
63105.687447766875,2.700747884096927,PPG_1,PPG_2,185666.0,185666.0,-76.90179724994232,-146.26180058913576,-1.473900052623012
63105.69745053681,2.7107506540342,PPG_1,PPG_2,185604.0,185604.0,-138.9356198788737,-144.639095666929,-1.4575503415400917
63105.70745330676,2.720753423978749,PPG_1,PPG_2,185636.0,185636.0,-106.96944250777597,-142.6043743332631,-1.4370493216168576
63105.717456076694,2.7307561939160223,PPG_1,PPG_2,185652.0,185652.0,-91.00326513670734,-140.11892419534098,-1.4120069426174964
63105.72745884664,2.7407589638605714,PPG_1,PPG_2,185652.0,185652.0,-91.03708776563872,-137.15027885201334,-1.382096086363325
63105.737461616576,2.7507617337978445,PPG_1,PPG_2,185670.0,185670.0,-73.07091039454099,-133.6755533338618,-1.3470861732628159
63105.74746438652,2.7607645037423936,PPG_1,PPG_2,185622.0,185622.0,-121.10473302347236,-129.68670467112088,-1.3068961656423197
63105.75746715646,2.7707672736796667,PPG_1,PPG_2,185634.0,185634.0,-109.13855565240374,-125.19865569041791,-1.2616764197992503
63105.7674699264,2.780770043624216,PPG_1,PPG_2,185639.0,185639.0,-104.17237828130601,-120.2564461379029,-1.2118807377938117
63105.77747269634,2.790772813561489,PPG_1,PPG_2,185687.0,185687.0,-56.206200910237385,-114.9351644246667,-1.158265679743749
63105.787475466284,2.800775583506038,PPG_1,PPG_2,185688.0,185688.0,-55.24002353916876,-109.32994331562003,-1.101789764477424
63105.79747823622,2.810778353443311,PPG_1,PPG_2,185699.0,185699.0,-44.27384616807103,-103.53990655110137,-1.0434517222592323
63105.807481006166,2.82078112338786,PPG_1,PPG_2,185677.0,185677.0,-66.3076687970024,-97.65317887174038,-0.984139461931278
63105.81748377611,2.830783893332409,PPG_1,PPG_2,185710.0,185710.0,-33.34149142593378,-91.73760478300696,-0.9245365569811469
63105.82748654605,2.8407866632696823,PPG_1,PPG_2,185699.0,185699.0,-44.37531405483605,-85.83753866037364,-0.865089903954425
63105.83748931599,2.8507894332142314,PPG_1,PPG_2,185676.0,185676.0,-67.40913668376743,-79.97500937223013,-0.8060214567188344
63105.84749208593,2.8607922031515045,PPG_1,PPG_2,185729.0,185729.0,-14.442959312698804,-74.15299128339133,-0.7473611837576853
63105.857494855874,2.8707949730960536,PPG_1,PPG_2,185743.0,185743.0,-0.47678194160107523,-68.35836532447148,-0.688976902693764
63105.86749762581,2.8807977430333267,PPG_1,PPG_2,185727.0,185727.0,-16.51060457053245,-62.56447994557437,-0.6306000834112424
63105.87750039576,2.890800512977876,PPG_1,PPG_2,185700.0,185700.0,-43.544427199463826,-56.73623444567009,-0.5718770656033121
63105.88750316569,2.900803282915149,PPG_1,PPG_2,185721.0,185721.0,-22.578249828366097,-50.838616881400284,-0.5124550832491599
63105.89750593564,2.910806052859698,PPG_1,PPG_2,185752.0,185752.0,8.387927542702528,-44.84436749005916,-0.45205947812945774
63105.907508705575,2.920808822796971,PPG_1,PPG_2,185759.0,185759.0,15.354104913771152,-38.735869673904794,-0.39051275261083845
63105.91751147552,2.93081159274152,PPG_1,PPG_2,185754.0,185754.0,10.320282284868881,-32.501411297289806,-0.327696900004977
63105.92751424546,2.9408143626787933,PPG_1,PPG_2,185793.0,185793.0,49.286459655937506,-26.12985993868528,-0.2634997545858931
63105.9375170154,2.9508171326233423,PPG_1,PPG_2,185753.0,185753.0,9.25263702700613,-19.60742222411275,-0.1977823399590985
63105.94751978534,2.960819902560615,PPG_1,PPG_2,185795.0,185795.0,51.21881439810386,-12.91810032000672,-0.13038346849696664
63105.95752255528,2.9708226725051645,PPG_1,PPG_2,185787.0,185787.0,43.184991769172484,-6.047694860944657,-0.061160073201276095
63105.96752532522,2.9808254424424376,PPG_1,PPG_2,185785.0,185785.0,41.15116914024111,1.009751153687381,0.009947866229647105
63105.977528095165,2.9908282123869867,PPG_1,PPG_2,185792.0,185792.0,48.11734651133884,8.244391646253684,0.08284114474475468
63105.9875308651,3.00083098232426,PPG_1,PPG_2,185781.0,185781.0,37.08352388240746,15.624010644929815,0.15719516738881056
63105.99753363505,3.010833752268809,PPG_1,PPG_2,185819.0,185819.0,75.04970125350519,23.091789752504752,0.23243745523118362
63106.00753640499,3.020836522213358,PPG_1,PPG_2,185842.0,185842.0,98.01587862457382,30.571101447004764,0.30779594070239435
63106.01753917493,3.030839292150631,PPG_1,PPG_2,185832.0,185832.0,87.98205599564244,37.976599147844865,0.3824107065646358
63106.02754194487,3.04084206209518,PPG_1,PPG_2,185862.0,185862.0,117.94823336674017,45.22734653884985,0.4554662716004229
63106.03754471481,3.0508448320324533,PPG_1,PPG_2,185838.0,185838.0,93.9144107378088,52.2573986325927,0.5262982010890347
63106.047547484755,3.0608476019770023,PPG_1,PPG_2,185849.0,185849.0,104.88058810887742,59.021837087813346,0.5944539161962819
63106.05755025469,3.0708503719142755,PPG_1,PPG_2,185881.0,185881.0,136.84676547997515,65.49905936692947,0.659715758589281
63106.06755302464,3.0808531418588245,PPG_1,PPG_2,185852.0,185852.0,107.81294285104377,71.69106535962307,0.7221038783384799
63106.077555794574,3.0908559117960976,PPG_1,PPG_2,185871.0,185871.0,126.7791202221124,77.62265965480769,0.781868196336283
63106.08755856452,3.1008586817406467,PPG_1,PPG_2,185891.0,185891.0,146.74529759321013,83.34008701854971,0.8394746559306987
63106.097561334456,3.11086145167792,PPG_1,PPG_2,185875.0,185875.0,130.71147496427875,88.90997132971958,0.8955945320749538
63106.1075641044,3.120864221622469,PPG_1,PPG_2,185908.0,185908.0,163.67765233534737,94.418802452646,0.9510992612662349
63106.11756687434,3.130866991559742,PPG_1,PPG_2,185912.0,185912.0,167.6438297064451,99.9720504591322,1.007051516809022
63106.12756964428,3.140869761504291,PPG_1,PPG_2,185886.0,185886.0,141.61000707751373,105.69146858840354,1.0646780345426547
63106.13757241422,3.150872531441564,PPG_1,PPG_2,185936.0,185936.0,191.57618444858235,111.70957482789065,1.1253140115064293
63106.14757518416,3.1608753013861133,PPG_1,PPG_2,185938.0,185938.0,193.54236181968008,118.16132189999091,1.190319176133319
63106.1575779541,3.1708780713233864,PPG_1,PPG_2,185920.0,185920.0,175.5085391907487,125.17274602914304,1.2609634178698612
63106.167580724046,3.1808808412679355,PPG_1,PPG_2,185933.0,185933.0,188.47471656181733,132.8455803575671,1.3382717582465224
63106.17758349398,3.1908836112052086,PPG_1,PPG_2,185912.0,185912.0,167.44089393291506,141.2387613818795,1.422838017297205
63106.18758626393,3.2008863811497577,PPG_1,PPG_2,185981.0,185981.0,236.40707130398368,150.3511067302211,1.5146502819266656
63106.197589033865,3.2108891510870308,PPG_1,PPG_2,185953.0,185953.0,208.3732486750523,160.10941304880487,1.6129709850835328
63106.20759180381,3.22089192103158,PPG_1,PPG_2,185964.0,185964.0,219.33942604615004,170.36280044264427,1.7162799226583016
63106.217594573754,3.230894690976129,PPG_1,PPG_2,186021.0,186021.0,276.30560341721866,180.88186020442112,1.8222656663480021
63106.22759734369,3.240897460913402,PPG_1,PPG_2,185977.0,185977.0,232.2717807882873,191.3613103952951,1.9278523202022573
63106.23760011363,3.250900230857951,PPG_1,PPG_2,185995.0,185995.0,250.23795815938502,201.4251775973753,2.029251729841763
63106.24760288357,3.260903000795224,PPG_1,PPG_2,186012.0,186012.0,267.20413553045364,210.63467250288383,2.1220428336734574
63106.25760565352,3.2709057707397733,PPG_1,PPG_2,186006.0,186006.0,261.17031290152227,218.50124298473597,2.201303180290759
63106.267608423455,3.2809085406770464,PPG_1,PPG_2,186029.0,186029.0,284.13649027262,224.50752217874847,2.2618199927817892
63106.2776111934,3.2909113106215955,PPG_1,PPG_2,186021.0,186021.0,276.1026676436886,228.1367893625894,2.2983870044956793
63106.28761396334,3.3009140805588686,PPG_1,PPG_2,186046.0,186046.0,301.06884501475724,228.9097329138778,2.306174867571725
63106.29761673328,3.3109168505034177,PPG_1,PPG_2,186056.0,186056.0,311.035022385855,226.425823973607,2.2811480170495235
63106.30761950322,3.320919620440691,PPG_1,PPG_2,186025.0,186025.0,280.0011997569236,220.40472492469146,2.2204818857620565
63106.31762227316,3.33092239038524,PPG_1,PPG_2,186053.0,186053.0,307.9673771279922,210.72213545738012,2.122924074629162
63106.3276250431,3.340925160322513,PPG_1,PPG_2,186046.0,186046.0,300.93355449908995,197.43513821343754,1.9890497250015127
63106.337627813045,3.350927930267062,PPG_1,PPG_2,186005.0,186005.0,259.8997318701586,180.79270153919066,1.8213673401045134
63106.34763058298,3.360930700204335,PPG_1,PPG_2,186011.0,186011.0,265.8659092412563,161.22723551767274,1.62423370707191
63106.35763335293,3.370933470148884,PPG_1,PPG_2,185941.0,185941.0,195.83208661232493,139.32531380266641,1.4035589021208597
63106.367636122864,3.3809362400861573,PPG_1,PPG_2,185886.0,185886.0,140.79826398339355,115.78020497091521,1.1663280158722809
63106.37763889281,3.3909390100307064,PPG_1,PPG_2,185914.0,185914.0,168.76444135449128,91.3339856138651,0.9200179085399453
63106.387641662746,3.4009417799679795,PPG_1,PPG_2,185853.0,185853.0,107.7306187255599,66.71979679242585,0.6720154095867225
63106.39764443269,3.4109445499125286,PPG_1,PPG_2,185836.0,185836.0,90.69679609662853,42.61253392296002,0.4291204891844589
63106.407647202635,3.4209473198570777,PPG_1,PPG_2,185856.0,185856.0,110.66297346772626,19.591618487543855,0.19717116119355588
63106.41764997257,3.430950089794351,PPG_1,PPG_2,185778.0,185778.0,32.629150838794885,-1.8834367098617548,-0.01920271132163727
63106.42765274252,3.4409528597389,PPG_1,PPG_2,185801.0,185801.0,55.59532820986351,-21.48540652762157,-0.21670414167451585
63106.437655512455,3.450955629676173,PPG_1,PPG_2,185776.0,185776.0,30.56150558096124,-39.02075307433778,-0.393383121231564
63106.4476582824,3.460958399620722,PPG_1,PPG_2,185740.0,185740.0,-5.472317047970137,-54.42072081450474,-0.5485468973391816
63106.457661052336,3.470961169557995,PPG_1,PPG_2,185770.0,185770.0,24.493860323098488,-67.72310470748008,-0.6825762765490905
63106.46766382228,3.480963939502544,PPG_1,PPG_2,185743.0,185743.0,-2.5399623058037832,-79.04650445882268,-0.7966662209852552
63106.47766659222,3.490966709439818,PPG_1,PPG_2,185751.0,185751.0,5.4262150652648415,-88.56019624493459,-0.8925222881643378
63106.48766936216,3.5009694793843664,PPG_1,PPG_2,185726.0,185726.0,-19.607607563666534,-96.45425588609824,-0.9720596043073401
63106.4976721321,3.5109722493216395,PPG_1,PPG_2,185719.0,185719.0,-26.641430192568805,-102.9141470180439,-1.0371468251501763
63106.507674902045,3.5209750192661886,PPG_1,PPG_2,185753.0,185753.0,7.32474717849982,-108.10179523878965,-1.0894154467882204
63106.51767767198,3.5309777892034617,PPG_1,PPG_2,185730.0,185730.0,-15.709075450431556,-112.1443461044903,-1.1301465358406468
63106.527680441926,3.540980559148011,PPG_1,PPG_2,185707.0,185707.0,-38.74289807933383,-115.13304862955245,-1.160259480054255
63106.53768321186,3.550983329085284,PPG_1,PPG_2,185704.0,185704.0,-41.7767207082652,-117.13424302524079,-1.1804226962635014
63106.54768598181,3.560986099029833,PPG_1,PPG_2,185657.0,185657.0,-88.81054333719658,-118.21003807833605,-1.191261967200464
63106.557688751745,3.570988868967106,PPG_1,PPG_2,185701.0,185701.0,-44.84436596609885,-118.44129980427248,-1.1935920657611168
63106.56769152169,3.580991638911655,PPG_1,PPG_2,185702.0,185702.0,-43.878188595030224,-117.94443988146847,-1.1885859084028954
63106.57769429163,3.5909944088489283,PPG_1,PPG_2,185692.0,185692.0,-53.9120112239616,-116.8771767349622,-1.177832601467032
63106.58769706157,3.600997178793478,PPG_1,PPG_2,185720.0,185720.0,-25.94583385286387,-115.43366949411964,-1.163288412926713
63106.59769983152,3.6109999487380264,PPG_1,PPG_2,185709.0,185709.0,-36.979656481795246,-113.83200215982096,-1.1471506679748322
63106.607702601454,3.621002718675299,PPG_1,PPG_2,185711.0,185711.0,-35.01347911072662,-112.29699304250062,-1.1316845439529086
63106.6177053714,3.6310054886198486,PPG_1,PPG_2,185740.0,185740.0,-6.047301739628892,-111.04092266866658,-1.119028892619779
63106.627708141335,3.6410082585571217,PPG_1,PPG_2,185706.0,185706.0,-40.08112436856027,-110.24459304480376,-1.1110054010417652
63106.63771091128,3.651011028501671,PPG_1,PPG_2,185720.0,185720.0,-26.114946997491643,-110.04087747819983,-1.1089528463157106
63106.64771368122,3.661013798438944,PPG_1,PPG_2,185752.0,185752.0,5.851230373606086,-110.50211020303912,-1.1136000385993545
63106.65771645116,3.671016568383493,PPG_1,PPG_2,185711.0,185711.0,-35.18259225532529,-111.63221049976471,-1.1249864669593908
63106.6677192211,3.681019338320766,PPG_1,PPG_2,185756.0,185756.0,9.783585115743335,-113.36541719357957,-1.1424495486959763
63106.67772199104,3.691022108265315,PPG_1,PPG_2,185698.0,185698.0,-48.250237513158936,-115.57391709214855,-1.1647014903608577
63106.68772476098,3.701024878202588,PPG_1,PPG_2,185686.0,185686.0,-60.28406014209031,-118.08447886482864,-1.189996883920965
63106.697727530925,3.711027648147138,PPG_1,PPG_2,185696.0,185696.0,-50.31788277099258,-120.70016014486946,-1.2163514186416162
63106.70773030086,3.7210304180844105,PPG_1,PPG_2,185706.0,185706.0,-40.35170539992396,-123.22007798111746,-1.2417410800714483
63106.71773307081,3.73103318802896,PPG_1,PPG_2,185717.0,185717.0,-29.385528028855333,-125.45176331135242,-1.26422662866257
63106.727735840745,3.7410359579662327,PPG_1,PPG_2,185750.0,185750.0,3.5806493422423955,-127.21632468308646,-1.2820056273092857
63106.73773861069,3.7510387279107817,PPG_1,PPG_2,185680.0,185680.0,-66.45317328668898,-128.35156319232598,-1.2934438261969983
63106.74774138063,3.761041497848055,PPG_1,PPG_2,185694.0,185694.0,-52.486995915620355,-128.71808332510344,-1.2971367331420487
63106.75774415057,3.771044267792604,PPG_1,PPG_2,185719.0,185719.0,-27.520818544522626,-128.20839799274424,-1.2920013522029545
63106.76774692051,3.781047037729877,PPG_1,PPG_2,185697.0,185697.0,-49.554641173454,-126.7547886196677,-1.2773553787101855
63106.77774969045,3.791049807674426,PPG_1,PPG_2,185696.0,185696.0,-50.58846380238538,-124.33275041375452,-1.2529519124012143
63106.7877524604,3.801052577618975,PPG_1,PPG_2,185729.0,185729.0,-17.622286431287648,-120.95943713742072,-1.218963787569971
63106.797755230335,3.811055347556248,PPG_1,PPG_2,185747.0,185747.0,0.3438909397809766,-116.68736035381177,-1.1759200892486092
63106.80775800028,3.8210581175007974,PPG_1,PPG_2,185705.0,185705.0,-41.6899316891504,-111.59520350669013,-1.1246135996336455
63106.81776077022,3.8310608874380705,PPG_1,PPG_2,185740.0,185740.0,-6.72375431805267,-105.77904665860696,-1.0660123821370056
63106.82776354016,3.841063657382619,PPG_1,PPG_2,185765.0,185765.0,18.242423053015955,-99.34545249913687,-1.001190118832935
63106.8377663101,3.8510664273198927,PPG_1,PPG_2,185740.0,185740.0,-6.79139957591542,-92.40601614214548,-0.9312711964444911
63106.84776908004,3.8610691972644418,PPG_1,PPG_2,185758.0,185758.0,11.174777795182308,-85.07397760619352,-0.8573965750816455
63106.85777184998,3.871071967201715,PPG_1,PPG_2,185756.0,185756.0,9.140955166250933,-77.46361026174161,-0.7807176264854545
63106.867774619925,3.881074737146264,PPG_1,PPG_2,185773.0,185773.0,26.107132537319558,-69.69096766938529,-0.7024036588646474
63106.87777738986,3.891077507083537,PPG_1,PPG_2,185765.0,185765.0,18.073309908417286,-61.87358294506005,-0.623638887822396
63106.88778015981,3.901080277028086,PPG_1,PPG_2,185787.0,185787.0,40.03948727948591,-54.12745972539279,-0.5455921185539404
63106.897782929744,3.9110830469653592,PPG_1,PPG_2,185822.0,185822.0,75.00566465055454,-46.56064797276073,-0.4693520182859667
63106.90778569969,3.921085816909908,PPG_1,PPG_2,185824.0,185824.0,76.97184202165226,-39.26456568591707,-0.3958396773824337
63106.917788469626,3.9310885868471814,PPG_1,PPG_2,185795.0,185795.0,47.93801939272089,-32.30677596041453,-0.3257358339597036
63106.92779123957,3.9410913567917305,PPG_1,PPG_2,185832.0,185832.0,84.90419676378951,-25.7286497599032,-0.2594573249261044
63106.93779400951,3.951094126729003,PPG_1,PPG_2,185800.0,185800.0,52.87037413488724,-19.547487157891315,-0.19717845874628778
63106.94779677945,3.9610968966735527,PPG_1,PPG_2,185843.0,185843.0,95.83655150595587,-13.759641119212587,-0.13886248938561618
63106.95779954939,3.971099666610826,PPG_1,PPG_2,185870.0,185870.0,122.80272887702449,-8.341922011463605,-0.08427576759293721
63106.967802319334,3.981102436555375,PPG_1,PPG_2,185859.0,185859.0,111.76890624812222,-3.2520684649884357,-0.03299248509319906
63106.97780508927,3.991105206492648,PPG_1,PPG_2,185828.0,185828.0,80.73508361919085,1.5678052053958955,0.015570590601296341
63106.987807859216,4.001107976437197,PPG_1,PPG_2,185829.0,185829.0,81.70126099025947,6.182515183582043,0.0620665208485568
63106.99781062916,4.011110746381746,PPG_1,PPG_2,185863.0,185863.0,115.6674383613572,10.653502699000777,0.10711436234584455
63107.0078133991,4.021113516319019,PPG_1,PPG_2,185873.0,185873.0,125.63361573242582,15.033307213590165,0.15124348122213596
63107.01781616904,4.031116286263568,PPG_1,PPG_2,185872.0,185872.0,124.59979310349445,19.36719342202665,0.19490994602697972
63107.02781893898,4.041119056200841,PPG_1,PPG_2,185884.0,185884.0,136.56597047459218,23.699081129280597,0.2385562747513284
63107.03782170893,4.0511218261453905,PPG_1,PPG_2,185907.0,185907.0,159.5321478456608,28.077708319902047,0.28267353139286394
63107.04782447886,4.061124596082664,PPG_1,PPG_2,185895.0,185895.0,147.49832521672943,32.559954156660915,0.32783480713113466
63107.057827248806,4.071127366027213,PPG_1,PPG_2,185881.0,185881.0,133.46450258782716,37.20893600834775,0.37467604675802313
63107.06783001874,4.081130135964486,PPG_1,PPG_2,185897.0,185897.0,149.43067995889578,42.08633592959432,0.4238187334270155
63107.07783278869,4.091132905909035,PPG_1,PPG_2,185864.0,185864.0,116.39685732999351,47.24185696028731,0.47576365463864184
63107.087835558625,4.101135675846308,PPG_1,PPG_2,185934.0,185934.0,186.36303470106213,52.70485720602033,0.5308066106569113
63107.09783832857,4.111138445790857,PPG_1,PPG_2,185873.0,185873.0,125.32921207213076,58.48218634274929,0.5890166160151243
63107.10784109851,4.12114121572813,PPG_1,PPG_2,185942.0,185942.0,194.2953894432285,64.56344752552961,0.6502889163561018
63107.11784386845,4.131143985672679,PPG_1,PPG_2,185950.0,185950.0,202.2615668142971,70.93250832283564,0.714460967898223
63107.12784663839,4.141146755609952,PPG_1,PPG_2,185961.0,185961.0,213.22774418536574,77.5818274587462,0.7814567878298131
63107.13784940833,4.1511495255545015,PPG_1,PPG_2,185953.0,185953.0,205.19392155646347,84.52376055534178,0.8514008663453009
63107.14785217827,4.161152295491775,PPG_1,PPG_2,185942.0,185942.0,194.1600989275321,91.79353319363102,0.9246481219910823
63107.157854948215,4.171155065436324,PPG_1,PPG_2,185969.0,185969.0,221.12627629860071,99.44310696310372,1.0017220984897044
63107.16785771815,4.181157835373597,PPG_1,PPG_2,185987.0,185987.0,239.09245366969844,107.52913426937455,1.0831936023083668
63107.1778604881,4.191160605318146,PPG_1,PPG_2,185959.0,185959.0,211.05863104076707,116.09801444799551,1.1695301341739932
63107.18786325804,4.201163375262695,PPG_1,PPG_2,186007.0,186007.0,259.0248084118357,125.16918370806505,1.2609275253797279
63107.19786602798,4.211166145199968,PPG_1,PPG_2,185977.0,185977.0,228.99098578293342,134.7177665277576,1.3571351403421572
63107.20786879792,4.221168915144517,PPG_1,PPG_2,186007.0,186007.0,258.95716315400205,144.65884232558165,1.4572973540160998
63107.21787156786,4.23117168508179,PPG_1,PPG_2,186019.0,186019.0,270.92334052507067,154.8359019492172,1.5598372441976194
63107.227874337805,4.241174455026339,PPG_1,PPG_2,186019.0,186019.0,270.8895178961684,165.01549846136683,1.6624026950301771
63107.23787710774,4.251177224963612,PPG_1,PPG_2,186046.0,186046.0,297.855695267237,174.88895897913415,1.7618836447980393
63107.24787987769,4.2611799949081615,PPG_1,PPG_2,186044.0,186044.0,295.82187263830565,184.08095910628995,1.854498478398706
63107.257882647624,4.271182764845435,PPG_1,PPG_2,186052.0,186052.0,303.7880500094034,192.164317731372,1.9359430936772448
63107.26788541757,4.281185534789984,PPG_1,PPG_2,186056.0,186056.0,307.754227380472,198.6804613859668,2.001597091930079
63107.277888187506,4.291188304727257,PPG_1,PPG_2,186059.0,186059.0,310.7204047515406,203.1655293179946,2.046786801945996
63107.28789095745,4.301191074671806,PPG_1,PPG_2,186082.0,186082.0,333.68658212263836,205.18229657881275,2.0671069239747295
63107.29789372739,4.311193844609079,PPG_1,PPG_2,186098.0,186098.0,349.652759493707,204.3567579903996,2.0587891348168577
63107.30789649733,4.321196614553628,PPG_1,PPG_2,186066.0,186066.0,317.6189368647756,200.41551129485381,2.0190787451478256
63107.31789926727,4.331199384490901,PPG_1,PPG_2,186090.0,186090.0,341.58511423587333,193.21839546551467,1.9465635497911853
63107.327902037214,4.34120215443545,PPG_1,PPG_2,186090.0,186090.0,341.55129160694196,182.78168554926987,1.8414075294626124
63107.33790480715,4.351204924372723,PPG_1,PPG_2,186040.0,186040.0,291.5174689780106,169.28844420743286,1.7054551486618363
63107.347907577096,4.361207694317272,PPG_1,PPG_2,186069.0,186069.0,320.4836463491083,153.08322691222892,1.542178007398094
63107.35791034703,4.3712104642545455,PPG_1,PPG_2,186003.0,186003.0,254.44982372017694,134.6499564434838,1.3564519136684638
63107.36791311698,4.381213234199095,PPG_1,PPG_2,185990.0,185990.0,241.41600109124556,114.57438786812631,1.1541786959437805
63107.37791588692,4.391216004143644,PPG_1,PPG_2,185943.0,185943.0,194.3821784623433,93.49526656276413,0.9417940913812863
63107.38791865686,4.401218774080917,PPG_1,PPG_2,185912.0,185912.0,163.34835583341192,72.05128433337705,0.7257332973824885
63107.3979214268,4.411221544025466,PPG_1,PPG_2,185891.0,185891.0,142.31453320448054,50.83314946183354,0.5119480489860059
63107.40792419674,4.421224313962739,PPG_1,PPG_2,185916.0,185916.0,167.28071057557827,30.349507992501024,0.305563255690214
63107.417926966686,4.431227083907288,PPG_1,PPG_2,185923.0,185923.0,174.2468879466469,11.010816136808096,0.11071450639806689
63107.42792973662,4.441229853844561,PPG_1,PPG_2,185866.0,185866.0,117.21306531774462,-6.872322265838033,-0.06946868164669186
63107.43793250657,4.45123262378911,PPG_1,PPG_2,185853.0,185853.0,104.17924268881325,-23.084564783562488,-0.2328166061791184
63107.447935276505,4.461235393726383,PPG_1,PPG_2,185839.0,185839.0,90.14542005988187,-37.50045223276343,-0.37806519178012815
63107.45793804645,4.471238163670932,PPG_1,PPG_2,185844.0,185844.0,95.1115974309796,-50.077985554924204,-0.5047912731144191
63107.46794081639,4.4812409336082055,PPG_1,PPG_2,185811.0,185811.0,62.077774802048225,-60.849330296562975,-0.6133189370724659
63107.47794358633,4.491243703552755,PPG_1,PPG_2,185816.0,185816.0,67.04395217311685,-69.90874775155991,-0.7045979218969722
63107.48794635627,4.501246473490028,PPG_1,PPG_2,185809.0,185809.0,60.01012954421458,-77.39874416951282,-0.7800640622714652
63107.49794912621,4.511249243434577,PPG_1,PPG_2,185790.0,185790.0,40.9763069152832,-83.49494285901262,-0.8414868668204598
63107.50795189615,4.52125201337185,PPG_1,PPG_2,185822.0,185822.0,72.94248428635183,-88.39017123023109,-0.8908091856592372
63107.517954666095,4.531254783316399,PPG_1,PPG_2,185784.0,185784.0,34.90866165744956,-92.27892607559056,-0.9299906889158296
63107.52795743603,4.541257553253672,PPG_1,PPG_2,185806.0,185806.0,56.87483902851818,-95.34407279975558,-0.9608738536126527
63107.53796020598,4.551260323198221,PPG_1,PPG_2,185794.0,185794.0,44.841016399586806,-97.74755774958194,-0.9850903849018827
63107.547962975914,4.561263093135494,PPG_1,PPG_2,185772.0,185772.0,22.807193770684535,-99.62588725746036,-1.0040156647553338
63107.55796574586,4.571265863080043,PPG_1,PPG_2,185797.0,185797.0,47.77337114175316,-101.08977769719347,-1.0187652260706075
63107.56796851579,4.5812686330173165,PPG_1,PPG_2,185779.0,185779.0,29.739548512821784,-102.22631331966754,-1.0302164941407306
63107.57797128574,4.5912714029618655,PPG_1,PPG_2,185784.0,185784.0,34.70572588391951,-103.10196641276913,-1.0390392165501792
63107.587974055685,4.601274172906415,PPG_1,PPG_2,185805.0,185805.0,55.67190325498814,-103.76587882734331,-1.0457285264882363
63107.59797682562,4.611276942843688,PPG_1,PPG_2,185789.0,185789.0,39.63808062605676,-104.25392588432402,-1.0506458890150303
63107.60797959557,4.621279712788237,PPG_1,PPG_2,185750.0,185750.0,0.604257997154491,-104.59459783981202,-1.0540783602980457
63107.617982365504,4.63128248272551,PPG_1,PPG_2,185772.0,185772.0,22.570435368223116,-104.81604344819755,-1.0563095556732105
63107.62798513545,4.641285252670059,PPG_1,PPG_2,185806.0,185806.0,56.53661273929174,-104.95036594842607,-1.0576629342453818
63107.637987905386,4.651288022607332,PPG_1,PPG_2,185795.0,185795.0,45.50279011038947,-105.03172707501733,-1.0584826956788647
63107.64799067533,4.661290792551881,PPG_1,PPG_2,185789.0,185789.0,39.468967481458094,-105.08997347890717,-1.0590695626207132
63107.65799344527,4.671293562489154,PPG_1,PPG_2,185783.0,185783.0,33.43514485252672,-105.14450272296757,-1.0596189769805004
63107.66799621521,4.681296332433703,PPG_1,PPG_2,185795.0,185795.0,45.40132222362445,-105.2006799894853,-1.060184996140499
63107.67799898515,4.6912991023709765,PPG_1,PPG_2,185793.0,185793.0,43.36749959469307,-105.24806247423106,-1.060662402676575
63107.688001755094,4.7013018723155255,PPG_1,PPG_2,185805.0,185805.0,55.3336769657617,-105.2597308638368,-1.0607799685976773
63107.69800452503,4.711304642252799,PPG_1,PPG_2,185796.0,185796.0,46.299854336859426,-105.19362290843398,-1.060113891878289
63107.708007294976,4.721307412197348,PPG_1,PPG_2,185776.0,185776.0,26.26603170792805,-104.99721975643175,-1.0581350140508623
63107.71801006491,4.731310182134621,PPG_1,PPG_2,185774.0,185774.0,24.232209078996675,-104.61518975672712,-1.0542858360304466
63107.72801283486,4.74131295207917,PPG_1,PPG_2,185808.0,185808.0,58.198386450094404,-103.9969130531232,-1.048056332850363
63107.738015604795,4.751315722016443,PPG_1,PPG_2,185804.0,185804.0,54.16456382116303,-103.10060760140381,-1.0390255257226386
63107.74801837474,4.761318491960992,PPG_1,PPG_2,185805.0,185805.0,55.13074119223165,-101.89420440004587,-1.0268703005046806
63107.75802114468,4.771321261898265,PPG_1,PPG_2,185779.0,185779.0,29.096918563329382,-100.35597489789433,-1.0113717292023887
63107.76802391462,4.781324031842814,PPG_1,PPG_2,185799.0,185799.0,49.06309593439801,-98.47640547745439,-0.9924339564971125
63107.778026684566,4.791326801787363,PPG_1,PPG_2,185804.0,185804.0,54.029273305495735,-96.25940171722807,-0.9700963334003921
63107.7880294545,4.8013295717246365,PPG_1,PPG_2,185813.0,185813.0,62.99545067656436,-93.72031593128754,-0.9445135435494675
63107.79803222445,4.8113323416691856,PPG_1,PPG_2,185830.0,185830.0,79.96162804763298,-90.88090031075396,-0.9159047531250682
63107.808034994385,4.821335111606459,PPG_1,PPG_2,185793.0,185793.0,42.92780541873071,-87.7636701690634,-0.8844968172162397
63107.81803776433,4.831337881551008,PPG_1,PPG_2,185838.0,185838.0,87.89398278979934,-84.3878706273142,-0.8504836417915949
63107.82804053427,4.841340651488281,PPG_1,PPG_2,185803.0,185803.0,52.86016016086796,-80.76713759068639,-0.8140026166544161
63107.83804330421,4.85134342143283,PPG_1,PPG_2,185829.0,185829.0,78.82633753196569,-76.90753459843305,-0.7751148355461295
63107.84804607415,4.861346191370103,PPG_1,PPG_2,185861.0,185861.0,110.79251490303432,-72.80494376119029,-0.7337788082977895
63107.85804884409,4.871348961314652,PPG_1,PPG_2,185847.0,185847.0,96.75869227410294,-68.44252920121207,-0.6898249034913803
63107.86805161403,4.881351731251925,PPG_1,PPG_2,185833.0,185833.0,82.72486964520067,-63.79113613655802,-0.6429593694688603
63107.878054383975,4.891354501196474,PPG_1,PPG_2,185865.0,185865.0,114.6910470162693,-58.815141411168,-0.5928232818802293
63107.88805715391,4.901357271133747,PPG_1,PPG_2,185834.0,185834.0,83.65722438733792,-53.483068253805875,-0.5390994936530336
63107.89805992386,4.9113600410782965,PPG_1,PPG_2,185863.0,185863.0,112.62340175843565,-47.7800105013629,-0.4816378163846577
63107.908062693794,4.92136281101557,PPG_1,PPG_2,185855.0,185855.0,104.58957912950427,-41.71886300382546,-0.4205681733093567
63107.91806546374,4.931365580960119,PPG_1,PPG_2,185851.0,185851.0,100.5557565005729,-35.34777208863495,-0.35637566712978336
63107.92806823368,4.941368350897392,PPG_1,PPG_2,185866.0,185866.0,115.52193387167063,-28.751380237285495,-0.28991312086929344
63107.93807100362,4.951371120841941,PPG_1,PPG_2,185898.0,185898.0,147.48811124273925,-22.043742612746065,-0.22232970769950816
63107.94807377356,4.961373890779214,PPG_1,PPG_2,185905.0,185905.0,154.45428861380788,-15.352620065041183,-0.15491269368896735
63107.9580765435,4.971376660723763,PPG_1,PPG_2,185941.0,185941.0,190.4204659849056,-8.798647221119873,-0.08887754399724555
63107.96807931345,4.981379430668312,PPG_1,PPG_2,185903.0,185903.0,152.38664335597423,-2.4759116470281137,-0.025172246456446522
63107.978082083384,4.991382200605585,PPG_1,PPG_2,185918.0,185918.0,167.35282072704285,3.560279191517975,0.0356459435305452
63107.98808485333,5.001384970550134,PPG_1,PPG_2,185958.0,185958.0,207.31899809814058,9.29666625441919,0.09344343329885742
63107.998087623266,5.011387740487407,PPG_1,PPG_2,185921.0,185921.0,170.2851754692092,14.757518798998575,0.14846474995874823
63108.00809039321,5.0213905104319565,PPG_1,PPG_2,185909.0,185909.0,158.25135284027783,19.993464450254166,0.20121999675215926
63108.01809316315,5.03139328036923,PPG_1,PPG_2,185945.0,185945.0,194.21753021137556,25.06564952534477,0.25232525896092445
63108.02809593309,5.041396050313779,PPG_1,PPG_2,185919.0,185919.0,168.18370758244419,30.02998034722044,0.30234382582847497
63108.03809870303,5.051398820251052,PPG_1,PPG_2,185930.0,185930.0,179.1498849535128,34.92662111243663,0.3516803753714807
63108.048101472974,5.061401590195601,PPG_1,PPG_2,185978.0,185978.0,227.11606232461054,39.77764162206537,0.4005572738786288
63108.05810424291,5.071404360132874,PPG_1,PPG_2,185965.0,185965.0,214.08223969567916,44.592944022105364,0.4490742913228601
63108.068107012856,5.081407130077423,PPG_1,PPG_2,185966.0,185966.0,215.0484170667478,49.38137435802334,0.497320556840118
63108.07810978279,5.091409900014696,PPG_1,PPG_2,185957.0,185957.0,206.01459443784552,54.162521847324136,0.5454934433736662
63108.08811255274,5.101412669959245,PPG_1,PPG_2,186011.0,186011.0,259.98077180891414,58.97707924101806,0.5940029544386745
63108.098115322675,5.111415439896518,PPG_1,PPG_2,185996.0,185996.0,244.94694917998277,63.89550194423129,0.6435589698797644
63108.10811809262,5.121418209841067,PPG_1,PPG_2,186001.0,186001.0,249.9131265510805,69.02284452479891,0.6952199765533813
63108.11812086256,5.1314209797783406,PPG_1,PPG_2,186037.0,186037.0,285.8793039221491,74.49579024380144,0.7503631390924507
63108.1281236325,5.14142374972289,PPG_1,PPG_2,186000.0,186000.0,248.84548129324685,80.46893285825804,0.8105460809612864
63108.13812640244,5.151426519660163,PPG_1,PPG_2,185971.0,185971.0,219.81165866431547,87.0900106116899,0.8772573522742152
63108.14812917238,5.161429289604712,PPG_1,PPG_2,185996.0,185996.0,244.7778360353841,94.46813380019653,0.9515963037468143
63108.15813194233,5.171432059549261,PPG_1,PPG_2,185992.0,185992.0,240.74401340648183,102.64412810199238,1.033974278214393
63108.168134712265,5.181434829486534,PPG_1,PPG_2,186048.0,186048.0,296.71019077755045,111.5726347031979,1.123934258820808
63108.17813748221,5.191437599431083,PPG_1,PPG_2,186063.0,186063.0,311.6763681486191,121.11973063358124,1.2201268924947204
63108.18814025215,5.201440369368356,PPG_1,PPG_2,186063.0,186063.0,311.6425455197168,131.0723806027463,1.320405722785067
63108.19814302209,5.211443139312905,PPG_1,PPG_2,186087.0,186087.0,335.60872289078543,141.15234024804764,1.4219672733003927
63108.20814579203,5.221445909250178,PPG_1,PPG_2,186070.0,186070.0,318.57490026185405,151.02860998561195,1.521476527617912
63108.21814856197,5.2314486791947274,PPG_1,PPG_2,186093.0,186093.0,341.5410776329518,160.32647449485268,1.6151580074321776
63108.22815133191,5.241451449132001,PPG_1,PPG_2,186070.0,186070.0,318.5072550040204,168.63440885896037,1.698865356001936
63108.238154101855,5.25145421907655,PPG_1,PPG_2,186070.0,186070.0,318.47343237508903,175.51222221294208,1.768163390216885
63108.24815687179,5.261456989013823,PPG_1,PPG_2,186105.0,186105.0,353.43960974618676,180.505156651905,1.8184701554308527
63108.25815964174,5.271459758958372,PPG_1,PPG_2,186117.0,186117.0,365.4057871172554,183.1678974832376,1.8452988429421826
63108.268162411674,5.281462528895645,PPG_1,PPG_2,186111.0,186111.0,359.371964488324,183.09831464827343,1.8445977547576178
63108.27816518162,5.291465298840194,PPG_1,PPG_2,186130.0,186130.0,378.33814185942174,179.9760112820031,1.8131387031129564
63108.28816795155,5.301468068777467,PPG_1,PPG_2,186102.0,186102.0,350.30431923049036,173.5992934847252,1.7488895027709586
63108.2981707215,5.311470838722016,PPG_1,PPG_2,186122.0,186122.0,370.270496601559,163.91551695616903,1.6513197312944892
63108.30817349144,5.321473608659289,PPG_1,PPG_2,186109.0,186109.0,357.2366739726567,151.04113662435958,1.5216027409063302
63108.31817626138,5.331476378603838,PPG_1,PPG_2,186090.0,186090.0,338.20285134372534,135.26804789384147,1.36267955031261
63108.32817903132,5.3414791485411115,PPG_1,PPG_2,186049.0,186049.0,297.16902871479397,117.05310887259087,1.1791532749467506
63108.338181801264,5.351481918485661,PPG_1,PPG_2,186022.0,186022.0,270.1352060858917,96.99026207460717,0.9770082366474674
63108.3481845712,5.361484688422934,PPG_1,PPG_2,186003.0,186003.0,251.10138345696032,75.76912336915292,0.7631927228491182
63108.358187341146,5.371487458367483,PPG_1,PPG_2,186008.0,186008.0,256.06756082802895,54.126609886158114,0.5451316091415453
63108.36819011109,5.381490228312032,PPG_1,PPG_2,185937.0,185937.0,185.03373819912667,32.79695551291509,0.3302227358592649
63108.37819288103,5.391492998249305,PPG_1,PPG_2,185947.0,185947.0,194.9999155701953,12.463097609021249,0.12534710050486986
63108.38819565097,5.401495768193854,PPG_1,PPG_2,185916.0,185916.0,163.96609294126392,-6.2876084198732105,-0.06357734409241422
63108.39819842091,5.411498538131127,PPG_1,PPG_2,185873.0,185873.0,120.93227031236165,-22.99926228994198,-0.2319571331435333
63108.408201190854,5.421501308075676,PPG_1,PPG_2,185915.0,185915.0,162.89844768343028,-37.37093350169076,-0.37676021402114973
63108.41820396079,5.431504078012949,PPG_1,PPG_2,185871.0,185871.0,118.8646250544989,-49.26537532979885,-0.49660374485711994
63108.428206730736,5.441506847957498,PPG_1,PPG_2,185876.0,185876.0,123.83080242559663,-58.70318271351915,-0.5916952318356842
63108.43820950067,5.4515096178947715,PPG_1,PPG_2,185846.0,185846.0,93.79697979666525,-65.84482071381895,-0.6636514552782767
63108.44821227062,5.461512387839321,PPG_1,PPG_2,185900.0,185900.0,147.76315716773388,-70.96264996096498,-0.7152166094954489
63108.458215040555,5.471515157776594,PPG_1,PPG_2,185859.0,185859.0,106.72933453883161,-74.40485259989458,-0.749898835367315
63108.4682178105,5.481517927721143,PPG_1,PPG_2,185865.0,185865.0,112.69551190990023,-76.55517726327784,-0.7715646271571016
63108.47822058044,5.491520697658416,PPG_1,PPG_2,185897.0,185897.0,144.66168928099796,-77.79359107799951,-0.7840423782224406
63108.48822335038,5.501523467602965,PPG_1,PPG_2,185855.0,185855.0,102.62786665206659,-78.46185122222339,-0.7907754941061543
63108.49822612032,5.511526237540238,PPG_1,PPG_2,185880.0,185880.0,127.59404402313521,-78.83702546481896,-0.7945555963220577
63108.50822889026,5.521529007484787,PPG_1,PPG_2,185873.0,185873.0,120.56022139423294,-79.11507690494523,-0.7973571289051178
63108.5182316602,5.53153177742206,PPG_1,PPG_2,185895.0,185895.0,142.52639876530156,-79.40529297130081,-0.8002812272865306
63108.528234430145,5.541534547366609,PPG_1,PPG_2,185881.0,185881.0,128.4925761363702,-79.73638281762328,-0.8036171531568356
63108.53823720008,5.5515373173038824,PPG_1,PPG_2,185834.0,185834.0,81.45875350746792,-80.07551893216859,-0.8070341499346967
63108.54823997003,5.5615400872484315,PPG_1,PPG_2,185837.0,185837.0,84.42493087853654,-80.35875299004987,-0.8098879004544797
63108.55824273997,5.571542857192981,PPG_1,PPG_2,185819.0,185819.0,66.39110824960517,-80.52543142910724,-0.8115672842321748
63108.56824550991,5.581545627130254,PPG_1,PPG_2,185854.0,185854.0,101.3572856207029,-80.5458605640513,-0.811773119840016
63108.57824827985,5.591548397074803,PPG_1,PPG_2,185869.0,185869.0,116.32346299177152,-80.43434253807109,-0.8106495098229622
63108.58825104979,5.601551167012076,PPG_1,PPG_2,185861.0,185861.0,108.28964036284015,-80.24670393158208,-0.8087589399712821
63108.598253819735,5.611553936956625,PPG_1,PPG_2,185852.0,185852.0,99.25581773393787,-80.06700580789244,-0.8069483751764993
63108.60825658967,5.621556706893898,PPG_1,PPG_2,185895.0,185895.0,142.2219951050065,-79.98881886058314,-0.8061605954751694
63108.61825935962,5.631559476838447,PPG_1,PPG_2,185892.0,185892.0,139.18817247607512,-80.09493389604917,-0.8072297671697151
63108.628262129554,5.64156224677572,PPG_1,PPG_2,185871.0,185871.0,118.15434984717285,-80.43991205636105,-0.8107056260112265
63108.6382648995,5.651565016720269,PPG_1,PPG_2,185869.0,185869.0,116.12052721824148,-81.04050447215776,-0.8167569495405318
63108.64826766944,5.6615677866575425,PPG_1,PPG_2,185853.0,185853.0,100.0867045893101,-81.87580406166929,-0.8251730865530594
63108.65827043938,5.6715705566020915,PPG_1,PPG_2,185886.0,185886.0,133.05288196040783,-82.89450419825117,-0.8354370924640014
63108.66827320932,5.681573326539365,PPG_1,PPG_2,185842.0,185842.0,89.01905933147646,-84.0254955665514,-0.8468324988967608
63108.67827597926,5.691576096483914,PPG_1,PPG_2,185829.0,185829.0,75.98523670254508,-85.1892757611192,-0.8585582721318183
63108.6882787492,5.701578866421187,PPG_1,PPG_2,185873.0,185873.0,119.95141407364281,-86.30732863839951,-0.8698233156211184
63108.698281519144,5.711581636365736,PPG_1,PPG_2,185894.0,185894.0,140.91759144471143,-87.30610013534219,-0.8798865287102001
63108.70828428908,5.721584406303009,PPG_1,PPG_2,185849.0,185849.0,95.88376881578006,-88.11582892279253,-0.8880450247800415
63108.718287059026,5.731587176247558,PPG_1,PPG_2,185851.0,185851.0,97.84994618687779,-88.6689108461062,-0.8936176520196674
63108.72828982896,5.741589946184831,PPG_1,PPG_2,185845.0,185845.0,91.81612355794641,-88.90067130721448,-0.8959527756319207
63108.73829259891,5.75159271612938,PPG_1,PPG_2,185882.0,185882.0,128.78230092901504,-88.7502464219992,-0.8944371560147651
63108.74829536885,5.761595486073929,PPG_1,PPG_2,185869.0,185869.0,115.74847830011277,-88.15877158195113,-0.8884776974494636
63108.75829813879,5.7715982560112025,PPG_1,PPG_2,185842.0,185842.0,88.71465567118139,-87.06586834155338,-0.8774660514147734
63108.768300908734,5.7816010259557515,PPG_1,PPG_2,185901.0,185901.0,147.68083304225001,-85.40705164483276,-0.8607524928621666
63108.77830367867,5.791603795893025,PPG_1,PPG_2,185879.0,185879.0,125.64701041334774,-83.11330594425823,-0.8376416493632244
63108.788306448616,5.801606565837574,PPG_1,PPG_2,185880.0,185880.0,126.61318778441637,-80.11408442438979,-0.8074227200603913
63108.79830921855,5.811609335774847,PPG_1,PPG_2,185854.0,185854.0,100.579365155485,-76.34573292519137,-0.7694543516727516
63108.8083119885,5.821612105719396,PPG_1,PPG_2,185871.0,185871.0,117.54554252658272,-71.76470821726306,-0.7232978204307746
63108.818314758435,5.831614875656669,PPG_1,PPG_2,185889.0,185889.0,135.51171989765135,-66.36098033157903,-0.6688520684689802
63108.82831752838,5.841617645601218,PPG_1,PPG_2,185900.0,185900.0,146.47789726874908,-60.16698545482834,-0.6064439095375087
63108.83832029832,5.851620415538491,PPG_1,PPG_2,185884.0,185884.0,130.4440746398177,-53.26111640202514,-0.5368631975764806
63108.84832306826,5.86162318548304,PPG_1,PPG_2,185892.0,185892.0,138.41025201088632,-45.76694712564418,-0.461355013187235
63108.8583258382,5.871625955420313,PPG_1,PPG_2,185915.0,185915.0,161.37642938198405,-37.84801800108808,-0.38156712230160167
63108.86832860814,5.8816287253648625,PPG_1,PPG_2,185949.0,185949.0,195.34260675305268,-29.696732344317564,-0.29943810203505256
63108.87833137808,5.891631495302136,PPG_1,PPG_2,185956.0,185956.0,202.3087841241213,-21.51839859227515,-0.2170365562236635
63108.888334148025,5.901634265246685,PPG_1,PPG_2,185925.0,185925.0,171.27496149521903,-13.515286755230543,-0.136400474759122
63108.89833691796,5.911637035183958,PPG_1,PPG_2,185913.0,185913.0,159.24113886628766,-5.875000083075087,-0.05942007125449162
63108.90833968791,5.921639805128507,PPG_1,PPG_2,185972.0,185972.0,218.20731623735628,1.2381821158116701,0.012249443171958063
63108.91834245784,5.93164257506578,PPG_1,PPG_2,185996.0,185996.0,242.173493608454,7.693801395532652,0.07729362257903688
63108.92834522779,5.941645345010329,PPG_1,PPG_2,185995.0,185995.0,241.13967097952263,13.407975130823688,0.13486729994396848
63108.938347997726,5.951648114947602,PPG_1,PPG_2,185964.0,185964.0,210.10584835059126,18.352183094074633,0.18468311711859925
63108.94835076767,5.961650884892151,PPG_1,PPG_2,185974.0,185974.0,220.072025721689,22.552313102441083,0.22700190916004234
63108.958353537615,5.9716536548367,PPG_1,PPG_2,185982.0,185982.0,228.0382030927576,26.078872861668426,0.2625340828725668
63108.96835630755,5.981656424773973,PPG_1,PPG_2,185950.0,185950.0,196.00438046382624,29.033930728799206,0.2923080372740819
63108.9783590775,5.9916591947185225,PPG_1,PPG_2,186006.0,186006.0,251.97055783492397,31.540084727081172,0.31755901990220636
63108.988361847434,6.001661964655796,PPG_1,PPG_2,186005.0,186005.0,250.9367352059926,33.73424947185959,0.33966652642081
63108.99836461738,6.011664734600345,PPG_1,PPG_2,185981.0,185981.0,226.90291257706122,35.76560688601419,0.3601336528669473
63109.00836738731,6.021667504537618,PPG_1,PPG_2,186034.0,186034.0,279.86908994815894,37.794297497043786,0.3805739096955639
63109.01837015726,6.031670274482167,PPG_1,PPG_2,185991.0,185991.0,236.83526731922757,39.98755016988142,0.40267222655034474
63109.0283729272,6.04167304441944,PPG_1,PPG_2,186008.0,186008.0,253.8014446902962,42.51156750129228,0.4281031928166763
63109.03837569714,6.051675814363989,PPG_1,PPG_2,185976.0,185976.0,221.76762206139392,45.51929015672548,0.45840777608435446
63109.04837846708,6.061678584301262,PPG_1,PPG_2,185990.0,185990.0,235.73379943246255,49.13705584478698,0.49485890343107375
63109.058381237024,6.071681354245811,PPG_1,PPG_2,186045.0,186045.0,290.6999768035312,53.45523940304787,0.5383671547553927
63109.06838400696,6.081684124183084,PPG_1,PPG_2,186024.0,186024.0,269.6661541746289,58.52565942386598,0.5894546329992447
63109.078386776906,6.091686894127633,PPG_1,PPG_2,186004.0,186004.0,249.63233154569753,64.36341464743487,0.648273466893185
63109.08838954684,6.1016896640649065,PPG_1,PPG_2,186044.0,186044.0,289.59850891676615,70.94926729452533,0.7146298244422707
63109.09839231679,6.111692434009456,PPG_1,PPG_2,186044.0,186044.0,289.5646862878639,78.23193666873799,0.7880070223242376
63109.108395086725,6.121695203946729,PPG_1,PPG_2,186053.0,186053.0,298.5308636589325,86.13142357366777,0.8675990213571065
63109.11839785667,6.131697973891278,PPG_1,PPG_2,186071.0,186071.0,316.4970410300011,94.54265096485219,0.952347108219128
63109.12840062661,6.141700743828551,PPG_1,PPG_2,186062.0,186062.0,307.46321840109886,103.33747420099908,1.0409601499179268
63109.13840339655,6.1517035137731,PPG_1,PPG_2,186064.0,186064.0,309.4293957721675,112.36417495307363,1.1319094946254615
63109.148406166496,6.161706283717649,PPG_1,PPG_2,186093.0,186093.0,338.3955731432361,121.44545842357796,1.2234087924786572
63109.15840893643,6.171709053654922,PPG_1,PPG_2,186115.0,186115.0,360.36175051433383,130.37686995370672,1.3133980419607385
63109.16841170638,6.181711823599471,PPG_1,PPG_2,186089.0,186089.0,334.32792788540246,138.92605520102958,1.3995361357541591
63109.178414476315,6.191714593536744,PPG_1,PPG_2,186112.0,186112.0,357.2941052565002,146.83155573799172,1.4791887256837108
63109.18841724626,6.201717363481293,PPG_1,PPG_2,186116.0,186116.0,361.2602826275688,153.80097739138583,1.549409767654225
63109.1984200162,6.2117201334185665,PPG_1,PPG_2,186083.0,186083.0,328.22645999863744,159.51079488908533,1.6069395533509576
63109.20842278614,6.221722903363116,PPG_1,PPG_2,186104.0,186104.0,349.19263736973517,163.611382187544,1.6482553937619897
63109.21842555608,6.231725673300389,PPG_1,PPG_2,186139.0,186139.0,384.1588147408038,165.7413946249702,1.6697165278710706
63109.22842832602,6.241728443244938,PPG_1,PPG_2,186138.0,186138.0,383.1249921118724,165.55378329321115,1.6678262328284137
63109.23843109596,6.251731213182211,PPG_1,PPG_2,186123.0,186123.0,368.09116948297014,162.75053964611982,1.6395818964134812
63109.248433865905,6.26173398312676,PPG_1,PPG_2,186148.0,186148.0,393.05734685403877,157.11950115152231,1.5828458557300848
63109.25843663584,6.271736753064033,PPG_1,PPG_2,186142.0,186142.0,387.0235242251074,148.5670328627867,1.496674683354208
63109.26843940579,6.281739523008582,PPG_1,PPG_2,186127.0,186127.0,371.9897015962051,137.1415001200195,1.381555688670537
63109.27844217573,6.291742292945855,PPG_1,PPG_2,186093.0,186093.0,337.95587896727375,123.04264915419928,1.23950143300289
63109.28844494567,6.301745062890404,PPG_1,PPG_2,186080.0,186080.0,324.9220563383424,106.61424618110011,1.0739755641353204
63109.298447715606,6.3117478328276775,PPG_1,PPG_2,186060.0,186060.0,304.8882337094401,88.3215388499708,0.889665727087652
63109.30845048555,6.321750602772227,PPG_1,PPG_2,186027.0,186027.0,271.8544110805087,68.71780402387724,0.6921465132327203
63109.31845325549,6.3317533727095,PPG_1,PPG_2,185972.0,185972.0,216.82058845157735,48.40484668064662,0.48748146337889164
63109.32845602543,6.341756142654049,PPG_1,PPG_2,186026.0,186026.0,270.7867658226751,27.992994261201282,0.2818199871868505
63109.33845879538,6.351758912598598,PPG_1,PPG_2,185960.0,185960.0,204.7529431937437,8.065876661828051,0.08104250077727236
63109.348461565314,6.361761682535871,PPG_1,PPG_2,185946.0,185946.0,190.71912056481233,-10.847971070178446,-0.10952569289290538
63109.35846433526,6.37176445248042,PPG_1,PPG_2,185936.0,185936.0,180.68529793591006,-28.297417464686365,-0.28533917765089023
63109.3684671052,6.381767222417693,PPG_1,PPG_2,185929.0,185929.0,173.65147530697868,-43.92488751470552,-0.4427951739803593
63109.37846987514,6.391769992362242,PPG_1,PPG_2,185902.0,185902.0,146.6176526780473,-57.47547234837433,-0.5793253243503932
63109.38847264508,6.401772762299515,PPG_1,PPG_2,185909.0,185909.0,153.58383004914504,-68.79940427737176,-0.6934206307909383
63109.39847541502,6.411775532244064,PPG_1,PPG_2,185888.0,185888.0,132.55000742021366,-77.84921589966848,-0.7846028311741022
63109.40847818496,6.4217783021813375,PPG_1,PPG_2,185872.0,185872.0,116.51618479128229,-84.67259966263319,-0.8533524550925696
63109.418480954904,6.431781072125887,PPG_1,PPG_2,185879.0,185879.0,123.48236216238001,-89.40127184072193,-0.9009966218536182
63109.42848372484,6.44178384206316,PPG_1,PPG_2,185889.0,185889.0,133.44853953344864,-92.23551332141193,-0.9295532797612623
63109.438486494786,6.451786612007709,PPG_1,PPG_2,185895.0,185895.0,139.41471690451726,-93.42493184291406,-0.9415373742920091
63109.44848926472,6.461789381944982,PPG_1,PPG_2,185878.0,185878.0,122.38089427561499,-93.24837921172566,-0.9397585021931101
63109.45849203467,6.471792151889531,PPG_1,PPG_2,185879.0,185879.0,123.34707164668362,-91.99686306633843,-0.9271487374030556
63109.468494804605,6.481794921826804,PPG_1,PPG_2,185875.0,185875.0,119.31324901775224,-89.96111519348975,-0.9066373744908871
63109.47849757455,6.491797691771353,PPG_1,PPG_2,185879.0,185879.0,123.27942638884997,-87.42255640716499,-0.8810598944725393
63109.48850034449,6.501800461708626,PPG_1,PPG_2,185901.0,185901.0,145.2456037599186,-84.64551231249818,-0.8530795340317849
63109.49850311443,6.511803231653175,PPG_1,PPG_2,185889.0,185889.0,133.21178113098722,-81.86990871161689,-0.8251136874172275
63109.50850588437,6.521806001590448,PPG_1,PPG_2,185887.0,185887.0,131.17795850208495,-79.30544904744205,-0.7992752407475511
63109.51850865431,6.5318087715349975,PPG_1,PPG_2,185902.0,185902.0,146.14413587315357,-77.1283781172881,-0.7773399645134498
63109.52851142426,6.541811541479547,PPG_1,PPG_2,185865.0,185865.0,109.1103132442222,-75.48042105976774,-0.7607358232436522
63109.538514194195,6.55181431141682,PPG_1,PPG_2,185874.0,185874.0,118.07649061531993,-74.46779134110653,-0.7505329803807773
63109.54851696414,6.561817081361369,PPG_1,PPG_2,185928.0,185928.0,172.04266798638855,-74.15709997325084,-0.7474025812361874
63109.55851973408,6.571819851298642,PPG_1,PPG_2,185926.0,185926.0,170.00884535748628,-74.56669686125987,-0.7515295119478437
63109.56852250402,6.581822621243191,PPG_1,PPG_2,185896.0,185896.0,139.9750227285549,-75.65730022785358,-0.7625179853947709
63109.57852527396,6.591825391180464,PPG_1,PPG_2,185918.0,185918.0,161.94120009962353,-77.32904492359528,-0.7793618011777479
63109.5885280439,6.601828161125013,PPG_1,PPG_2,185901.0,185901.0,144.90737747072126,-79.42906546688666,-0.8005207492287084
63109.59853081384,6.611830931062286,PPG_1,PPG_2,185872.0,185872.0,115.87355484178988,-81.76893790760876,-0.8240963468947756
63109.608533583785,6.621833701006835,PPG_1,PPG_2,185857.0,185857.0,100.83973221285851,-84.1484581683493,-0.8480714197787322
63109.61853635372,6.631836470944108,PPG_1,PPG_2,185870.0,185870.0,113.80590958395624,-86.37968338515128,-0.8705523324550974
63109.62853912367,6.6418392408886575,PPG_1,PPG_2,185881.0,185881.0,124.77208695502486,-88.30390761766093,-0.8899400287822289
63109.6385418936,6.651842010825931,PPG_1,PPG_2,185893.0,185893.0,136.73826432609349,-89.79739080940122,-0.9049877545628006
63109.64854466355,6.66184478077048,PPG_1,PPG_2,185875.0,185875.0,118.70444169719121,-90.76725526206033,-0.9147597120971417
63109.658547433486,6.671847550707753,PPG_1,PPG_2,185920.0,185920.0,163.67061906825984,-91.1422644915351,-0.9185381517083329
63109.66855020343,6.681850320652302,PPG_1,PPG_2,185889.0,185889.0,132.63679643932846,-90.86344632903622,-0.9157288939442485
63109.67855297337,6.691853090589575,PPG_1,PPG_2,185895.0,185895.0,138.6029738104262,-89.87887823086233,-0.9058087884917353
63109.68855574331,6.701855860534124,PPG_1,PPG_2,185884.0,185884.0,127.56915118149482,-88.14537603187284,-0.888342729365877
63109.69855851325,6.711858630471397,PPG_1,PPG_2,185871.0,185871.0,114.53532855256344,-85.63654775777078,-0.8630648018284124
63109.708561283194,6.721861400415946,PPG_1,PPG_2,185899.0,185899.0,142.50150592366117,-82.35360610268938,-0.829987224489416
63109.71856405313,6.731864170353219,PPG_1,PPG_2,185897.0,185897.0,140.4676832947298,-78.33482966355469,-0.7894956768349334
63109.72856682307,6.7418669402977685,PPG_1,PPG_2,185850.0,185850.0,93.43386066579842,-73.6612184862181,-0.7424062821966009
63109.73856959302,6.7518697102423175,PPG_1,PPG_2,185923.0,185923.0,166.40003803689615,-68.45671593203362,-0.6899678431885299
63109.74857236296,6.761872480179591,PPG_1,PPG_2,185895.0,185895.0,138.36621540796477,-62.880682737215686,-0.6337860134076324
63109.7585751329,6.77187525012414,PPG_1,PPG_2,185927.0,185927.0,170.3323927790334,-57.11161706672009,-0.5756592673552919
63109.76857790284,6.781878020061413,PPG_1,PPG_2,185953.0,185953.0,196.29857015013113,-51.32486015246224,-0.5173542715668151
63109.778580672784,6.791880790005962,PPG_1,PPG_2,185939.0,185939.0,182.26474752119975,-45.66970247380347,-0.46037521584996394
63109.78858344272,6.801883559943235,PPG_1,PPG_2,185946.0,185946.0,189.23092489226838,-40.25166873934805,-0.40578532400727846
63109.798586212666,6.811886329887784,PPG_1,PPG_2,185941.0,185941.0,184.1971022633661,-35.123871826750225,-0.3541197396699547
63109.8085889826,6.821889099825057,PPG_1,PPG_2,185936.0,185936.0,179.16327963443473,-30.287670939739677,-0.30539215761883604
63109.81859175255,6.831891869769606,PPG_1,PPG_2,185976.0,185976.0,219.12945700550335,-25.70007175821771,-0.2591693846699982
63109.828594522485,6.841894639706879,PPG_1,PPG_2,185942.0,185942.0,185.09563437660108,-21.285318774995478,-0.21468813931826577
63109.83859729243,6.8518974096514285,PPG_1,PPG_2,185957.0,185957.0,200.0618117476697,-16.94962742282816,-0.17100348662352385
63109.84860006237,6.861900179588702,PPG_1,PPG_2,185944.0,185944.0,187.02798911873833,-12.598022632604518,-0.12715849663578657
63109.85860283231,6.871902949533251,PPG_1,PPG_2,185945.0,185945.0,187.99416648983606,-8.150270286015845,-0.08234476319606096
63109.86860560225,6.881905719470524,PPG_1,PPG_2,186000.0,186000.0,242.9603438609047,-3.5518035521274016,-0.03601249323458777
63109.87860837219,6.891908489415073,PPG_1,PPG_2,185970.0,185970.0,212.9265212319733,1.222305246920035,0.012089474334908736
63109.88861114213,6.901911259352346,PPG_1,PPG_2,185975.0,185975.0,217.89269860307104,6.16848309478525,0.061925139261197436
63109.898613912075,6.911914029296895,PPG_1,PPG_2,186002.0,186002.0,244.85887597413966,11.257798303445579,0.11320299768930236
63109.90861668201,6.921916799234168,PPG_1,PPG_2,185962.0,185962.0,204.8250533452374,16.44002955426318,0.16541704015398115
63109.91861945196,6.931919569178717,PPG_1,PPG_2,186008.0,186008.0,250.79123071630602,21.649499376335584,0.21790552732159577
63109.9286222219,6.941922339123266,PPG_1,PPG_2,186010.0,186010.0,252.75740808737464,26.81369753710455,0.2699378757467775
63109.93862499184,6.951925109060539,PPG_1,PPG_2,185995.0,185995.0,237.72358545847237,31.864582466889487,0.3208285264035557
63109.94862776178,6.9619278790050885,PPG_1,PPG_2,186040.0,186040.0,282.689762829541,36.75080862573895,0.3700601426325571
63109.95863053172,6.971930648942362,PPG_1,PPG_2,186019.0,186019.0,261.6559402006096,41.44846599776562,0.4173918168932944
63109.968633301665,6.981933418886911,PPG_1,PPG_2,186009.0,186009.0,251.62211757170735,45.96822538373832,0.4629310638097797
63109.9786360716,6.991936188824184,PPG_1,PPG_2,186071.0,186071.0,313.588294942776,50.35758558144404,0.5071564618407184
63109.98863884155,7.001938958768733,PPG_1,PPG_2,186014.0,186014.0,256.5544723138446,54.69780320726073,0.5508867194174304
63109.99864161149,7.011941728706006,PPG_1,PPG_2,186009.0,186009.0,251.52064968494233,59.09534064085224,0.595194507932529
63110.00864438143,7.021944498650555,PPG_1,PPG_2,186061.0,186061.0,303.48682705601095,63.66910825212507,0.6412779196368783
63110.018647151366,7.031947268587828,PPG_1,PPG_2,186018.0,186018.0,260.4530044270796,68.53724133369279,0.6903272374195577
63110.02864992131,7.041950038532377,PPG_1,PPG_2,186071.0,186071.0,313.4191817981773,73.8065318201924,0.7434184531342967
63110.03865269125,7.05195280846965,PPG_1,PPG_2,186070.0,186070.0,312.38535916924593,79.56443986676415,0.8014327795316337
63110.04865546119,7.061955578414199,PPG_1,PPG_2,186059.0,186059.0,301.35153654031456,85.87149872920801,0.8649801249379038
63110.05865823113,7.0719583483514725,PPG_1,PPG_2,186076.0,186076.0,318.3177139114123,92.75173100221755,0.9343025311915991
63110.068661001074,7.081961118296022,PPG_1,PPG_2,186074.0,186074.0,316.2838912824809,100.18036638317142,1.009150422854972
63110.07866377101,7.091963888233295,PPG_1,PPG_2,186083.0,186083.0,325.25006865354953,108.0703890999455,1.088647064598994
63110.08866654096,7.101966658177844,PPG_1,PPG_2,186090.0,186090.0,332.21624602464726,116.26017496100724,1.1711639971767591
63110.09866931089,7.111969428115117,PPG_1,PPG_2,186078.0,186078.0,320.1824233957159,124.50425222603525,1.2542279477348035
63110.10867208084,7.121972198059666,PPG_1,PPG_2,186110.0,186110.0,352.1486007667845,132.46939919823134,1.3344815107493908
63110.11867485078,7.131974968004215,PPG_1,PPG_2,186098.0,186098.0,340.11477813788224,139.73842263869037,1.4077212177842693
63110.12867762072,7.141977737941488,PPG_1,PPG_2,186068.0,186068.0,310.08095550895086,145.8234886536842,1.4690318540583904
63110.138680390664,7.151980507886037,PPG_1,PPG_2,186132.0,186132.0,374.0471328800195,150.19090844835043,1.513036189562292
63110.1486831606,7.16198327782331,PPG_1,PPG_2,186112.0,186112.0,354.0133102511172,152.29935213206656,1.5342800057309682
63110.158685930546,7.171986047767859,PPG_1,PPG_2,186142.0,186142.0,383.97948762218584,151.65058331532543,1.5277432764906944
63110.16868870048,7.1819888177051325,PPG_1,PPG_2,186157.0,186157.0,398.94566499325447,147.84671669448684,1.4894170722636821
63110.17869147043,7.191991587649682,PPG_1,PPG_2,186124.0,186124.0,365.9118423643522,140.64480668273777,1.4168535726859792
63110.188694240365,7.201994357586955,PPG_1,PPG_2,186157.0,186157.0,398.8780197354208,129.99953166328058,1.309596135684026
63110.19869701031,7.211997127531504,PPG_1,PPG_2,186115.0,186115.0,356.84419710648945,116.08662929180304,1.1694154219969155
63110.20869978025,7.221999897468777,PPG_1,PPG_2,186085.0,186085.0,326.8103744775872,99.30237831008122,1.0003041741422036
63110.21870255019,7.232002667413326,PPG_1,PPG_2,186045.0,186045.0,286.7765518486558,80.23801019219353,0.808219398629222
63110.22870532013,7.242005437350599,PPG_1,PPG_2,186043.0,186043.0,284.7427292197244,59.63294531914322,0.6006111927817562
63110.23870809007,7.252008207295148,PPG_1,PPG_2,186015.0,186015.0,256.70890659082215,38.314345329931726,0.38581369895155104
63110.24871086001,7.262010977232421,PPG_1,PPG_2,185984.0,185984.0,225.67508396189078,17.129884658845196,0.17236773802556646
63110.258713629955,7.27201374717697,PPG_1,PPG_2,185904.0,185904.0,145.6412613329885,-3.121098616676189,-0.03167288647044573
63110.26871639989,7.2820165171142435,PPG_1,PPG_2,185936.0,185936.0,177.60743870405713,-21.751341365344373,-0.2193835923276501
63110.27871916984,7.292019287058792,PPG_1,PPG_2,185880.0,185880.0,121.57361607512576,-38.23455453994649,-0.3854617063672816
63110.288721939774,7.302022056996066,PPG_1,PPG_2,185916.0,185916.0,157.53979344622348,-52.23088277747745,-0.526482984958183
63110.29872470972,7.312024826940615,PPG_1,PPG_2,185935.0,185935.0,176.5059708172921,-63.5863436483605,-0.6408959641213073
63110.308727479656,7.322027596877888,PPG_1,PPG_2,185883.0,185883.0,124.47214818836073,-72.3108209437246,-0.7288002288934354
63110.3187302496,7.332030366822437,PPG_1,PPG_2,185932.0,185932.0,173.43832555945846,-78.5436713112568,-0.7915998798574811
63110.328733019545,7.342033136766986,PPG_1,PPG_2,185901.0,185901.0,142.4045029305271,-82.51591378823349,-0.8316225703424222
63110.33873578948,7.352035906704259,PPG_1,PPG_2,185883.0,185883.0,124.37068030159571,-84.5153250985197,-0.8517678209124682
63110.34873855943,7.362038676648808,PPG_1,PPG_2,185885.0,185885.0,126.33685767269344,-84.85790231611587,-0.8552194888372014
63110.35874132936,7.372041446586081,PPG_1,PPG_2,185885.0,185885.0,126.30303504376207,-83.86576035467786,-0.8452230722362749
63110.36874409931,7.38204421653063,PPG_1,PPG_2,185893.0,185893.0,134.2692124148307,-81.84919439393897,-0.8249049784248044
63110.378746869246,7.392046986467904,PPG_1,PPG_2,185926.0,185926.0,167.23538978592842,-79.09168462049469,-0.7971214378148266
63110.38874963919,7.4020497564124526,PPG_1,PPG_2,185867.0,185867.0,108.20156715699704,-75.83939911155441,-0.7643527392654759
63110.39875240913,7.412052526349726,PPG_1,PPG_2,185914.0,185914.0,155.16774452806567,-72.29758135964624,-0.7286668322594715
63110.40875517907,7.422055296294275,PPG_1,PPG_2,185891.0,185891.0,132.1339218991634,-68.63390841915225,-0.6917531622140702
63110.41875794901,7.432058066231548,PPG_1,PPG_2,185884.0,185884.0,125.10009927023202,-64.9863396708843,-0.6550017514226568
63110.428760718954,7.442060836176097,PPG_1,PPG_2,185893.0,185893.0,134.06627664130065,-61.4722667668667,-0.6195953901558948
63110.43876348889,7.45206360611337,PPG_1,PPG_2,185896.0,185896.0,137.03245401239838,-58.19560862302121,-0.5865811229060511
63110.44876625883,7.462066376057919,PPG_1,PPG_2,185907.0,185907.0,147.998631383467,-55.248864616364365,-0.5568909355621645
63110.45876902877,7.472069145995192,PPG_1,PPG_2,185922.0,185922.0,162.96480875453562,-52.709254400607115,-0.5313028617709071
63110.46877179872,7.482071915939741,PPG_1,PPG_2,185920.0,185920.0,160.93098612563335,-50.63083265600687,-0.5103615343812914
63110.478774568655,7.492074685877014,PPG_1,PPG_2,185949.0,185949.0,189.89716349670198,-49.036317721027736,-0.49429585407950444
63110.4887773386,7.5020774558215635,PPG_1,PPG_2,185914.0,185914.0,154.8633408677706,-47.913017599760494,-0.4829779415060019
63110.49878010854,7.512080225758837,PPG_1,PPG_2,185909.0,185909.0,149.82951823886833,-47.21620906990993,-0.47595718376547697
63110.50878287848,7.522082995703386,PPG_1,PPG_2,185896.0,185896.0,136.79569560993696,-46.87991689443236,-0.47256884135444416
63110.518785648426,7.532085765647935,PPG_1,PPG_2,185887.0,185887.0,127.76187298100558,-46.830658972216966,-0.4720725386775092
63110.52878841836,7.542088535585208,PPG_1,PPG_2,185919.0,185919.0,159.7280503521033,-46.99774408698878,-0.473756019953366
63110.53879118831,7.552091305529757,PPG_1,PPG_2,185931.0,185931.0,171.69422772317193,-47.31596676237464,-0.47696230147220015
63110.548793958245,7.56209407546703,PPG_1,PPG_2,185911.0,185911.0,151.66040509424056,-47.721630437965,-0.4810496027442749
63110.55879672819,7.572096845411579,PPG_1,PPG_2,185904.0,185904.0,144.6265824653383,-48.14652357990019,-0.4853306522540695
63110.56879949813,7.582099615348852,PPG_1,PPG_2,185918.0,185918.0,158.5927598364069,-48.513425365814285,-0.48902740458002225
63110.57880226807,7.592102385293401,PPG_1,PPG_2,185925.0,185925.0,165.55893720747554,-48.73354911244777,-0.4912452814168368
63110.58880503801,7.602105155230674,PPG_1,PPG_2,185909.0,185909.0,149.52511457857327,-48.705830532454314,-0.49096600034218185
63110.59880780795,7.612107925175224,PPG_1,PPG_2,185908.0,185908.0,148.4912919496419,-48.31929988154063,-0.4870714756010247
63110.60881057789,7.622110695112497,PPG_1,PPG_2,185911.0,185911.0,151.45746932073962,-47.45928374913493,-0.4784063048117715
63110.618813347835,7.632113465057046,PPG_1,PPG_2,185920.0,185920.0,160.42364669180824,-46.01641613352746,-0.46386856087370376
63110.62881611777,7.642116234994319,PPG_1,PPG_2,185879.0,185879.0,119.38982406287687,-43.8969261135512,-0.4425134463390054
63110.63881888772,7.652119004938868,PPG_1,PPG_2,185936.0,185936.0,176.3560014339746,-41.03274554061686,-0.41365513438349255
63110.648821657654,7.662121774876141,PPG_1,PPG_2,185915.0,185915.0,155.32217880504322,-37.38973423588701,-0.376949642529099
63110.6588244276,7.67212454482069,PPG_1,PPG_2,185918.0,185918.0,158.28835617611185,-32.97334838339661,-0.3324519450544911
63110.668827197536,7.682127314757963,PPG_1,PPG_2,185901.0,185901.0,141.25453354720958,-27.832510172844362,-0.28065496193308576
63110.67882996748,7.692130084702512,PPG_1,PPG_2,185926.0,185926.0,166.2207109182782,-22.061253156595207,-0.22250613677722914
63110.68883273742,7.702132854639785,PPG_1,PPG_2,185935.0,185935.0,175.18688828934683,-15.795609299401567,-0.15937607202443616
63110.69883550736,7.712135624584334,PPG_1,PPG_2,185960.0,185960.0,200.15306566044455,-9.204233018518373,-0.09296406060051267
63110.70883827731,7.7221383945288835,PPG_1,PPG_2,185913.0,185913.0,153.11924303151318,-2.4745093904392412,-0.025158117892603252
63110.718841047244,7.732141164466157,PPG_1,PPG_2,185966.0,185966.0,206.0854204025818,4.203108964875622,0.04212283339885444
63110.72884381719,7.742143934410706,PPG_1,PPG_2,185975.0,185975.0,215.05159777367953,10.65163608886076,0.10709555514554826
63110.738846587126,7.752146704347979,PPG_1,PPG_2,185945.0,185945.0,185.01777514474816,16.72455172833863,0.1682837692056757
63110.74884935707,7.762149474292528,PPG_1,PPG_2,185992.0,185992.0,231.98395251581678,22.32126316647399,0.22467394450849504
63110.75885212701,7.772152244229801,PPG_1,PPG_2,185991.0,185991.0,230.9501298869145,27.39869006559102,0.2758320211921575
63110.76885489695,7.78215501417435,PPG_1,PPG_2,185980.0,185980.0,219.91630725798314,31.9770742153659,0.32196194725021254
63110.77885766689,7.792157784111623,PPG_1,PPG_2,185970.0,185970.0,209.88248462905176,36.13804839481393,0.3638862211748573
63110.788860436835,7.802160554056172,PPG_1,PPG_2,185988.0,185988.0,227.8486620001495,40.0147755300263,0.40294653814354053
63110.79886320677,7.812163323993445,PPG_1,PPG_2,186010.0,186010.0,249.8148393712181,43.776693721795716,0.4408500871568552
63110.80886597672,7.822166093937994,PPG_1,PPG_2,185995.0,185995.0,234.78101674228674,47.610898601227184,0.47948196726859815
63110.81886874665,7.832168863875268,PPG_1,PPG_2,185954.0,185954.0,193.74719411338447,51.69988103021859,0.5206808817614623
63110.8288715166,7.842171633819817,PPG_1,PPG_2,185980.0,185980.0,219.7133714844531,56.196702905721665,0.565989019704278
63110.838874286535,7.85217440375709,PPG_1,PPG_2,186012.0,186012.0,251.67954885552172,61.20298595245655,0.6164302800303539
63110.84887705648,7.862177173701639,PPG_1,PPG_2,186008.0,186008.0,247.64572622661944,66.755226926439,0.6723723891255262
63110.85887982642,7.872179943638912,PPG_1,PPG_2,185993.0,185993.0,232.61190359768807,72.81976240007427,0.7334761680622506
63110.86888259636,7.882182713583461,PPG_1,PPG_2,186030.0,186030.0,269.5780809687567,79.29336981448884,0.7987015885570564
63110.8788853663,7.892185483520734,PPG_1,PPG_2,186026.0,186026.0,265.5442583398544,86.00773664807748,0.8663528024848635
63110.88888813624,7.902188253465283,PPG_1,PPG_2,186035.0,186035.0,274.51043571092305,92.7370451424891,0.9341545624757355
63110.89889090619,7.912191023409832,PPG_1,PPG_2,186017.0,186017.0,256.4766130819917,99.20716553012065,0.9993448491149275
63110.908893676125,7.922193793347105,PPG_1,PPG_2,186070.0,186070.0,309.4427904530894,105.1053476758728,1.0587725199611726
63110.91889644607,7.9321965632916545,PPG_1,PPG_2,186014.0,186014.0,253.40896782415803,110.09050319033969,1.1090009079136274
63110.92889921601,7.942199333228928,PPG_1,PPG_2,186042.0,186042.0,281.37514519522665,113.80439897348269,1.1464206027795842
63110.93890198595,7.952202103173477,PPG_1,PPG_2,186035.0,186035.0,274.3413225663244,115.8847032162606,1.167380897450865
63110.94890475589,7.96220487311075,PPG_1,PPG_2,186010.0,186010.0,249.307499937393,115.98218330677823,1.1683630669719463
63110.95890752583,7.972207643055299,PPG_1,PPG_2,186043.0,186043.0,282.27367730849073,113.78453728167666,1.146220484496708
63110.96891029577,7.982210412992572,PPG_1,PPG_2,186059.0,186059.0,298.23985467955936,109.04776307864974,1.0984946850462451
63110.978913065715,7.992213182937121,PPG_1,PPG_2,186069.0,186069.0,308.206032050628,101.63218539037874,1.023778357353532
63110.98891583565,8.002215952874394,PPG_1,PPG_2,186040.0,186040.0,279.1722094217257,91.53510396032445,0.9220442947381293
63110.9989186056,8.012218722818943,PPG_1,PPG_2,186020.0,186020.0,259.13838679279434,78.91019872809079,0.7948409134138412
63111.008921375535,8.022221492756216,PPG_1,PPG_2,186002.0,186002.0,241.10456416386296,64.06785673253367,0.6452955462307313
63111.01892414548,8.032224262700765,PPG_1,PPG_2,185984.0,185984.0,223.0707415349607,47.45654736213274,0.47792678731570015
63111.02892691542,8.042227032638039,PPG_1,PPG_2,185932.0,185932.0,171.0369189060293,29.628867357896045,0.29830237540990984
63111.03892968536,8.052229802582588,PPG_1,PPG_2,185903.0,185903.0,142.00309627709794,11.197539062974144,0.1125958502293413
63111.0489324553,8.06223257251986,PPG_1,PPG_2,185911.0,185911.0,149.96927364819567,-7.211372084279427,-0.07288480894030647
63111.05893522524,8.07223534246441,PPG_1,PPG_2,185887.0,185887.0,125.93545101926429,-25.00025346026964,-0.2521183017371679
63111.06893799518,8.082238112401683,PPG_1,PPG_2,185874.0,185874.0,112.90162839033292,-41.632326940468396,-0.4196962713296565
63111.078940765125,8.092240882346232,PPG_1,PPG_2,185862.0,185862.0,100.86780576143065,-56.65460539192676,-0.5710546046454316
63111.08894353506,8.102243652283505,PPG_1,PPG_2,185837.0,185837.0,75.83398313249927,-69.71306415636683,-0.7026262940296436
63111.09894630501,8.112246422228054,PPG_1,PPG_2,185829.0,185829.0,67.8001605035679,-80.56093777774322,-0.8119250316783453
63111.10894907495,8.122249192172603,PPG_1,PPG_2,185835.0,185835.0,73.76633787466562,-89.06011730815771,-0.897559288321365
63111.11895184489,8.132251962109876,PPG_1,PPG_2,185842.0,185842.0,80.73251524573425,-95.17597951119699,-0.95918021439008
63111.12895461483,8.142254732054425,PPG_1,PPG_2,185796.0,185796.0,34.69869261680287,-98.96781758458646,-0.9973852238928704
63111.13895738477,8.152257501991699,PPG_1,PPG_2,185805.0,185805.0,43.6648699879006,-100.57772853666214,-1.0136060281656958
63111.148960154715,8.162260271936248,PPG_1,PPG_2,185807.0,185807.0,45.63104735896923,-100.21829800810801,-1.0099845531730338
63111.15896292465,8.17226304187352,PPG_1,PPG_2,185854.0,185854.0,92.59722473003785,-98.15723864202174,-0.9892181620078241
63111.1689656946,8.18226581181807,PPG_1,PPG_2,185799.0,185799.0,37.56340210113558,-94.69934461695466,-0.954377836147274
63111.178968464534,8.192268581755343,PPG_1,PPG_2,185823.0,185823.0,61.529579472204205,-90.16945121562641,-0.9087364830370466
63111.18897123448,8.202271351699892,PPG_1,PPG_2,185840.0,185840.0,78.49575684327283,-84.89918175389332,-0.8556354035682722
63111.198974004416,8.212274121637165,PPG_1,PPG_2,185808.0,185808.0,46.46193421437056,-79.21714482322406,-0.7983855235022234
63111.20897677436,8.222276891581714,PPG_1,PPG_2,185817.0,185817.0,55.42811158543918,-73.44110024803679,-0.7401884608606973
63111.2189795443,8.232279661518987,PPG_1,PPG_2,185830.0,185830.0,68.39428895650781,-67.87005363689762,-0.6840568738573516
63111.22898231424,8.242282431463536,PPG_1,PPG_2,185851.0,185851.0,89.36046632760554,-62.773489079454684,-0.632705973956017
63111.23898508418,8.25228520140081,PPG_1,PPG_2,185850.0,185850.0,88.32664369867416,-58.37681859709008,-0.5884069204868833
63111.24898785413,8.262287971345359,PPG_1,PPG_2,185869.0,185869.0,107.29282106974279,-54.84583168823175,-0.5528301406254545
63111.25899062406,8.272290741282632,PPG_1,PPG_2,185864.0,185864.0,102.25899844084051,-52.27479921149283,-0.5269254689847719
63111.268993394006,8.28229351122718,PPG_1,PPG_2,185847.0,185847.0,85.22517581190914,-50.68216564677014,-0.5108787446001772
63111.27899616394,8.292296281164454,PPG_1,PPG_2,185826.0,185826.0,64.19135318297776,-50.01521816589773,-0.5041588545754917
63111.28899893389,8.302299051109003,PPG_1,PPG_2,185839.0,185839.0,77.15753055407549,-50.16121429614108,-0.5056298518689843
63111.29900170383,8.312301821053552,PPG_1,PPG_2,185859.0,185859.0,97.12370792514412,-50.959721740727225,-0.5136752862778415
63111.30900447377,8.322304590990825,PPG_1,PPG_2,185850.0,185850.0,88.08988529624185,-52.21254784399922,-0.5262982496677484
63111.319007243714,8.332307360935374,PPG_1,PPG_2,185850.0,185850.0,88.05606266731047,-53.69210984860113,-0.5412057112607102
63111.32901001365,8.342310130872647,PPG_1,PPG_2,185860.0,185860.0,98.0222400383791,-55.15158720855457,-0.5559108081891467
63111.3390127836,8.352312900817196,PPG_1,PPG_2,185835.0,185835.0,72.98841740947682,-56.33939739403288,-0.5678786977839535
63111.34901555353,8.36231567075447,PPG_1,PPG_2,185817.0,185817.0,54.95459478054545,-57.0184835190859,-0.574720891822496
63111.35901832348,8.372318440699019,PPG_1,PPG_2,185809.0,185809.0,46.920772151614074,-56.98806957948608,-0.5744144534068941
63111.369021093415,8.382321210636292,PPG_1,PPG_2,185819.0,185819.0,56.8869495227118,-56.102387658541694,-0.5654906846300584
63111.37902386336,8.39232398058084,PPG_1,PPG_2,185841.0,185841.0,78.85312689378043,-54.280375469785355,-0.5471328350493635
63111.3890266333,8.402326750518114,PPG_1,PPG_2,185846.0,185846.0,83.81930426484905,-51.50403248837428,-0.5191595387390068
63111.39902940324,8.412329520462663,PPG_1,PPG_2,185842.0,185842.0,79.78548163594678,-47.80816340291362,-0.48192147350567893
63111.40903217318,8.422332290399936,PPG_1,PPG_2,185861.0,185861.0,98.7516590070154,-43.266620065731345,-0.4361627404068034
63111.41903494312,8.432335060344485,PPG_1,PPG_2,185861.0,185861.0,98.71783637808403,-37.97932804149314,-0.38289014856073794
63111.42903771306,8.442337830281758,PPG_1,PPG_2,185849.0,185849.0,86.68401374918176,-32.06277048264278,-0.3232773345679642
63111.439040483005,8.452340600226307,PPG_1,PPG_2,185848.0,185848.0,85.65019112025038,-25.64500661353997,-0.25861457079478306
63111.44904325294,8.46234337016358,PPG_1,PPG_2,185854.0,185854.0,91.61636849131901,-18.863855310174397,-0.1902904638654599
63111.45904602289,8.47234614010813,PPG_1,PPG_2,185863.0,185863.0,100.58254586241674,-11.864799230927089,-0.11977083754102089
63111.469048792824,8.482348910045403,PPG_1,PPG_2,185874.0,185874.0,111.54872323348536,-4.795527318928041,-0.04854374520521592
63111.47905156277,8.492351679989952,PPG_1,PPG_2,185873.0,185873.0,110.51490060455399,2.2038072604561925,0.021978687172691542
63111.48905433271,8.5023544499345,PPG_1,PPG_2,185916.0,185916.0,153.48107797565171,9.01355776191754,0.09059094792448125
63111.49905710265,8.512357219871774,PPG_1,PPG_2,185895.0,185895.0,132.44725534672034,15.548248567762597,0.1564318196872202
63111.509059872595,8.522359989816323,PPG_1,PPG_2,185910.0,185910.0,147.41343271778896,21.76724327707109,0.21909186670619785
63111.51906264253,8.532362759753596,PPG_1,PPG_2,185907.0,185907.0,144.3796100888867,27.679160644794397,0.27865792803109063
63111.52906541248,8.542365529698145,PPG_1,PPG_2,185886.0,185886.0,123.34578745995532,33.3392620610296,0.33568679482569125
63111.539068182414,8.552368299635418,PPG_1,PPG_2,185923.0,185923.0,160.31196483102394,38.84179994450264,0.3911281159102793
63111.54907095236,8.562371069579967,PPG_1,PPG_2,185909.0,185909.0,146.27814220212167,44.310513782092464,0.44622863974314403
63111.559073722296,8.57237383951724,PPG_1,PPG_2,185948.0,185948.0,185.2443195731903,49.88924029013103,0.5024376062464428
63111.56907649224,8.58237660946179,PPG_1,PPG_2,185921.0,185921.0,158.21049694425892,55.73194332629142,0.5613062922763176
63111.57907926218,8.592379379399063,PPG_1,PPG_2,185955.0,185955.0,192.17667431535665,61.989930170907925,0.6243592081022286
63111.58908203212,8.602382149343612,PPG_1,PPG_2,185923.0,185923.0,160.14285168642527,68.79477164194428,0.692922007471331
63111.59908480206,8.612384919280885,PPG_1,PPG_2,185921.0,185921.0,158.1090290574939,76.23769854593377,0.7679138946753407
63111.609087572,8.622387689225434,PPG_1,PPG_2,185952.0,185952.0,189.07520642859163,84.34901783639117,0.8496402301818258
63111.61909034194,8.632390459162707,PPG_1,PPG_2,185966.0,185966.0,203.04138379966025,93.08238424931369,0.937634058066676
63111.629093111886,8.642393229107256,PPG_1,PPG_2,185977.0,185977.0,214.00756117072888,102.306365003743,1.030571115387143
63111.63909588182,8.65239599904453,PPG_1,PPG_2,185988.0,185988.0,224.9737385418266,111.80154219064829,1.126240637037398
63111.64909865177,8.662398768989078,PPG_1,PPG_2,185953.0,185953.0,189.93991591289523,121.25999047176414,1.2215400932556504
63111.659101421705,8.672401538926351,PPG_1,PPG_2,185982.0,185982.0,218.90609328399296,130.28665424102363,1.312489065339467
63111.66910419165,8.6824043088709,PPG_1,PPG_2,185977.0,185977.0,213.87227065506158,138.4060403476361,1.3942966787860689
63111.67910696159,8.692407078808174,PPG_1,PPG_2,185963.0,185963.0,199.8384480261302,145.079122651818,1.4615319266816311
63111.68910973153,8.702409848752723,PPG_1,PPG_2,186012.0,186012.0,248.80462539722794,149.73388494339818,1.5084314076565892
63111.699112501476,8.712412618697272,PPG_1,PPG_2,186011.0,186011.0,247.77080276829656,151.8100676028857,1.5293501749404321
63111.70911527141,8.722415388634545,PPG_1,PPG_2,186038.0,186038.0,274.7369801393652,150.81444558011515,1.5193186946649215
63111.71911804136,8.732418158579094,PPG_1,PPG_2,186050.0,186050.0,286.7031575104629,146.37804531510423,1.4746193401559835
63111.729120811295,8.742420928516367,PPG_1,PPG_2,186008.0,186008.0,244.66933488153154,138.30407418701395,1.3932693094574915
63111.73912358124,8.752423698460916,PPG_1,PPG_2,185980.0,185980.0,216.63551225260017,126.59712518221808,1.27531487962154
63111.74912635118,8.76242646839819,PPG_1,PPG_2,185955.0,185955.0,191.6016896236979,111.47035781837721,1.1229037587622976
63111.75912912112,8.772429238342738,PPG_1,PPG_2,185975.0,185975.0,211.56786699476652,93.33417474943897,0.9401709961594463
63111.76913189106,8.782432008280011,PPG_1,PPG_2,185940.0,185940.0,176.53404436583514,72.77167303710243,0.7329916393102937
63111.779134661,8.79243477822456,PPG_1,PPG_2,185899.0,185899.0,135.50022173693287,50.502706110140444,0.5086186369311594
63111.78913743094,8.802437548161834,PPG_1,PPG_2,185849.0,185849.0,85.4663991080015,27.336452520443064,0.27520494114343524
63111.799140200885,8.812440318106383,PPG_1,PPG_2,185832.0,185832.0,68.43257647907012,4.115863490172187,0.041243783680589265
63111.80914297082,8.822443088043656,PPG_1,PPG_2,185839.0,185839.0,75.39875385016785,-18.338266238978957,-0.18499484335874475
63111.81914574077,8.832445857988205,PPG_1,PPG_2,185809.0,185809.0,45.364931221236475,-39.27673119449333,-0.39596225207095326
63111.829148510704,8.842448627925478,PPG_1,PPG_2,185759.0,185759.0,-4.6688914076949,-58.0629670688136,-0.5852446808584515
63111.83915128065,8.852451397870027,PPG_1,PPG_2,185767.0,185767.0,3.297285963402828,-74.20634619105434,-0.7478987659842553
63111.849154050586,8.8624541678073,PPG_1,PPG_2,185726.0,185726.0,-37.73653666552855,-87.38630258439147,-0.8806946157826884
63111.85915682053,8.87245693775185,PPG_1,PPG_2,185733.0,185733.0,-30.770359294459922,-97.46386963758049,-0.9822320595185005
63111.86915959047,8.882459707689122,PPG_1,PPG_2,185733.0,185733.0,-30.804181923362194,-104.47814726977231,-1.0529050519845407
63111.87916236041,8.892462477633671,PPG_1,PPG_2,185688.0,185688.0,-75.83800455229357,-108.62743364056381,-1.0947115643296699
63111.88916513036,8.90246524757822,PPG_1,PPG_2,185775.0,185775.0,11.128172818775056,-110.23645542374926,-1.1109234097004421
63111.899167900294,8.912468017515494,PPG_1,PPG_2,185744.0,185744.0,-19.905649810127215,-109.71305855325703,-1.105649876911366
63111.90917067024,8.922470787460043,PPG_1,PPG_2,185746.0,185746.0,-17.93947243905859,-107.5012174317219,-1.083364270450493
63111.919173440176,8.932473557397316,PPG_1,PPG_2,185741.0,185741.0,-22.973295067989966,-104.03929822572246,-1.0484833885132343
63111.92917621012,8.942476327341865,PPG_1,PPG_2,185759.0,185759.0,-5.007117696892237,-99.72954821009384,-1.0050601101150192
63111.93917898006,8.952479097279138,PPG_1,PPG_2,185737.0,185737.0,-27.040940325823613,-94.92016417253485,-0.9566027236704382
63111.94918175,8.962481867223687,PPG_1,PPG_2,185744.0,185744.0,-20.074762954754988,-89.89920775334613,-0.9060136204451701
63111.95918451994,8.97248463716096,PPG_1,PPG_2,185725.0,185725.0,-39.10858558365726,-84.89840325568493,-0.855627559738743
63111.96918728989,8.98248740710551,PPG_1,PPG_2,185719.0,185719.0,-45.142408212588634,-80.10263380085834,-0.8073073482611834
63111.97919005982,8.992490177042782,PPG_1,PPG_2,185756.0,185756.0,-8.17623084152001,-75.65924209427797,-0.7625375508466075
63111.989192829766,9.002492946987331,PPG_1,PPG_2,185767.0,185767.0,2.789946529577719,-71.68234840183298,-0.7224679966170321
63111.9991955997,9.012495716924604,PPG_1,PPG_2,185766.0,185766.0,1.7561239006463438,-68.25183859388133,-0.6879035829275378
63112.00919836965,9.022498486869154,PPG_1,PPG_2,185743.0,185743.0,-21.27769872828503,-65.41089968114686,-0.6592794444339743
63112.019201139585,9.032501256806428,PPG_1,PPG_2,185781.0,185781.0,16.688478642812697,-63.16572239295429,-0.6366579563929063
63112.02920390953,9.042504026750976,PPG_1,PPG_2,185756.0,185756.0,-8.345343986118678,-61.48796409360373,-0.6197535499996301
63112.03920667947,9.052506796688249,PPG_1,PPG_2,185749.0,185749.0,-15.37916661502095,-60.319258137078116,-0.6079781468018041
63112.04920944941,9.062509566632798,PPG_1,PPG_2,185773.0,185773.0,8.587010756047675,-59.577157048135234,-0.600501039761273
63112.05921221935,9.072512336570073,PPG_1,PPG_2,185746.0,185746.0,-18.4468118728837,-59.16143271815225,-0.5963123714505126
63112.06921498929,9.08251510651462,PPG_1,PPG_2,185760.0,185760.0,-4.480634501785971,-58.95957832283432,-0.5942785691250858
63112.07921775924,9.09251787645917,PPG_1,PPG_2,185735.0,185735.0,-29.514457130717346,-58.850763949277095,-0.5931822000040073
63112.089220529175,9.102520646396442,PPG_1,PPG_2,185785.0,185785.0,20.45172024035128,-58.707317835631585,-0.5917368956347556
63112.09922329912,9.112523416340991,PPG_1,PPG_2,185768.0,185768.0,3.417897611449007,-58.39354207257262,-0.5885754193856664
63112.10922606906,9.122526186278265,PPG_1,PPG_2,185765.0,185765.0,0.3840749825176317,-57.76435393042309,-0.5822359770137566
63112.119228839,9.132528956222814,PPG_1,PPG_2,185768.0,185768.0,3.3502523535862565,-56.66786446333898,-0.5711881976258009
63112.12923160894,9.142531726160088,PPG_1,PPG_2,185763.0,185763.0,-1.6835702753160149,-54.95427502772819,-0.5539227713590956
63112.13923437888,9.152534496104636,PPG_1,PPG_2,185719.0,185719.0,-45.71739290424739,-52.49034841360002,-0.5290972545820041
63112.14923714882,9.162537266041909,PPG_1,PPG_2,185759.0,185759.0,-5.751215533178765,-49.1759100034339,-0.4957023288214695
63112.159239918765,9.172540035986458,PPG_1,PPG_2,185742.0,185742.0,-22.785038162081037,-44.95678388881071,-0.45319213978310613
63112.1692426887,9.182542805923733,PPG_1,PPG_2,185794.0,185794.0,29.181139208987588,-39.829495297687124,-0.4015316770850449
63112.17924545865,9.19254557586828,PPG_1,PPG_2,185779.0,185779.0,14.147316580056213,-33.837605740462266,-0.3411598486886868
63112.189248228584,9.202548345805551,PPG_1,PPG_2,185784.0,185784.0,19.11349395115394,-27.06394085703899,-0.27291117186463226
63112.19925099853,9.212551115750102,PPG_1,PPG_2,185763.0,185763.0,-1.9203286777774338,-19.623350720908725,-0.1979428289777953
63112.209253768466,9.222553885687375,PPG_1,PPG_2,185810.0,185810.0,45.04584869329119,-11.657197551429485,-0.11767912793093424
63112.21925653841,9.232556655631925,PPG_1,PPG_2,185787.0,185787.0,22.01202606438892,-3.3277250565649448,-0.0337547699651228
63112.22925930835,9.242559425569198,PPG_1,PPG_2,185810.0,185810.0,44.978203435457544,5.189130513007882,0.05205758321866294
63112.23926207829,9.252562195513748,PPG_1,PPG_2,185790.0,185790.0,24.94438080652617,13.712416225597693,0.13793472389345263
63112.24926484823,9.26256496545102,PPG_1,PPG_2,185796.0,185796.0,30.910558177623898,22.06685288855803,0.2221106106062384
63112.259267618174,9.272567735395567,PPG_1,PPG_2,185865.0,185865.0,99.87673554869252,30.097500672001406,0.3030241330040349
63112.26927038812,9.282570505340118,PPG_1,PPG_2,185835.0,185835.0,69.84291291976115,37.68889979632011,0.37951196557248035
63112.279273158056,9.292573275277393,PPG_1,PPG_2,185863.0,185863.0,97.80909029085888,44.78473397104424,0.4510066884030971
63112.289275928,9.30257604522194,PPG_1,PPG_2,185870.0,185870.0,104.7752676619275,51.401494609064066,0.517674462226906
63112.29927869794,9.312578815159211,PPG_1,PPG_2,185844.0,185844.0,78.74144503299613,57.63144846150536,0.5804449290896184
63112.30928146788,9.322581585103762,PPG_1,PPG_2,185850.0,185850.0,84.70762240409385,63.63386124362673,0.6409227851958602
63112.31928423782,9.332584355041035,PPG_1,PPG_2,185907.0,185907.0,141.67379977516248,69.61657253062266,0.7012021370954565
63112.32928700776,9.342587124985585,PPG_1,PPG_2,185837.0,185837.0,71.6399771462311,75.81087743635274,0.7636134197521174
63112.3392897777,9.352589894922858,PPG_1,PPG_2,185861.0,185861.0,95.60615451732883,82.44145011904709,0.8304203580887114
63112.349292547646,9.362592664867408,PPG_1,PPG_2,185890.0,185890.0,124.57233188839746,89.69376022050237,0.9034916683558211
63112.35929531758,9.37259543480468,PPG_1,PPG_2,185878.0,185878.0,112.53850925946608,97.68350297707929,0.9839930484337458
63112.36929808753,9.382598204749227,PPG_1,PPG_2,185896.0,185896.0,130.5046866305638,106.43127633850195,1.0721320348390024
63112.379300857465,9.392600974686502,PPG_1,PPG_2,185885.0,185885.0,119.47086400163244,115.8430295132806,1.1669610102648744
63112.38930362741,9.402603744631053,PPG_1,PPG_2,185879.0,185879.0,113.43704137273016,125.69716679660519,1.2662472670260154
63112.39930639735,9.412606514568324,PPG_1,PPG_2,185898.0,185898.0,132.4032187437988,135.64155949119757,1.3664429003951297
63112.40930916729,9.422609284512871,PPG_1,PPG_2,185906.0,185906.0,140.3693961148674,145.20490996198112,1.462799308169738
63112.41931193723,9.432612054450146,PPG_1,PPG_2,185953.0,185953.0,187.33557348596514,153.82515495004375,1.5496533708462394
63112.42931470717,9.442614824394695,PPG_1,PPG_2,185947.0,185947.0,181.30175085703377,160.89302868480894,1.6208663757201136
63112.43931747711,9.452617594331969,PPG_1,PPG_2,185951.0,185951.0,185.2679282281024,165.80429438294212,1.670350280105351
63112.449320247055,9.462620364276518,PPG_1,PPG_2,185970.0,185970.0,204.23410559920012,168.01277854503977,1.6926020632159837
63112.45932301699,9.47262313421379,PPG_1,PPG_2,185937.0,185937.0,171.20028297026874,167.07821268401364,1.683185759853227
63112.46932578694,9.48262590415834,PPG_1,PPG_2,185955.0,185955.0,189.16646034133737,162.70541167873992,1.6391272054722488
63112.47932855688,9.492628674102887,PPG_1,PPG_2,185936.0,185936.0,170.1326377124351,154.77315027543673,1.559204983999083
63112.48933132682,9.502631444040162,PPG_1,PPG_2,185957.0,185957.0,191.09881508350372,143.35180311376936,1.444128161518602
63112.49933409676,9.512634213984713,PPG_1,PPG_2,185941.0,185941.0,175.06499245457235,128.70761733107662,1.2965793352871346
63112.5093368667,9.522636983921984,PPG_1,PPG_2,185892.0,185892.0,126.03116982567008,111.28962882714855,1.1210828073678334
63112.519339636645,9.532639753866532,PPG_1,PPG_2,185836.0,185836.0,69.9973471967387,91.69642531209463,0.9236697026954563
63112.52934240658,9.542642523803806,PPG_1,PPG_2,185849.0,185849.0,82.96352456780733,70.62578176724573,0.7113705165803491
63112.53934517653,9.552645293748355,PPG_1,PPG_2,185784.0,185784.0,17.929701938905055,48.816121096748944,0.4916252961774791
63112.549347946464,9.562648063685629,PPG_1,PPG_2,185771.0,185771.0,4.8958793099736795,26.98965771901527,0.2717107785690762
63112.55935071641,9.572650833630178,PPG_1,PPG_2,185784.0,185784.0,17.862056681042304,5.804444203034807,0.05825723228586642
63112.569353486346,9.58265360356745,PPG_1,PPG_2,185730.0,185730.0,-36.17176594785997,-14.180591151220305,-0.1431038097325789
63112.57935625629,9.592656373512,PPG_1,PPG_2,185729.0,185729.0,-37.20558857679134,-32.52688625922094,-0.327953575301713
63112.58935902623,9.602659143449271,PPG_1,PPG_2,185714.0,185714.0,-52.23941120572272,-48.925078721260526,-0.4931750554164465
63112.59936179617,9.612661913393822,PPG_1,PPG_2,185689.0,185689.0,-77.27323383462499,-63.192604353377426,-0.6369288080309621
63112.60936456611,9.622664683331095,PPG_1,PPG_2,185696.0,185696.0,-70.30705646355636,-75.26112217441099,-0.75852625737168
63112.619367336054,9.632667453275644,PPG_1,PPG_2,185680.0,185680.0,-86.34087909248774,-85.15560091855382,-0.8582189781916988
63112.62937010599,9.642670223212916,PPG_1,PPG_2,185690.0,185690.0,-76.37470172139001,-92.9679093312955,-0.9369326023947301
63112.639372875936,9.652672993157466,PPG_1,PPG_2,185690.0,185690.0,-76.40852435032139,-98.82900118975326,-0.9959865666767397
63112.64937564587,9.66267576309474,PPG_1,PPG_2,185685.0,185685.0,-81.44234697925276,-102.88492300448046,-1.0368523759426174
63112.65937841582,9.672678533039289,PPG_1,PPG_2,185647.0,185647.0,-119.47616960815503,-105.28171742382165,-1.0610014961832168
63112.66938118576,9.682681302983838,PPG_1,PPG_2,185653.0,185653.0,-113.50999223708641,-106.16152533573708,-1.0698660808476441
63112.6793839557,9.69268407292111,PPG_1,PPG_2,185655.0,185655.0,-111.54381486601778,-105.66765033176397,-1.0648899983106814
