timestamp,PPG_1,PPG_2,PPG_3,time_from_segment_start_sec
63102.99008002064,166525.0,148093.0,17897.0,0.0
63103.000179822375,166527.0,148056.0,17869.0,0.010099801736942027
63103.01027962412,166564.0,148079.0,17891.0,0.02019960348116001
63103.02037942586,166545.0,148081.0,17873.0,0.030299405225377996
63103.03047922761,166568.0,148106.0,17895.0,0.04039920696959598
63103.04057902935,166548.0,148072.0,17871.0,0.050499008713813964
63103.05067883109,166576.0,148100.0,17894.0,0.06059881045075599
63103.06077863283,166517.0,148095.0,17880.0,0.07069861219497398
63103.07087843458,166585.0,148077.0,17920.0,0.08079841393919196
63103.08097823632,166565.0,148069.0,17867.0,0.09089821568340994
63103.091078038065,166572.0,148103.0,17898.0,0.10099801742762793
63103.1011778398,166584.0,148101.0,17893.0,0.11109781916456996
63103.11127764155,166574.0,148085.0,17885.0,0.12119762090878794
63103.12137744329,166616.0,148129.0,17919.0,0.13129742265300592
63103.131477245035,166611.0,148113.0,17903.0,0.1413972243972239
63103.14157704677,166630.0,148138.0,17942.0,0.15149702613416594
63103.151676848516,166594.0,148091.0,17899.0,0.16159682787838392
63103.16177665026,166652.0,148131.0,17919.0,0.1716966296226019
63103.171876452005,166611.0,148128.0,17911.0,0.1817964313668199
63103.18197625375,166601.0,148123.0,17916.0,0.19189623311103787
63103.192076055486,166582.0,148128.0,17910.0,0.2019960348479799
63103.20217585723,166623.0,148126.0,17925.0,0.21209583659219788
63103.212275658974,166606.0,148095.0,17892.0,0.22219563833641587
63103.22237546072,166583.0,148110.0,17913.0,0.23229544008063385
63103.23247526246,166620.0,148097.0,17905.0,0.24239524182485184
63103.2425750642,166612.0,148109.0,17924.0,0.25249504356179386
63103.252674865944,166627.0,148124.0,17889.0,0.26259484530601185
63103.26277466769,166588.0,148119.0,17939.0,0.27269464705022983
63103.27287446943,166645.0,148143.0,17928.0,0.2827944487944478
63103.28297427117,166619.0,148120.0,17914.0,0.29289425053138984
63103.29307407291,166636.0,148130.0,17921.0,0.30299405227560783
63103.30317387466,166623.0,148092.0,17915.0,0.3130938540198258
63103.3132736764,166629.0,148104.0,17923.0,0.3231936557640438
63103.323373478146,166612.0,148136.0,17911.0,0.3332934575082618
63103.33347327988,166670.0,148139.0,17945.0,0.3433932592452038
63103.34357308163,166670.0,148180.0,17948.0,0.3534930609894218
63103.35367288337,166661.0,148128.0,17930.0,0.3635928627336398
63103.363772685116,166682.0,148155.0,17931.0,0.37369266447785776
63103.37387248686,166675.0,148157.0,17931.0,0.38379246622207575
63103.3839722886,166654.0,148144.0,17916.0,0.39389226795901777
63103.39407209034,166631.0,148143.0,17951.0,0.40399206970323576
63103.404171892085,166687.0,148150.0,17930.0,0.41409187144745374
63103.41427169383,166656.0,148134.0,17923.0,0.4241916731916717
63103.42437149557,166643.0,148152.0,17926.0,0.43429147492861375
63103.43447129731,166614.0,148110.0,17908.0,0.44439127667283174
63103.444571099055,166618.0,148148.0,17926.0,0.4544910784170497
63103.4546709008,166610.0,148099.0,17909.0,0.4645908801612677
63103.46477070254,166606.0,148106.0,17910.0,0.4746906819054857
63103.47487050428,166602.0,148110.0,17927.0,0.4847904836424277
63103.484970306024,166610.0,148082.0,17911.0,0.4948902853866457
63103.49507010777,166588.0,148074.0,17875.0,0.5049900871308637
63103.50516990951,166576.0,148099.0,17894.0,0.5150898888750817
63103.51526971126,166584.0,148103.0,17894.0,0.5251896906192997
63103.525369512994,166541.0,148108.0,17870.0,0.5352894923562417
63103.53546931474,166567.0,148102.0,17877.0,0.5453892941004597
63103.54556911648,166568.0,148102.0,17868.0,0.5554890958446776
63103.55566891823,166598.0,148128.0,17882.0,0.5655888975888956
63103.565768719964,166541.0,148082.0,17856.0,0.5756886993258377
63103.57586852171,166594.0,148115.0,17886.0,0.5857885010700556
63103.58596832345,166582.0,148115.0,17872.0,0.5958883028142736
63103.596068125196,166567.0,148099.0,17879.0,0.6059881045584916
63103.60616792694,166600.0,148130.0,17906.0,0.6160879063027096
63103.61626772868,166614.0,148129.0,17907.0,0.6261877080396516
63103.62636753042,166587.0,148126.0,17885.0,0.6362875097838696
63103.636467332166,166602.0,148108.0,17855.0,0.6463873115280876
63103.64656713391,166621.0,148148.0,17850.0,0.6564871132723056
63103.656666935654,166630.0,148136.0,17906.0,0.6665869150165236
63103.66676673739,166661.0,148162.0,17897.0,0.6766867167534656
63103.676866539136,166647.0,148152.0,17892.0,0.6867865184976836
63103.68696634088,166681.0,148204.0,17922.0,0.6968863202419016
63103.697066142624,166659.0,148158.0,17893.0,0.7069861219861195
63103.70716594436,166676.0,148189.0,17902.0,0.7170859237230616
63103.717265746105,166702.0,148223.0,17920.0,0.7271857254672796
63103.72736554785,166685.0,148183.0,17923.0,0.7372855272114975
63103.73746534959,166670.0,148162.0,17893.0,0.7473853289557155
63103.74756515134,166684.0,148191.0,17905.0,0.7574851306999335
63103.757664953075,166686.0,148179.0,17927.0,0.7675849324368755
63103.76776475482,166654.0,148177.0,17892.0,0.7776847341810935
63103.77786455656,166677.0,148177.0,17866.0,0.7877845359253115
63103.78796435831,166676.0,148179.0,17918.0,0.7978843376695295
63103.79806416005,166664.0,148168.0,17914.0,0.8079841394137475
63103.80816396179,166678.0,148170.0,17892.0,0.8180839411506895
63103.81826376353,166701.0,148182.0,17916.0,0.8281837428949075
63103.82836356528,166674.0,148177.0,17886.0,0.8382835446391255
63103.83846336702,166678.0,148201.0,17904.0,0.8483833463833435
63103.84856316876,166675.0,148191.0,17877.0,0.8584831481202855
63103.8586629705,166703.0,148216.0,17915.0,0.8685829498645035
63103.86876277225,166658.0,148156.0,17884.0,0.8786827516087214
63103.87886257399,166658.0,148191.0,17904.0,0.8887825533529394
63103.888962375735,166666.0,148199.0,17894.0,0.8988823550971574
63103.89906217747,166658.0,148157.0,17887.0,0.9089821568340994
63103.909161979216,166731.0,148219.0,17899.0,0.9190819585783174
63103.91926178096,166713.0,148211.0,17922.0,0.9291817603225354
63103.929361582705,166721.0,148235.0,17929.0,0.9392815620667534
63103.93946138445,166708.0,148192.0,17916.0,0.9493813638109714
63103.949561186186,166712.0,148233.0,17915.0,0.9594811655479134
63103.95966098793,166748.0,148230.0,17925.0,0.9695809672921314
63103.969760789674,166767.0,148233.0,17952.0,0.9796807690363494
63103.97986059142,166750.0,148235.0,17892.0,0.9897805707805674
63103.989960393155,166783.0,148233.0,17920.0,0.9998803725175094
63104.0000601949,166770.0,148250.0,17923.0,1.0099801742617274
63104.010159996644,166733.0,148253.0,17904.0,1.0200799760059454
63104.02025979839,166791.0,148246.0,17960.0,1.0301797777501633
63104.03035960013,166810.0,148262.0,17953.0,1.0402795794943813
63104.04045940187,166776.0,148252.0,17939.0,1.0503793812313234
63104.05055920361,166772.0,148233.0,17931.0,1.0604791829755413
63104.06065900536,166825.0,148274.0,17943.0,1.0705789847197593
63104.0707588071,166775.0,148232.0,17922.0,1.0806787864639773
63104.08085860884,166794.0,148247.0,17941.0,1.0907785882009193
63104.09095841058,166758.0,148266.0,17938.0,1.1008783899451373
63104.10105821233,166764.0,148249.0,17924.0,1.1109781916893553
63104.11115801407,166772.0,148234.0,17934.0,1.1210779934335733
63104.121257815816,166800.0,148259.0,17933.0,1.1311777951777913
63104.13135761755,166779.0,148249.0,17970.0,1.1412775969147333
63104.1414574193,166762.0,148231.0,17929.0,1.1513773986589513
63104.15155722104,166765.0,148258.0,17924.0,1.1614772004031693
63104.161657022785,166795.0,148247.0,17938.0,1.1715770021473872
63104.17175682453,166829.0,148268.0,17972.0,1.1816768038916052
63104.18185662627,166803.0,148246.0,17935.0,1.1917766056285473
63104.19195642801,166801.0,148237.0,17946.0,1.2018764073727652
63104.202056229755,166817.0,148268.0,17938.0,1.2119762091169832
63104.2121560315,166798.0,148274.0,17952.0,1.2220760108612012
63104.22225583324,166803.0,148279.0,17950.0,1.2321758126054192
63104.23235563498,166805.0,148270.0,17963.0,1.2422756143423612
63104.242455436724,166814.0,148267.0,17935.0,1.2523754160865792
63104.25255523847,166818.0,148244.0,17944.0,1.2624752178307972
63104.26265504021,166808.0,148223.0,17936.0,1.2725750195750152
63104.27275484195,166827.0,148287.0,17958.0,1.2826748213119572
63104.282854643694,166795.0,148251.0,17909.0,1.2927746230561752
63104.29295444544,166781.0,148219.0,17970.0,1.3028744248003932
63104.30305424718,166794.0,148236.0,17947.0,1.3129742265446112
63104.31315404893,166779.0,148211.0,17955.0,1.3230740282888291
63104.32325385066,166762.0,148222.0,17924.0,1.3331738300257712
63104.33335365241,166735.0,148237.0,17908.0,1.3432736317699892
63104.34345345415,166762.0,148233.0,17907.0,1.3533734335142071
63104.353553255896,166708.0,148186.0,17900.0,1.3634732352584251
63104.36365305763,166726.0,148205.0,17886.0,1.3735730369953671
63104.37375285938,166730.0,148212.0,17884.0,1.3836728387395851
63104.38385266112,166695.0,148186.0,17880.0,1.3937726404838031
63104.393952462866,166684.0,148191.0,17879.0,1.403872442228021
63104.40405226461,166722.0,148232.0,17908.0,1.413972243972239
63104.41415206635,166743.0,148206.0,17907.0,1.4240720457091811
63104.42425186809,166682.0,148219.0,17860.0,1.434171847453399
63104.434351669835,166732.0,148228.0,17893.0,1.444271649197617
63104.44445147158,166745.0,148222.0,17921.0,1.454371450941835
63104.454551273324,166751.0,148238.0,17899.0,1.464471252686053
63104.46465107506,166752.0,148203.0,17894.0,1.474571054422995
63104.474750876805,166768.0,148272.0,17897.0,1.484670856167213
63104.48485067855,166769.0,148273.0,17927.0,1.494770657911431
63104.49495048029,166764.0,148266.0,17909.0,1.504870459655649
63104.50505028203,166768.0,148224.0,17907.0,1.514970261392591
63104.515150083775,166787.0,148244.0,17941.0,1.525070063136809
63104.52524988552,166795.0,148258.0,17912.0,1.535169864881027
63104.53534968726,166782.0,148264.0,17918.0,1.545269666625245
63104.54544948901,166813.0,148268.0,17923.0,1.555369468369463
63104.555549290744,166760.0,148248.0,17918.0,1.565469270106405
63104.56564909249,166735.0,148219.0,17898.0,1.575569071850623
63104.57574889423,166776.0,148243.0,17917.0,1.585668873594841
63104.58584869598,166794.0,148237.0,17918.0,1.595768675339059
63104.59594849772,166792.0,148275.0,17945.0,1.605868477083277
63104.60604829946,166779.0,148258.0,17910.0,1.615968278820219
63104.6161481012,166765.0,148254.0,17914.0,1.626068080564437
63104.62624790295,166768.0,148228.0,17924.0,1.636167882308655
63104.63634770469,166771.0,148253.0,17914.0,1.646267684052873
63104.64644750643,166768.0,148264.0,17931.0,1.656367485789815
63104.65654730817,166767.0,148241.0,17917.0,1.666467287534033
63104.666647109916,166778.0,148251.0,17941.0,1.676567089278251
63104.67674691166,166810.0,148238.0,17933.0,1.686666891022469
63104.686846713405,166785.0,148258.0,17926.0,1.696766692766687
63104.69694651514,166778.0,148251.0,17910.0,1.706866494503629
63104.707046316886,166759.0,148268.0,17938.0,1.716966296247847
63104.71714611863,166790.0,148267.0,17940.0,1.727066097992065
63104.727245920374,166801.0,148253.0,17919.0,1.7371658997362829
63104.73734572212,166780.0,148254.0,17933.0,1.7472657014805009
63104.747445523855,166802.0,148278.0,17915.0,1.757365503217443
63104.7575453256,166782.0,148229.0,17925.0,1.7674653049616609
63104.767645127344,166768.0,148244.0,17920.0,1.7775651067058789
63104.77774492909,166792.0,148261.0,17930.0,1.7876649084500968
63104.787844730825,166805.0,148279.0,17937.0,1.7977647101870389
63104.79794453257,166772.0,148252.0,17915.0,1.8078645119312569
63104.80804433431,166809.0,148296.0,17899.0,1.8179643136754748
63104.81814413606,166801.0,148267.0,17949.0,1.8280641154196928
63104.8282439378,166793.0,148281.0,17931.0,1.8381639171639108
63104.83834373954,166784.0,148240.0,17928.0,1.8482637189008528
63104.84844354128,166769.0,148260.0,17917.0,1.8583635206450708
63104.85854334303,166843.0,148259.0,17958.0,1.8684633223892888
63104.86864314477,166819.0,148280.0,17932.0,1.8785631241335068
63104.878742946516,166846.0,148250.0,17923.0,1.8886629258777248
63104.88884274825,166829.0,148289.0,17969.0,1.8987627276146668
63104.89894255,166835.0,148284.0,17943.0,1.9088625293588848
63104.90904235174,166818.0,148270.0,17939.0,1.9189623311031028
63104.919142153485,166841.0,148290.0,17934.0,1.9290621328473208
63104.92924195522,166803.0,148242.0,17920.0,1.9391619345842628
63104.939341756966,166797.0,148251.0,17927.0,1.9492617363284808
63104.94944155871,166807.0,148263.0,17945.0,1.9593615380726987
63104.959541360455,166815.0,148255.0,17934.0,1.9694613398169167
63104.9696411622,166816.0,148272.0,17956.0,1.9795611415611347
63104.979740963936,166824.0,148296.0,17967.0,1.9896609432980767
63104.98984076568,166815.0,148274.0,17945.0,1.9997607450422947
63104.999940567424,166817.0,148268.0,17923.0,2.0098605467865127
63105.01004036917,166844.0,148289.0,17974.0,2.0199603485307307
63105.02014017091,166846.0,148267.0,17966.0,2.0300601502749487
63105.03023997265,166827.0,148269.0,17951.0,2.0401599520118907
63105.040339774394,166809.0,148260.0,17938.0,2.0502597537561087
63105.05043957614,166797.0,148280.0,17952.0,2.0603595555003267
63105.06053937788,166803.0,148245.0,17935.0,2.0704593572445447
63105.07063917962,166820.0,148264.0,17960.0,2.0805591589814867
63105.08073898136,166785.0,148280.0,17933.0,2.0906589607257047
63105.09083878311,166805.0,148234.0,17951.0,2.1007587624699227
63105.10093858485,166846.0,148264.0,17929.0,2.1108585642141406
63105.111038386596,166833.0,148258.0,17948.0,2.1209583659583586
63105.12113818833,166783.0,148280.0,17926.0,2.1310581676953007
63105.13123799008,166839.0,148264.0,17965.0,2.1411579694395186
63105.14133779182,166780.0,148216.0,17935.0,2.1512577711837366
63105.151437593566,166781.0,148231.0,17931.0,2.1613575729279546
63105.16153739531,166739.0,148196.0,17903.0,2.1714573746721726
63105.17163719705,166748.0,148230.0,17897.0,2.1815571764091146
63105.18173699879,166714.0,148179.0,17875.0,2.1916569781533326
63105.191836800535,166715.0,148196.0,17902.0,2.2017567798975506
63105.20193660228,166696.0,148209.0,17891.0,2.2118565816417686
63105.21203640402,166708.0,148199.0,17914.0,2.2219563833787106
63105.22213620576,166689.0,148160.0,17879.0,2.2320561851229286
63105.232236007505,166709.0,148190.0,17893.0,2.2421559868671466
63105.24233580925,166653.0,148187.0,17880.0,2.2522557886113646
63105.25243561099,166699.0,148206.0,17879.0,2.2623555903555825
63105.26253541273,166662.0,148154.0,17879.0,2.2724553920925246
63105.272635214475,166689.0,148179.0,17895.0,2.2825551938367425
63105.28273501622,166658.0,148196.0,17889.0,2.2926549955809605
63105.29283481796,166634.0,148162.0,17886.0,2.3027547973251785
63105.30293461971,166643.0,148153.0,17880.0,2.3128545990693965
63105.313034421444,166641.0,148156.0,17895.0,2.3229544008063385
63105.32313422319,166640.0,148168.0,17879.0,2.3330542025505565
63105.33323402493,166598.0,148138.0,17862.0,2.3431540042947745
63105.34333382668,166630.0,148151.0,17920.0,2.3532538060389925
63105.353433628414,166587.0,148114.0,17875.0,2.3633536077759345
63105.36353343016,166623.0,148145.0,17884.0,2.3734534095201525
63105.3736332319,166611.0,148132.0,17866.0,2.3835532112643705
63105.38373303365,166597.0,148141.0,17885.0,2.3936530130085885
63105.39383283539,166594.0,148106.0,17878.0,2.4037528147528064
63105.40393263713,166601.0,148122.0,17906.0,2.4138526164897485
63105.41403243887,166583.0,148141.0,17898.0,2.4239524182339665
63105.424132240616,166603.0,148100.0,17893.0,2.4340522199781844
63105.43423204236,166580.0,148102.0,17885.0,2.4441520217224024
63105.444331844104,166587.0,148113.0,17888.0,2.4542518234666204
63105.45443164584,166553.0,148108.0,17879.0,2.4643516252035624
63105.464531447586,166570.0,148095.0,17880.0,2.4744514269477804
63105.47463124933,166543.0,148105.0,17876.0,2.4845512286919984
63105.484731051074,166590.0,148141.0,17908.0,2.4946510304362164
63105.49483085281,166565.0,148107.0,17923.0,2.5047508321731584
63105.504930654555,166571.0,148101.0,17865.0,2.5148506339173764
63105.5150304563,166588.0,148084.0,17917.0,2.5249504356615944
63105.525130258044,166568.0,148102.0,17883.0,2.5350502374058124
63105.53523005979,166571.0,148081.0,17884.0,2.5451500391500304
63105.545329861525,166564.0,148114.0,17892.0,2.5552498408869724
63105.55542966327,166549.0,148130.0,17875.0,2.5653496426311904
63105.56552946501,166571.0,148105.0,17899.0,2.5754494443754083
63105.57562926676,166543.0,148066.0,17909.0,2.5855492461196263
63105.5857290685,166559.0,148072.0,17882.0,2.5956490478638443
63105.59582887024,166548.0,148074.0,17915.0,2.6057488496007863
63105.60592867198,166569.0,148097.0,17900.0,2.6158486513450043
63105.61602847373,166553.0,148118.0,17921.0,2.6259484530892223
63105.62612827547,166544.0,148054.0,17885.0,2.6360482548334403
63105.63622807721,166544.0,148070.0,17896.0,2.6461480565703823
63105.64632787895,166565.0,148089.0,17909.0,2.6562478583146003
63105.6564276807,166555.0,148090.0,17922.0,2.6663476600588183
63105.66652748244,166561.0,148065.0,17905.0,2.6764474618030363
63105.676627284185,166559.0,148068.0,17892.0,2.6865472635472543
63105.68672708592,166563.0,148086.0,17900.0,2.6966470652841963
63105.696826887666,166586.0,148096.0,17923.0,2.7067468670284143
63105.70692668941,166538.0,148067.0,17902.0,2.7168466687726323
63105.717026491155,166582.0,148061.0,17919.0,2.7269464705168502
63105.7271262929,166569.0,148095.0,17908.0,2.7370462722610682
63105.737226094636,166531.0,148071.0,17882.0,2.7471460739980103
63105.74732589638,166595.0,148124.0,17943.0,2.7572458757422282
63105.757425698124,166587.0,148098.0,17933.0,2.767345677486446
63105.76752549987,166576.0,148076.0,17914.0,2.777445479230664
63105.777625301605,166561.0,148055.0,17920.0,2.7875452809676062
63105.78772510335,166587.0,148084.0,17913.0,2.797645082711824
63105.797824905094,166593.0,148107.0,17919.0,2.807744884456042
63105.80792470684,166587.0,148095.0,17900.0,2.81784468620026
63105.81802450858,166560.0,148078.0,17936.0,2.827944487944478
63105.82812431032,166608.0,148123.0,17932.0,2.83804428968142
63105.83822411206,166616.0,148078.0,17943.0,2.848144091425638
63105.84832391381,166581.0,148112.0,17901.0,2.858243893169856
63105.85842371555,166627.0,148084.0,17931.0,2.868343694914074
63105.868523517296,166603.0,148115.0,17945.0,2.878443496658292
63105.87862331903,166595.0,148080.0,17904.0,2.888543298395234
63105.88872312078,166604.0,148086.0,17904.0,2.898643100139452
63105.89882292252,166581.0,148106.0,17920.0,2.90874290188367
63105.908922724266,166583.0,148044.0,17908.0,2.918842703627888
63105.919022526,166564.0,148067.0,17917.0,2.92894250536483
63105.92912232775,166612.0,148080.0,17935.0,2.939042307109048
63105.93922212949,166590.0,148088.0,17919.0,2.949142108853266
63105.949321931235,166574.0,148080.0,17934.0,2.959241910597484
63105.95942173298,166591.0,148096.0,17934.0,2.969341712341702
63105.96952153472,166572.0,148057.0,17929.0,2.979441514078644
63105.97962133646,166549.0,148068.0,17900.0,2.989541315822862
63105.989721138205,166509.0,148038.0,17882.0,2.99964111756708
63105.99982093995,166545.0,148087.0,17861.0,3.009740919311298
63106.00992074169,166493.0,148036.0,17883.0,3.019840721055516
63106.02002054343,166467.0,148030.0,17862.0,3.029940522792458
63106.030120345175,166488.0,148032.0,17868.0,3.040040324536676
63106.04022014692,166510.0,148057.0,17874.0,3.050140126280894
63106.05031994866,166474.0,148046.0,17840.0,3.060239928025112
63106.0604197504,166483.0,148056.0,17867.0,3.070339729762054
63106.070519552144,166507.0,148072.0,17880.0,3.080439531506272
63106.08061935389,166491.0,148045.0,17854.0,3.09053933325049
63106.09071915563,166505.0,148052.0,17873.0,3.100639134994708
63106.10081895738,166490.0,148052.0,17874.0,3.110738936738926
63106.110918759114,166515.0,148064.0,17875.0,3.120838738475868
63106.12101856086,166463.0,148037.0,17863.0,3.130938540220086
63106.1311183626,166522.0,148090.0,17884.0,3.141038341964304
63106.141218164346,166508.0,148071.0,17887.0,3.151138143708522
63106.15131796609,166504.0,148017.0,17880.0,3.16123794545274
63106.16141776783,166511.0,148065.0,17886.0,3.171337747189682
63106.17151756957,166523.0,148076.0,17911.0,3.1814375489339
63106.181617371316,166522.0,148066.0,17887.0,3.191537350678118
63106.19171717306,166530.0,148047.0,17867.0,3.201637152422336
63106.2018169748,166521.0,148073.0,17874.0,3.211736954159278
63106.21191677654,166538.0,148079.0,17900.0,3.221836755903496
63106.222016578286,166540.0,148067.0,17899.0,3.231936557647714
63106.23211638003,166519.0,148037.0,17875.0,3.242036359391932
63106.242216181774,166512.0,148086.0,17913.0,3.25213616113615
63106.25231598351,166549.0,148092.0,17923.0,3.262235962873092
63106.262415785255,166512.0,148066.0,17890.0,3.27233576461731
63106.272515587,166524.0,148071.0,17872.0,3.282435566361528
63106.28261538874,166523.0,148090.0,17906.0,3.292535368105746
63106.29271519049,166503.0,148059.0,17882.0,3.302635169849964
63106.302814992225,166524.0,148060.0,17883.0,3.312734971586906
63106.31291479397,166522.0,148076.0,17899.0,3.322834773331124
63106.32301459571,166574.0,148069.0,17876.0,3.332934575075342
63106.33311439746,166544.0,148081.0,17882.0,3.34303437681956
63106.343214199194,166547.0,148087.0,17902.0,3.353134178556502
63106.35331400094,166540.0,148094.0,17903.0,3.36323398030072
63106.36341380268,166529.0,148075.0,17871.0,3.373333782044938
63106.37351360443,166530.0,148107.0,17904.0,3.383433583789156
63106.38361340617,166609.0,148102.0,17909.0,3.393533385533374
63106.39371320791,166590.0,148094.0,17905.0,3.403633187270316
63106.40381300965,166577.0,148114.0,17893.0,3.413732989014534
63106.4139128114,166623.0,148115.0,17914.0,3.423832790758752
63106.42401261314,166552.0,148072.0,17912.0,3.43393259250297
63106.434112414885,166600.0,148131.0,17900.0,3.4440323942471878
63106.44421221662,166597.0,148144.0,17899.0,3.45413219598413
63106.454312018366,166619.0,148133.0,17910.0,3.464231997728348
63106.46441182011,166630.0,148140.0,17900.0,3.4743317994725658
63106.474511621855,166624.0,148148.0,17923.0,3.4844316012167837
63106.48461142359,166622.0,148138.0,17919.0,3.4945314029537258
63106.494711225336,166613.0,148133.0,17925.0,3.5046312046979438
63106.50481102708,166604.0,148145.0,17904.0,3.5147310064421617
63106.514910828824,166636.0,148146.0,17922.0,3.5248308081863797
63106.52501063057,166672.0,148132.0,17941.0,3.5349306099305977
63106.535110432305,166628.0,148134.0,17924.0,3.5450304116675397
63106.54521023405,166676.0,148158.0,17949.0,3.5551302134117577
63106.555310035794,166660.0,148165.0,17949.0,3.5652300151559757
63106.56540983754,166628.0,148115.0,17921.0,3.5753298169001937
63106.57550963928,166635.0,148143.0,17916.0,3.5854296186444117
63106.58560944102,166671.0,148171.0,17932.0,3.5955294203813537
63106.59570924276,166674.0,148170.0,17925.0,3.6056292221255717
63106.60580904451,166677.0,148150.0,17936.0,3.6157290238697897
63106.61590884625,166651.0,148154.0,17913.0,3.6258288256140077
63106.62600864799,166707.0,148193.0,17920.0,3.6359286273509497
63106.63610844973,166706.0,148172.0,17935.0,3.6460284290951677
63106.64620825148,166697.0,148160.0,17959.0,3.6561282308393857
63106.65630805322,166697.0,148173.0,17948.0,3.6662280325836036
63106.666407854966,166734.0,148202.0,17966.0,3.6763278343278216
63106.6765076567,166711.0,148188.0,17945.0,3.6864276360647636
63106.68660745845,166704.0,148148.0,17980.0,3.6965274378089816
63106.69670726019,166745.0,148206.0,17961.0,3.7066272395531996
63106.706807061935,166699.0,148182.0,17938.0,3.7167270412974176
63106.71690686368,166739.0,148201.0,17935.0,3.7268268430416356
63106.72700666542,166739.0,148198.0,17954.0,3.7369266447785776
63106.73710646716,166754.0,148168.0,17944.0,3.7470264465227956
63106.747206268905,166743.0,148169.0,17938.0,3.7571262482670136
63106.75730607065,166755.0,148199.0,17953.0,3.7672260500112316
63106.767405872386,166791.0,148211.0,17956.0,3.7773258517481736
63106.77750567413,166746.0,148184.0,17948.0,3.7874256534923916
63106.787605475874,166753.0,148213.0,17951.0,3.7975254552366096
63106.79770527762,166729.0,148212.0,17924.0,3.8076252569808275
63106.80780507936,166742.0,148208.0,17915.0,3.8177250587250455
63106.8179048811,166696.0,148157.0,17899.0,3.8278248604619876
63106.828004682844,166729.0,148212.0,17917.0,3.8379246622062055
63106.83810448459,166692.0,148191.0,17910.0,3.8480244639504235
63106.84820428633,166683.0,148194.0,17924.0,3.8581242656946415
63106.85830408808,166714.0,148218.0,17904.0,3.8682240674388595
63106.86840388981,166731.0,148179.0,17920.0,3.8783238691758015
63106.87850369156,166717.0,148201.0,17904.0,3.8884236709200195
63106.8886034933,166725.0,148185.0,17908.0,3.8985234726642375
63106.898703295046,166746.0,148224.0,17898.0,3.9086232744084555
63106.90880309678,166695.0,148205.0,17914.0,3.9187230761453975
63106.91890289853,166748.0,148212.0,17910.0,3.9288228778896155
63106.92900270027,166752.0,148235.0,17917.0,3.9389226796338335
63106.939102502016,166782.0,148231.0,17943.0,3.9490224813780515
63106.94920230376,166757.0,148236.0,17898.0,3.9591222831222694
63106.9593021055,166776.0,148237.0,17879.0,3.9692220848592115
63106.96940190724,166775.0,148249.0,17932.0,3.9793218866034294
63106.979501708985,166778.0,148238.0,17972.0,3.9894216883476474
63106.98960151073,166802.0,148275.0,17926.0,3.9995214900918654
63106.999701312474,166828.0,148240.0,17977.0,4.009621291836083
63107.00980111421,166812.0,148264.0,17940.0,4.019721093573025
63107.019900915955,166861.0,148265.0,17926.0,4.029820895317243
63107.0300007177,166829.0,148267.0,17921.0,4.039920697061461
63107.04010051944,166812.0,148264.0,17950.0,4.050020498805679
63107.05020032118,166819.0,148258.0,17941.0,4.060120300542621
63107.060300122925,166806.0,148230.0,17924.0,4.070220102286839
63107.07039992467,166822.0,148245.0,17968.0,4.080319904031057
63107.08049972641,166803.0,148225.0,17917.0,4.090419705775275
63107.09059952816,166821.0,148258.0,17921.0,4.100519507519493
63107.100699329894,166816.0,148258.0,17916.0,4.110619309256435
63107.11079913164,166827.0,148250.0,17930.0,4.120719111000653
63107.12089893338,166799.0,148242.0,17921.0,4.130818912744871
63107.13099873513,166825.0,148268.0,17949.0,4.140918714489089
63107.14109853687,166854.0,148295.0,17943.0,4.151018516233307
63107.15119833861,166846.0,148273.0,17948.0,4.161118317970249
63107.16129814035,166824.0,148245.0,17925.0,4.171218119714467
63107.1713979421,166853.0,148282.0,17943.0,4.181317921458685
63107.18149774384,166838.0,148298.0,17966.0,4.191417723202903
63107.19159754558,166831.0,148275.0,17940.0,4.201517524939845
63107.20169734732,166814.0,148253.0,17949.0,4.211617326684063
63107.211797149066,166846.0,148282.0,17950.0,4.221717128428281
63107.22189695081,166878.0,148289.0,17962.0,4.231816930172499
63107.231996752555,166839.0,148268.0,17929.0,4.241916731916717
63107.24209655429,166886.0,148285.0,17950.0,4.252016533653659
63107.252196356036,166864.0,148282.0,17943.0,4.262116335397877
63107.26229615778,166855.0,148314.0,17959.0,4.272216137142095
63107.272395959524,166872.0,148305.0,17978.0,4.282315938886313
63107.28249576127,166887.0,148305.0,17979.0,4.292415740630531
63107.292595563005,166880.0,148279.0,17947.0,4.302515542367473
63107.30269536475,166877.0,148285.0,17937.0,4.312615344111691
63107.312795166494,166852.0,148280.0,17968.0,4.322715145855909
63107.32289496824,166853.0,148266.0,17937.0,4.332814947600127
63107.332994769975,166872.0,148277.0,17939.0,4.342914749337069
63107.34309457172,166837.0,148278.0,17973.0,4.353014551081287
63107.35319437346,166891.0,148276.0,17991.0,4.363114352825505
63107.36329417521,166863.0,148261.0,17984.0,4.373214154569723
63107.37339397695,166881.0,148287.0,17959.0,4.383313956313941
63107.38349377869,166910.0,148285.0,17967.0,4.393413758050883
63107.39359358043,166901.0,148280.0,17954.0,4.403513559795101
63107.40369338218,166897.0,148306.0,17949.0,4.413613361539319
63107.41379318392,166963.0,148323.0,17990.0,4.423713163283537
63107.423892985666,166953.0,148333.0,17972.0,4.433812965027755
63107.4339927874,166935.0,148307.0,17969.0,4.443912766764697
63107.44409258915,166948.0,148307.0,17965.0,4.454012568508915
63107.45419239089,166949.0,148336.0,17953.0,4.464112370253133
63107.464292192635,166935.0,148324.0,17963.0,4.474212171997351
63107.47439199437,166910.0,148311.0,17962.0,4.484311973734293
63107.484491796116,166953.0,148327.0,17987.0,4.494411775478511
63107.49459159786,166864.0,148251.0,17983.0,4.504511577222729
63107.504691399605,166930.0,148305.0,17970.0,4.514611378966947
63107.51479120135,166916.0,148310.0,18005.0,4.524711180711165
63107.524891003086,166937.0,148325.0,17990.0,4.534810982448107
63107.53499080483,166929.0,148285.0,17975.0,4.544910784192325
63107.545090606574,166924.0,148294.0,17976.0,4.555010585936543
63107.55519040832,166914.0,148276.0,17960.0,4.565110387680761
63107.56529021006,166923.0,148287.0,17944.0,4.575210189424979
63107.5753900118,166854.0,148269.0,17919.0,4.585309991161921
63107.585489813544,166880.0,148279.0,17945.0,4.595409792906139
63107.59558961529,166874.0,148282.0,17931.0,4.605509594650357
63107.60568941703,166818.0,148248.0,17903.0,4.615609396394575
63107.61578921877,166813.0,148251.0,17924.0,4.625709198131517
63107.62588902051,166812.0,148254.0,17937.0,4.635808999875735
63107.63598882226,166772.0,148200.0,17926.0,4.645908801619953
63107.646088624,166762.0,148189.0,17902.0,4.656008603364171
63107.656188425746,166798.0,148241.0,17892.0,4.666108405108389
63107.66628822748,166785.0,148231.0,17927.0,4.676208206845331
63107.67638802923,166773.0,148213.0,17945.0,4.686308008589549
63107.68648783097,166797.0,148267.0,17934.0,4.696407810333767
63107.696587632716,166771.0,148207.0,17941.0,4.706507612077985
63107.70668743446,166793.0,148236.0,17922.0,4.716607413822203
63107.7167872362,166789.0,148227.0,17911.0,4.726707215559145
63107.72688703794,166796.0,148245.0,17949.0,4.736807017303363
63107.736986839685,166794.0,148233.0,17944.0,4.746906819047581
63107.74708664143,166774.0,148231.0,17926.0,4.757006620791799
63107.75718644317,166763.0,148233.0,17918.0,4.767106422528741
63107.76728624491,166777.0,148245.0,17950.0,4.777206224272959
63107.777386046655,166754.0,148191.0,17925.0,4.787306026017177
63107.7874858484,166761.0,148202.0,17917.0,4.797405827761395
63107.79758565014,166751.0,148191.0,17910.0,4.807505629505613
63107.80768545188,166766.0,148196.0,17917.0,4.817605431242555
63107.817785253625,166760.0,148170.0,17921.0,4.827705232986773
63107.82788505537,166749.0,148196.0,17933.0,4.837805034730991
63107.83798485711,166758.0,148177.0,17920.0,4.847904836475209
63107.84808465886,166691.0,148157.0,17912.0,4.858004638219427
63107.858184460594,166664.0,148131.0,17902.0,4.868104439956369
63107.86828426234,166656.0,148121.0,17918.0,4.878204241700587
63107.87838406408,166628.0,148085.0,17897.0,4.888304043444805
63107.88848386583,166571.0,148064.0,17900.0,4.898403845189023
63107.898583667564,166617.0,148066.0,17928.0,4.908503646925965
63107.90868346931,166636.0,148079.0,17928.0,4.918603448670183
63107.91878327105,166598.0,148102.0,17905.0,4.928703250414401
63107.9288830728,166603.0,148102.0,17895.0,4.938803052158619
63107.93898287454,166580.0,148064.0,17892.0,4.948902853902837
63107.94908267628,166605.0,148063.0,17928.0,4.959002655639779
63107.95918247802,166581.0,148066.0,17901.0,4.969102457383997
63107.969282279766,166567.0,148064.0,17909.0,4.979202259128215
63107.97938208151,166570.0,148094.0,17917.0,4.989302060872433
63107.989481883254,166571.0,148019.0,17923.0,4.999401862616651
63107.99958168499,166581.0,148069.0,17903.0,5.009501664353593
63108.009681486736,166581.0,148077.0,17925.0,5.019601466097811
63108.01978128848,166538.0,148026.0,17889.0,5.029701267842029
63108.029881090224,166535.0,148056.0,17880.0,5.039801069586247
63108.03998089196,166560.0,148066.0,17912.0,5.049900871323189
63108.050080693705,166556.0,148050.0,17902.0,5.060000673067407
63108.06018049545,166557.0,148068.0,17924.0,5.070100474811625
63108.070280297194,166581.0,148088.0,17925.0,5.080200276555843
63108.08038009894,166559.0,148050.0,17902.0,5.090300078300061
63108.090479900675,166566.0,148042.0,17903.0,5.100399880037003
63108.10057970242,166580.0,148060.0,17900.0,5.110499681781221
63108.11067950416,166588.0,148066.0,17933.0,5.120599483525439
63108.12077930591,166562.0,148045.0,17910.0,5.130699285269657
63108.13087910765,166553.0,148057.0,17897.0,5.140799087013875
63108.14097890939,166572.0,148045.0,17919.0,5.150898888750817
63108.15107871113,166561.0,148056.0,17908.0,5.160998690495035
63108.16117851288,166547.0,148025.0,17908.0,5.171098492239253
63108.17127831462,166506.0,148025.0,17906.0,5.181198293983471
63108.18137811636,166538.0,148019.0,17890.0,5.191298095720413
63108.1914779181,166575.0,148028.0,17927.0,5.201397897464631
63108.20157771985,166553.0,148039.0,17913.0,5.211497699208849
63108.21167752159,166538.0,148054.0,17936.0,5.221597500953067
63108.221777323335,166551.0,148047.0,17894.0,5.231697302697285
63108.23187712507,166516.0,148022.0,17899.0,5.241797104434227
63108.241976926816,166556.0,148047.0,17908.0,5.251896906178445
63108.25207672856,166544.0,148027.0,17908.0,5.261996707922663
63108.262176530305,166534.0,148064.0,17914.0,5.272096509666881
63108.27227633205,166546.0,148053.0,17941.0,5.282196311411099
63108.282376133786,166572.0,148033.0,17916.0,5.292296113148041
63108.29247593553,166538.0,147999.0,17916.0,5.302395914892259
63108.302575737274,166534.0,148028.0,17937.0,5.312495716636477
63108.31267553902,166557.0,148030.0,17918.0,5.322595518380695
63108.322775340755,166537.0,148010.0,17891.0,5.332695320117637
63108.3328751425,166504.0,148000.0,17871.0,5.342795121861855
63108.342974944244,166506.0,148023.0,17906.0,5.3528949236060726
63108.35307474599,166516.0,148024.0,17884.0,5.3629947253502905
63108.36317454773,166480.0,148006.0,17879.0,5.3730945270945085
63108.37327434947,166479.0,147996.0,17875.0,5.3831943288314505
63108.38337415121,166458.0,147980.0,17895.0,5.3932941305756685
63108.39347395296,166452.0,147998.0,17882.0,5.4033939323198865
63108.4035737547,166471.0,147997.0,17853.0,5.4134937340641045
63108.413673556446,166479.0,147957.0,17871.0,5.4235935358083225
63108.42377335818,166477.0,147997.0,17828.0,5.4336933375452645
63108.43387315993,166470.0,147973.0,17871.0,5.4437931392894825
63108.44397296167,166465.0,147974.0,17881.0,5.4538929410337005
63108.454072763416,166492.0,148004.0,17876.0,5.4639927427779185
63108.46417256515,166487.0,148001.0,17887.0,5.4740925445148605
63108.4742723669,166487.0,148006.0,17864.0,5.4841923462590785
63108.48437216864,166505.0,148001.0,17875.0,5.4942921480032965
63108.494471970385,166505.0,148015.0,17881.0,5.5043919497475144
63108.50457177213,166508.0,148044.0,17900.0,5.514491751491732
63108.51467157387,166519.0,148011.0,17893.0,5.5245915532286745
63108.52477137561,166507.0,148038.0,17899.0,5.534691354972892
63108.534871177355,166520.0,148018.0,17890.0,5.54479115671711
63108.5449709791,166545.0,148029.0,17927.0,5.554890958461328
63108.55507078084,166516.0,147992.0,17894.0,5.564990760205546
63108.56517058258,166524.0,148012.0,17900.0,5.575090561942488
63108.575270384325,166509.0,148007.0,17894.0,5.585190363686706
63108.58537018607,166537.0,148007.0,17903.0,5.595290165430924
63108.59546998781,166476.0,147987.0,17884.0,5.605389967175142
63108.60556978955,166532.0,148020.0,17899.0,5.615489768912084
63108.615669591294,166514.0,147991.0,17896.0,5.625589570656302
63108.62576939304,166493.0,147990.0,17889.0,5.63568937240052
63108.63586919478,166522.0,147990.0,17898.0,5.645789174144738
63108.64596899653,166521.0,148024.0,17909.0,5.655888975888956
63108.656068798264,166501.0,147995.0,17900.0,5.665988777625898
63108.66616860001,166531.0,148028.0,17890.0,5.676088579370116
63108.67626840175,166537.0,148026.0,17903.0,5.686188381114334
63108.6863682035,166517.0,147991.0,17912.0,5.696288182858552
63108.69646800523,166507.0,147984.0,17922.0,5.706387984595494
63108.70656780698,166526.0,147969.0,17891.0,5.716487786339712
63108.71666760872,166494.0,147991.0,17880.0,5.72658758808393
63108.726767410466,166511.0,147997.0,17873.0,5.736687389828148
63108.73686721221,166523.0,148011.0,17901.0,5.746787191572366
63108.74696701395,166519.0,147990.0,17873.0,5.756886993309308
63108.75706681569,166530.0,147983.0,17914.0,5.766986795053526
63108.767166617436,166503.0,147978.0,17885.0,5.777086596797744
63108.77726641918,166528.0,148004.0,17889.0,5.787186398541962
63108.787366220924,166540.0,148026.0,17884.0,5.79728620028618
63108.79746602266,166542.0,147990.0,17873.0,5.807386002023122
63108.807565824405,166564.0,148028.0,17919.0,5.81748580376734
63108.81766562615,166538.0,148016.0,17906.0,5.827585605511558
63108.82776542789,166544.0,147994.0,17911.0,5.837685407255776
63108.83786522964,166561.0,148029.0,17931.0,5.847785208999994
63108.847965031375,166554.0,148046.0,17916.0,5.857885010736936
63108.85806483312,166545.0,148023.0,17910.0,5.867984812481154
63108.86816463486,166541.0,148019.0,17915.0,5.878084614225372
63108.87826443661,166564.0,148027.0,17907.0,5.88818441596959
63108.888364238344,166588.0,148029.0,17943.0,5.898284217706532
63108.89846404009,166567.0,148022.0,17897.0,5.90838401945075
63108.90856384183,166596.0,148036.0,17909.0,5.918483821194968
63108.91866364358,166603.0,148047.0,17926.0,5.928583622939186
63108.92876344532,166597.0,148044.0,17919.0,5.938683424683404
63108.93886324706,166612.0,148057.0,17935.0,5.948783226420346
63108.9489630488,166611.0,148049.0,17929.0,5.958883028164564
63108.95906285055,166595.0,148042.0,17903.0,5.968982829908782
63108.96916265229,166562.0,148003.0,17908.0,5.979082631653
63108.97926245403,166596.0,148040.0,17887.0,5.989182433389942
63108.98936225577,166580.0,148037.0,17912.0,5.99928223513416
63108.999462057516,166585.0,148035.0,17907.0,6.009382036878378
63109.00956185926,166592.0,148038.0,17916.0,6.019481838622596
63109.019661661005,166615.0,148022.0,17946.0,6.029581640366814
63109.02976146274,166590.0,148030.0,17912.0,6.039681442103756
63109.039861264486,166589.0,148043.0,17941.0,6.049781243847974
63109.04996106623,166611.0,148031.0,17882.0,6.059881045592192
63109.060060867974,166553.0,148010.0,17899.0,6.06998084733641
63109.07016066972,166557.0,148024.0,17900.0,6.080080649080628
63109.080260471455,166538.0,148011.0,17867.0,6.09018045081757
63109.0903602732,166548.0,148047.0,17921.0,6.100280252561788
63109.100460074944,166475.0,147991.0,17844.0,6.110380054306006
63109.11055987669,166517.0,147991.0,17880.0,6.120479856050224
63109.120659678425,166529.0,148012.0,17857.0,6.130579657787166
63109.13075948017,166512.0,148004.0,17906.0,6.140679459531384
63109.14085928191,166565.0,148033.0,17892.0,6.150779261275602
63109.15095908366,166531.0,148007.0,17884.0,6.16087906301982
63109.1610588854,166527.0,148047.0,17872.0,6.170978864764038
63109.17115868714,166521.0,148004.0,17874.0,6.18107866650098
63109.18125848888,166543.0,148030.0,17856.0,6.191178468245198
63109.19135829063,166548.0,148021.0,17895.0,6.201278269989416
63109.20145809237,166540.0,148028.0,17918.0,6.211378071733634
63109.211557894116,166547.0,148009.0,17873.0,6.221477873477852
63109.22165769585,166566.0,148026.0,17905.0,6.231577675214794
63109.2317574976,166529.0,148022.0,17877.0,6.241677476959012
63109.24185729934,166530.0,148023.0,17898.0,6.25177727870323
63109.251957101085,166560.0,148012.0,17883.0,6.261877080447448
63109.26205690282,166582.0,148033.0,17929.0,6.27197688218439
63109.27215670457,166567.0,148020.0,17894.0,6.282076683928608
63109.28225650631,166538.0,148017.0,17884.0,6.292176485672826
63109.292356308055,166574.0,148053.0,17929.0,6.302276287417044
63109.3024561098,166583.0,148012.0,17894.0,6.312376089161262
63109.312555911536,166586.0,148037.0,17912.0,6.322475890898204
63109.32265571328,166583.0,148027.0,17878.0,6.332575692642422
63109.332755515024,166593.0,147997.0,17884.0,6.34267549438664
63109.34285531677,166577.0,148026.0,17934.0,6.352775296130858
63109.35295511851,166576.0,148025.0,17897.0,6.362875097875076
63109.36305492025,166574.0,148060.0,17914.0,6.372974899612018
63109.373154721994,166548.0,148002.0,17890.0,6.383074701356236
63109.38325452374,166552.0,148007.0,17885.0,6.393174503100454
63109.39335432548,166566.0,148019.0,17919.0,6.403274304844672
63109.40345412722,166548.0,148046.0,17894.0,6.413374106581614
63109.413553928964,166562.0,147998.0,17888.0,6.423473908325832
63109.42365373071,166545.0,148054.0,17910.0,6.43357371007005
63109.43375353245,166569.0,148043.0,17893.0,6.443673511814268
63109.443853334196,166591.0,148023.0,17902.0,6.453773313558486
63109.45395313593,166582.0,148029.0,17889.0,6.463873115295428
63109.46405293768,166611.0,148032.0,17930.0,6.473972917039646
63109.47415273942,166558.0,148009.0,17889.0,6.484072718783864
63109.484252541166,166599.0,148040.0,17910.0,6.494172520528082
63109.49435234291,166587.0,148077.0,17918.0,6.5042723222723
63109.50445214465,166580.0,148016.0,17883.0,6.514372124009242
63109.51455194639,166585.0,148024.0,17906.0,6.52447192575346
63109.524651748136,166608.0,148045.0,17922.0,6.534571727497678
63109.53475154988,166605.0,148060.0,17941.0,6.544671529241896
63109.54485135162,166587.0,148033.0,17922.0,6.554771330978838
63109.55495115336,166594.0,148039.0,17900.0,6.564871132723056
63109.565050955105,166624.0,148060.0,17916.0,6.574970934467274
63109.57515075685,166659.0,148063.0,17945.0,6.585070736211492
63109.58525055859,166612.0,148031.0,17920.0,6.59517053795571
63109.59535036033,166643.0,148049.0,17920.0,6.605270339692652
63109.605450162075,166646.0,148057.0,17921.0,6.61537014143687
63109.61554996382,166619.0,148080.0,17932.0,6.625469943181088
63109.62564976556,166610.0,148057.0,17902.0,6.635569744925306
63109.63574956731,166675.0,148079.0,17957.0,6.645669546669524
63109.645849369044,166643.0,148042.0,17922.0,6.655769348406466
63109.65594917079,166641.0,148064.0,17890.0,6.665869150150684
63109.66604897253,166634.0,148036.0,17920.0,6.675968951894902
63109.67614877428,166641.0,148046.0,17934.0,6.68606875363912
63109.686248576014,166625.0,148034.0,17923.0,6.696168555376062
63109.69634837776,166594.0,148035.0,17930.0,6.70626835712028
63109.7064481795,166637.0,148050.0,17919.0,6.716368158864498
63109.71654798125,166623.0,148009.0,17937.0,6.726467960608716
63109.72664778299,166637.0,148044.0,17919.0,6.736567762352934
63109.73674758473,166621.0,148016.0,17916.0,6.746667564089876
63109.74684738647,166659.0,148044.0,17946.0,6.756767365834094
63109.756947188216,166584.0,148030.0,17883.0,6.766867167578312
63109.76704698996,166614.0,148019.0,17910.0,6.77696696932253
63109.777146791705,166619.0,148023.0,17908.0,6.787066771066748
63109.78724659344,166624.0,148034.0,17913.0,6.79716657280369
63109.797346395186,166565.0,147992.0,17883.0,6.807266374547908
63109.80744619693,166566.0,148017.0,17881.0,6.817366176292126
63109.817545998674,166586.0,148063.0,17909.0,6.827465978036344
63109.82764580041,166577.0,148004.0,17874.0,6.837565779773286
63109.837745602155,166593.0,148044.0,17906.0,6.847665581517504
63109.8478454039,166578.0,148017.0,17879.0,6.857765383261722
63109.857945205644,166570.0,148020.0,17876.0,6.86786518500594
63109.86804500739,166567.0,148008.0,17884.0,6.8779649867501575
63109.878144809125,166609.0,148060.0,17902.0,6.8880647884871
63109.88824461087,166598.0,148032.0,17888.0,6.898164590231318
63109.89834441261,166550.0,148003.0,17901.0,6.9082643919755355
63109.90844421436,166606.0,148046.0,17914.0,6.9183641937197535
63109.9185440161,166617.0,148056.0,17920.0,6.9284639954639715
63109.92864381784,166595.0,148053.0,17902.0,6.9385637972009135
63109.93874361958,166605.0,148023.0,17912.0,6.9486635989451315
63109.94884342133,166647.0,148083.0,17889.0,6.9587634006893495
63109.95894322307,166623.0,148052.0,17881.0,6.9688632024335675
63109.96904302481,166635.0,148052.0,17915.0,6.9789630041705095
63109.97914282655,166654.0,148071.0,17915.0,6.9890628059147275
63109.9892426283,166664.0,148078.0,17920.0,6.9991626076589455
63109.99934243004,166641.0,148050.0,17900.0,7.0092624094031635
63110.009442231785,166693.0,148063.0,17898.0,7.0193622111473815
63110.01954203352,166666.0,148064.0,17916.0,7.0294620128843235
63110.02964183527,166651.0,148045.0,17923.0,7.0395618146285415
63110.03974163701,166662.0,148061.0,17912.0,7.0496616163727595
63110.049841438755,166683.0,148065.0,17928.0,7.059761418116977
63110.0599412405,166658.0,148043.0,17916.0,7.069861219861195
63110.070041042236,166649.0,148029.0,17881.0,7.0799610215981374
63110.08014084398,166660.0,148048.0,17911.0,7.090060823342355
63110.090240645724,166664.0,148054.0,17934.0,7.100160625086573
63110.10034044747,166650.0,148039.0,17910.0,7.110260426830791
63110.110440249206,166621.0,148031.0,17887.0,7.120360228567733
63110.12054005095,166647.0,148062.0,17925.0,7.130460030311951
63110.130639852694,166644.0,148045.0,17903.0,7.140559832056169
63110.14073965444,166652.0,148053.0,17913.0,7.150659633800387
63110.15083945618,166676.0,148060.0,17890.0,7.160759435544605
63110.16093925792,166659.0,148044.0,17896.0,7.170859237281547
63110.17103905966,166628.0,148023.0,17897.0,7.180959039025765
63110.18113886141,166670.0,148060.0,17914.0,7.191058840769983
63110.19123866315,166663.0,148079.0,17900.0,7.201158642514201
63110.201338464896,166704.0,148074.0,17945.0,7.211258444258419
63110.21143826663,166684.0,148074.0,17893.0,7.221358245995361
63110.22153806838,166681.0,148063.0,17933.0,7.231458047739579
63110.23163787012,166682.0,148081.0,17925.0,7.241557849483797
63110.241737671866,166653.0,148059.0,17900.0,7.251657651228015
63110.2518374736,166661.0,148074.0,17932.0,7.261757452964957
63110.26193727535,166664.0,148064.0,17910.0,7.271857254709175
63110.27203707709,166673.0,148038.0,17906.0,7.281957056453393
63110.282136878835,166646.0,148027.0,17910.0,7.292056858197611
63110.29223668058,166696.0,148053.0,17927.0,7.302156659941829
63110.30233648232,166691.0,148072.0,17932.0,7.312256461678771
63110.31243628406,166635.0,148057.0,17914.0,7.322356263422989
63110.322536085805,166659.0,148076.0,17920.0,7.332456065167207
63110.33263588755,166705.0,148060.0,17949.0,7.342555866911425
63110.34273568929,166685.0,148053.0,17925.0,7.352655668655643
63110.35283549103,166687.0,148072.0,17899.0,7.362755470392585
63110.362935292775,166708.0,148057.0,17939.0,7.372855272136803
63110.37303509452,166650.0,148014.0,17928.0,7.382955073881021
63110.38313489626,166672.0,148050.0,17914.0,7.393054875625239
63110.393234698,166636.0,148033.0,17934.0,7.403154677362181
63110.403334499744,166684.0,148055.0,17948.0,7.413254479106399
63110.41343430149,166650.0,147995.0,17917.0,7.423354280850617
63110.42353410323,166661.0,148033.0,17907.0,7.433454082594835
63110.43363390498,166654.0,148037.0,17925.0,7.443553884339053
63110.443733706714,166626.0,148011.0,17918.0,7.453653686075995
63110.45383350846,166596.0,148022.0,17895.0,7.463753487820213
63110.4639333102,166587.0,148008.0,17891.0,7.473853289564431
63110.47403311195,166607.0,148018.0,17888.0,7.483953091308649
63110.48413291369,166585.0,147992.0,17879.0,7.494052893052867
63110.49423271543,166600.0,147981.0,17880.0,7.504152694789809
63110.50433251717,166612.0,148032.0,17903.0,7.514252496534027
63110.514432318916,166612.0,148024.0,17889.0,7.524352298278245
63110.52453212066,166579.0,148017.0,17880.0,7.534452100022463
63110.5346319224,166609.0,148033.0,17896.0,7.544551901759405
63110.54473172414,166604.0,148022.0,17879.0,7.554651703503623
63110.554831525886,166598.0,148035.0,17893.0,7.564751505247841
63110.56493132763,166610.0,148014.0,17896.0,7.574851306992059
63110.575031129374,166609.0,148044.0,17918.0,7.584951108736277
63110.58513093111,166605.0,148014.0,17886.0,7.595050910473219
63110.595230732855,166629.0,148050.0,17896.0,7.605150712217437
63110.6053305346,166636.0,148049.0,17904.0,7.615250513961655
63110.615430336344,166662.0,148034.0,17909.0,7.625350315705873
63110.62553013809,166606.0,148027.0,17890.0,7.635450117450091
63110.635629939825,166643.0,148043.0,17921.0,7.645549919187033
63110.64572974157,166664.0,148056.0,17919.0,7.655649720931251
63110.65582954331,166614.0,148034.0,17908.0,7.665749522675469
63110.66592934506,166659.0,148071.0,17931.0,7.675849324419687
63110.676029146794,166648.0,148036.0,17910.0,7.685949126156629
63110.68612894854,166672.0,148041.0,17903.0,7.696048927900847
63110.69622875028,166627.0,148033.0,17876.0,7.706148729645065
63110.70632855203,166668.0,148057.0,17939.0,7.716248531389283
63110.71642835377,166648.0,148029.0,17909.0,7.726348333133501
63110.72652815551,166617.0,148006.0,17955.0,7.736448134870443
63110.73662795725,166629.0,148026.0,17895.0,7.746547936614661
63110.746727759,166632.0,148002.0,17911.0,7.756647738358879
63110.75682756074,166645.0,148037.0,17909.0,7.766747540103097
63110.766927362485,166644.0,148022.0,17884.0,7.776847341847315
63110.77702716422,166611.0,148024.0,17922.0,7.786947143584257
63110.787126965966,166620.0,148024.0,17916.0,7.797046945328475
63110.79722676771,166649.0,148035.0,17907.0,7.807146747072693
63110.807326569455,166619.0,148029.0,17883.0,7.817246548816911
63110.81742637119,166656.0,148029.0,17914.0,7.827346350553853
63110.827526172936,166654.0,148030.0,17896.0,7.837446152298071
63110.83762597468,166646.0,148047.0,17916.0,7.847545954042289
63110.847725776424,166649.0,148044.0,17889.0,7.857645755786507
63110.85782557817,166631.0,148033.0,17891.0,7.867745557530725
63110.867925379906,166683.0,148071.0,17937.0,7.877845359267667
63110.87802518165,166659.0,148056.0,17921.0,7.887945161011885
63110.888124983394,166671.0,148079.0,17925.0,7.898044962756103
63110.89822478514,166660.0,148044.0,17921.0,7.908144764500321
63110.90832458688,166674.0,148053.0,17900.0,7.918244566244539
63110.91842438862,166688.0,148068.0,17935.0,7.928344367981481
63110.92852419036,166671.0,148035.0,17943.0,7.938444169725699
63110.93862399211,166659.0,148052.0,17912.0,7.948543971469917
63110.94872379385,166674.0,148085.0,17927.0,7.958643773214135
63110.95882359559,166693.0,148071.0,17916.0,7.968743574951077
63110.96892339733,166700.0,148057.0,17934.0,7.978843376695295
63110.97902319908,166728.0,148114.0,17939.0,7.988943178439513
63110.98912300082,166724.0,148093.0,17947.0,7.999042980183731
63110.999222802566,166713.0,148082.0,17938.0,8.009142781927949
63111.0093226043,166732.0,148090.0,17930.0,8.01924258366489
63111.01942240605,166702.0,148117.0,17929.0,8.029342385409109
63111.02952220779,166746.0,148109.0,17950.0,8.039442187153327
63111.039622009535,166739.0,148100.0,17912.0,8.049541988897545
63111.04972181128,166733.0,148086.0,17929.0,8.059641790641763
63111.05982161302,166711.0,148100.0,17971.0,8.069741592378705
63111.06992141476,166687.0,148078.0,17937.0,8.079841394122923
63111.080021216505,166735.0,148107.0,17942.0,8.08994119586714
63111.09012101825,166709.0,148083.0,17916.0,8.100040997611359
63111.100220819986,166710.0,148031.0,17940.0,8.1101407993483
63111.11032062173,166674.0,148066.0,17901.0,8.120240601092519
63111.120420423475,166685.0,148061.0,17905.0,8.130340402836737
63111.13052022522,166664.0,148070.0,17903.0,8.140440204580955
63111.14062002696,166677.0,148085.0,17886.0,8.150540006325173
63111.1507198287,166640.0,148100.0,17898.0,8.160639808062115
63111.160819630444,166674.0,148101.0,17930.0,8.170739609806333
63111.17091943219,166669.0,148086.0,17904.0,8.18083941155055
63111.18101923393,166689.0,148114.0,17902.0,8.190939213294769
63111.19111903568,166670.0,148070.0,17895.0,8.201039015038987
63111.201218837414,166677.0,148103.0,17883.0,8.211138816775929
63111.21131863916,166663.0,148080.0,17900.0,8.221238618520147
63111.2214184409,166672.0,148063.0,17941.0,8.231338420264365
63111.23151824265,166700.0,148135.0,17939.0,8.241438222008583
63111.24161804438,166676.0,148037.0,17909.0,8.251538023745525
63111.25171784613,166693.0,148103.0,17920.0,8.261637825489743
63111.26181764787,166683.0,148075.0,17915.0,8.27173762723396
63111.271917449616,166724.0,148107.0,17935.0,8.281837428978179
63111.28201725136,166694.0,148131.0,17925.0,8.291937230722397
63111.2921170531,166718.0,148108.0,17926.0,8.302037032459339
63111.30221685484,166751.0,148094.0,17936.0,8.312136834203557
63111.312316656586,166697.0,148073.0,17912.0,8.322236635947775
63111.32241645833,166727.0,148077.0,17922.0,8.332336437691993
63111.332516260074,166732.0,148101.0,17922.0,8.34243623943621
63111.34261606181,166743.0,148140.0,17942.0,8.352536041173153
63111.352715863555,166737.0,148119.0,17909.0,8.36263584291737
63111.3628156653,166739.0,148112.0,17951.0,8.372735644661589
63111.372915467044,166709.0,148107.0,17932.0,8.382835446405807
63111.38301526878,166699.0,148073.0,17915.0,8.392935248142749
63111.393115070525,166743.0,148125.0,17945.0,8.403035049886967
63111.40321487227,166690.0,148104.0,17913.0,8.413134851631185
63111.41331467401,166712.0,148099.0,17954.0,8.423234653375403
63111.42341447576,166719.0,148094.0,17936.0,8.43333445511962
63111.433514277494,166731.0,148120.0,17925.0,8.443434256856563
63111.44361407924,166677.0,148118.0,17918.0,8.45353405860078
63111.45371388098,166684.0,148095.0,17904.0,8.463633860344999
63111.46381368273,166714.0,148103.0,17917.0,8.473733662089217
63111.47391348447,166697.0,148145.0,17924.0,8.483833463833435
63111.48401328621,166725.0,148121.0,17951.0,8.493933265570377
63111.49411308795,166701.0,148094.0,17913.0,8.504033067314595
63111.5042128897,166732.0,148120.0,17918.0,8.514132869058813
63111.51431269144,166718.0,148094.0,17927.0,8.52423267080303
63111.52441249318,166676.0,148069.0,17896.0,8.534332472539973
63111.53451229492,166722.0,148095.0,17906.0,8.54443227428419
63111.544612096666,166729.0,148099.0,17923.0,8.554532076028408
63111.55471189841,166718.0,148114.0,17932.0,8.564631877772626
63111.564811700155,166750.0,148135.0,17953.0,8.574731679516844
63111.57491150189,166745.0,148115.0,17949.0,8.584831481253786
63111.585011303636,166744.0,148114.0,17923.0,8.594931282998004
63111.59511110538,166726.0,148104.0,17932.0,8.605031084742222
63111.605210907124,166755.0,148091.0,17945.0,8.61513088648644
63111.61531070887,166766.0,148144.0,17958.0,8.625230688230658
63111.625410510605,166744.0,148115.0,17924.0,8.6353304899676
63111.63551031235,166739.0,148119.0,17917.0,8.645430291711818
63111.645610114094,166723.0,148114.0,17918.0,8.655530093456036
63111.65570991584,166767.0,148127.0,17953.0,8.665629895200254
63111.665809717575,166749.0,148114.0,17936.0,8.675729696937196
63111.67590951932,166765.0,148137.0,17943.0,8.685829498681414
63111.68600932106,166723.0,148104.0,17950.0,8.695929300425632
63111.69610912281,166712.0,148086.0,17923.0,8.70602910216985
63111.70620892455,166729.0,148120.0,17926.0,8.716128903914068
63111.71630872629,166684.0,148093.0,17897.0,8.72622870565101
63111.72640852803,166734.0,148094.0,17936.0,8.736328507395228
63111.73650832978,166708.0,148100.0,17928.0,8.746428309139446
63111.74660813152,166703.0,148109.0,17904.0,8.756528110883664
63111.756707933266,166655.0,148072.0,17906.0,8.766627912627882
63111.766807735,166665.0,148119.0,17886.0,8.776727714364824
63111.77690753675,166668.0,148082.0,17877.0,8.786827516109042
63111.78700733849,166680.0,148088.0,17902.0,8.79692731785326
63111.797107140235,166680.0,148099.0,17915.0,8.807027119597478
63111.80720694197,166711.0,148110.0,17878.0,8.81712692133442
63111.81730674372,166699.0,148120.0,17924.0,8.827226723078638
63111.82740654546,166686.0,148104.0,17904.0,8.837326524822856
63111.837506347205,166675.0,148081.0,17897.0,8.847426326567074
63111.84760614895,166679.0,148088.0,17882.0,8.857526128311292
63111.857705950686,166708.0,148127.0,17913.0,8.867625930048234
63111.86780575243,166716.0,148119.0,17909.0,8.877725731792452
63111.877905554175,166717.0,148100.0,17920.0,8.88782553353667
63111.88800535592,166691.0,148116.0,17894.0,8.897925335280888
63111.89810515766,166744.0,148146.0,17927.0,8.908025137025106
63111.9082049594,166717.0,148146.0,17906.0,8.918124938762048
63111.918304761144,166723.0,148121.0,17956.0,8.928224740506266
63111.92840456289,166708.0,148120.0,17898.0,8.938324542250484
63111.93850436463,166748.0,148140.0,17941.0,8.948424343994702
63111.94860416637,166723.0,148125.0,17903.0,8.958524145731644
63111.958703968114,166744.0,148114.0,17910.0,8.968623947475862
63111.96880376986,166751.0,148146.0,17890.0,8.97872374922008
63111.9789035716,166716.0,148114.0,17909.0,8.988823550964298
63111.989003373346,166710.0,148105.0,17908.0,8.998923352708516
63111.99910317508,166729.0,148121.0,17916.0,9.009023154445458
63112.00920297683,166713.0,148118.0,17894.0,9.019122956189676
63112.01930277857,166720.0,148102.0,17906.0,9.029222757933894
63112.029402580316,166707.0,148149.0,17930.0,9.039322559678112
63112.03950238206,166730.0,148119.0,17913.0,9.04942236142233
63112.0496021838,166725.0,148131.0,17904.0,9.059522163159272
63112.05970198554,166711.0,148138.0,17903.0,9.06962196490349
63112.069801787286,166751.0,148144.0,17942.0,9.079721766647708
63112.07990158903,166724.0,148133.0,17909.0,9.089821568391926
63112.09000139077,166734.0,148142.0,17894.0,9.099921370128868
63112.10010119251,166728.0,148131.0,17892.0,9.110021171873086
63112.110200994255,166720.0,148151.0,17909.0,9.120120973617304
63112.120300796,166756.0,148125.0,17923.0,9.130220775361522
63112.13040059774,166763.0,148125.0,17908.0,9.14032057710574
63112.14050039948,166750.0,148101.0,17911.0,9.150420378842682
63112.150600201225,166745.0,148107.0,17912.0,9.1605201805869
63112.16070000297,166767.0,148140.0,17926.0,9.170619982331118
63112.17079980471,166765.0,148149.0,17887.0,9.180719784075336
63112.18089960646,166791.0,148158.0,17920.0,9.190819585819554
63112.190999408194,166770.0,148139.0,17916.0,9.200919387556496
63112.20109920994,166807.0,148163.0,17933.0,9.211019189300714
63112.21119901168,166796.0,148168.0,17930.0,9.221118991044932
63112.22129881343,166773.0,148181.0,17929.0,9.23121879278915
63112.231398615164,166799.0,148176.0,17920.0,9.241318594526092
63112.24149841691,166798.0,148163.0,17938.0,9.25141839627031
63112.25159821865,166798.0,148196.0,17962.0,9.261518198014528
63112.2616980204,166776.0,148159.0,17927.0,9.271617999758746
63112.27179782214,166817.0,148178.0,17965.0,9.281717801502964
63112.28189762388,166809.0,148151.0,17930.0,9.291817603239906
63112.29199742562,166861.0,148157.0,17951.0,9.301917404984124
63112.302097227366,166806.0,148149.0,17938.0,9.312017206728342
63112.31219702911,166782.0,148144.0,17915.0,9.32211700847256
63112.322296830855,166786.0,148167.0,17924.0,9.332216810216778
63112.33239663259,166741.0,148143.0,17906.0,9.34231661195372
63112.342496434336,166789.0,148157.0,17931.0,9.352416413697938
63112.35259623608,166732.0,148137.0,17886.0,9.362516215442156
63112.362696037824,166746.0,148145.0,17901.0,9.372616017186374
63112.37279583956,166718.0,148142.0,17900.0,9.382715818923316
63112.382895641305,166744.0,148155.0,17919.0,9.392815620667534
63112.39299544305,166708.0,148114.0,17875.0,9.402915422411752
63112.403095244794,166725.0,148135.0,17907.0,9.41301522415597
63112.41319504654,166719.0,148164.0,17900.0,9.423115025900188
63112.423294848275,166713.0,148148.0,17917.0,9.43321482763713
63112.43339465002,166736.0,148191.0,17878.0,9.443314629381348
63112.44349445176,166770.0,148190.0,17950.0,9.453414431125566
63112.45359425351,166744.0,148168.0,17911.0,9.463514232869784
63112.46369405525,166751.0,148141.0,17913.0,9.473614034614002
63112.47379385699,166794.0,148214.0,17930.0,9.483713836350944
63112.48389365873,166828.0,148196.0,17956.0,9.493813638095162
63112.49399346048,166824.0,148244.0,17923.0,9.50391343983938
63112.50409326222,166817.0,148201.0,17913.0,9.514013241583598
63112.51419306396,166856.0,148229.0,17951.0,9.52411304332054
63112.5242928657,166797.0,148185.0,17943.0,9.534212845064758
63112.53439266745,166837.0,148206.0,17927.0,9.544312646808976
63112.54449246919,166804.0,148203.0,17930.0,9.554412448553194
63112.554592270935,166851.0,148198.0,17946.0,9.564512250297412
63112.56469207267,166801.0,148194.0,17927.0,9.574612052034354
63112.57479187442,166821.0,148208.0,17920.0,9.584711853778572
63112.58489167616,166807.0,148190.0,17938.0,9.59481165552279
63112.594991477905,166761.0,148174.0,17921.0,9.604911457267008
63112.60509127965,166777.0,148198.0,17920.0,9.615011259011226
63112.615191081386,166808.0,148189.0,17923.0,9.625111060748168
63112.62529088313,166812.0,148185.0,17910.0,9.635210862492386
63112.635390684874,166780.0,148169.0,17913.0,9.645310664236604
63112.64549048662,166803.0,148180.0,17930.0,9.655410465980822
63112.655590288356,166809.0,148194.0,17917.0,9.665510267717764
63112.6656900901,166790.0,148216.0,17927.0,9.675610069461982
63112.675789891844,166777.0,148184.0,17906.0,9.6857098712062
63112.68588969359,166823.0,148203.0,17945.0,9.695809672950418
63112.69598949533,166809.0,148186.0,17924.0,9.705909474694636
63112.70608929707,166788.0,148156.0,17914.0,9.716009276431578
63112.71618909881,166833.0,148175.0,17927.0,9.726109078175796
63112.72628890056,166783.0,148155.0,17924.0,9.736208879920014
63112.7363887023,166821.0,148192.0,17926.0,9.746308681664232
63112.746488504046,166796.0,148194.0,17943.0,9.75640848340845
63112.75658830578,166869.0,148229.0,17949.0,9.766508285145392
63112.76668810753,166860.0,148206.0,17933.0,9.77660808688961
63112.77678790927,166871.0,148233.0,17938.0,9.786707888633828
63112.786887711016,166874.0,148202.0,17926.0,9.796807690378046
63112.79698751275,166874.0,148252.0,17967.0,9.806907492114988
63112.8070873145,166847.0,148201.0,17911.0,9.817007293859206
63112.81718711624,166851.0,148218.0,17933.0,9.827107095603424
63112.827286917985,166884.0,148218.0,17956.0,9.837206897347642
63112.83738671973,166864.0,148198.0,17946.0,9.84730669909186
63112.84748652147,166841.0,148194.0,17947.0,9.857406500828802
63112.85758632321,166838.0,148222.0,17935.0,9.86750630257302
63112.867686124955,166864.0,148239.0,17945.0,9.877606104317238
63112.8777859267,166838.0,148195.0,17923.0,9.887705906061456
63112.88788572844,166836.0,148226.0,17929.0,9.897805707805674
63112.89798553018,166841.0,148214.0,17940.0,9.907905509542616
63112.908085331925,166840.0,148212.0,17939.0,9.918005311286834
63112.91818513367,166811.0,148166.0,17906.0,9.928105113031052
63112.92828493541,166852.0,148229.0,17891.0,9.93820491477527
63112.93838473715,166800.0,148198.0,17881.0,9.948304716512212
63112.948484538894,166766.0,148201.0,17927.0,9.95840451825643
63112.95858434064,166783.0,148228.0,17902.0,9.968504320000648
63112.96868414238,166801.0,148202.0,17910.0,9.978604121744866
63112.97878394413,166743.0,148176.0,17868.0,9.988703923489084
63112.988883745864,166779.0,148179.0,17906.0,9.998803725226026
63112.99898354761,166809.0,148222.0,17893.0,10.008903526970244
63113.00908334935,166781.0,148197.0,17890.0,10.019003328714462
63113.0191831511,166791.0,148198.0,17900.0,10.02910313045868
63113.02928295283,166779.0,148220.0,17899.0,10.039202932195622
63113.03938275458,166785.0,148175.0,17901.0,10.04930273393984
63113.04948255632,166761.0,148154.0,17889.0,10.059402535684058
63113.059582358066,166777.0,148170.0,17885.0,10.069502337428275
63113.06968215981,166774.0,148184.0,17904.0,10.079602139172493
63113.07978196155,166773.0,148188.0,17939.0,10.089701940909436
63113.08988176329,166771.0,148172.0,17891.0,10.099801742653653
63113.099981565036,166778.0,148184.0,17895.0,10.109901544397871
63113.11008136678,166761.0,148199.0,17897.0,10.12000134614209
63113.120181168524,166764.0,148156.0,17895.0,10.130101147886307
63113.13028097026,166794.0,148208.0,17885.0,10.14020094962325
63113.140380772005,166756.0,148183.0,17885.0,10.150300751367467
63113.15048057375,166773.0,148186.0,17911.0,10.160400553111685
63113.160580375494,166764.0,148163.0,17907.0,10.170500354855903
63113.17068017724,166751.0,148181.0,17930.0,10.180600156600121
63113.180779978975,166731.0,148181.0,17889.0,10.190699958337063
63113.19087978072,166736.0,148155.0,17901.0,10.200799760081281
63113.20097958246,166729.0,148154.0,17878.0,10.2108995618255
63113.21107938421,166726.0,148154.0,17899.0,10.220999363569717
63113.221179185944,166691.0,148124.0,17877.0,10.23109916530666
63113.23127898769,166736.0,148156.0,17898.0,10.241198967050877
63113.24137878943,166775.0,148194.0,17915.0,10.251298768795095
63113.25147859118,166744.0,148149.0,17916.0,10.261398570539313
63113.26157839292,166725.0,148150.0,17873.0,10.271498372283531
63113.27167819466,166731.0,148154.0,17897.0,10.281598174020473
63113.2817779964,166727.0,148179.0,17918.0,10.291697975764691
63113.29187779815,166725.0,148139.0,17903.0,10.30179777750891
63113.30197759989,166718.0,148188.0,17899.0,10.311897579253127
63113.31207740163,166739.0,148163.0,17910.0,10.32199738099007
63113.32217720337,166784.0,148149.0,17922.0,10.332097182734287
63113.332277005116,166750.0,148182.0,17917.0,10.342196984478505
63113.34237680686,166780.0,148206.0,17926.0,10.352296786222723
63113.352476608605,166776.0,148179.0,17902.0,10.362396587966941
63113.36257641034,166784.0,148174.0,17896.0,10.372496389703883
63113.372676212086,166772.0,148223.0,17912.0,10.382596191448101
63113.38277601383,166806.0,148221.0,17948.0,10.39269599319232
63113.392875815574,166796.0,148194.0,17920.0,10.402795794936537
63113.40297561732,166769.0,148190.0,17912.0,10.412895596680755
63113.413075419056,166789.0,148194.0,17944.0,10.422995398417697
63113.4231752208,166777.0,148196.0,17920.0,10.433095200161915
63113.433275022544,166798.0,148202.0,17914.0,10.443195001906133
63113.44337482429,166795.0,148223.0,17928.0,10.453294803650351
63113.45347462603,166797.0,148195.0,17912.0,10.46339460539457
63113.46357442777,166801.0,148192.0,17918.0,10.473494407131511
63113.47367422951,166810.0,148213.0,17926.0,10.48359420887573
63113.48377403126,166826.0,148233.0,17921.0,10.493694010619947
63113.493873833,166798.0,148193.0,17936.0,10.503793812364165
63113.50397363474,166806.0,148236.0,17921.0,10.513893614101107
63113.51407343648,166846.0,148200.0,17943.0,10.523993415845325
63113.52417323823,166774.0,148209.0,17902.0,10.534093217589543
63113.53427303997,166746.0,148166.0,17887.0,10.544193019333761
63113.544372841716,166766.0,148191.0,17894.0,10.55429282107798
63113.55447264345,166723.0,148165.0,17884.0,10.564392622814921
63113.5645724452,166732.0,148174.0,17890.0,10.57449242455914
63113.57467224694,166700.0,148151.0,17882.0,10.584592226303357
63113.584772048685,166727.0,148179.0,17902.0,10.594692028047575
63113.59487185042,166716.0,148148.0,17895.0,10.604791829784517
63113.60497165217,166737.0,148183.0,17891.0,10.614891631528735
63113.61507145391,166706.0,148158.0,17868.0,10.624991433272953
63113.625171255655,166775.0,148218.0,17895.0,10.635091235017171
63113.6352710574,166740.0,148221.0,17884.0,10.64519103676139
63113.645370859136,166773.0,148195.0,17898.0,10.655290838498331
63113.65547066088,166786.0,148194.0,17923.0,10.66539064024255
63113.665570462625,166782.0,148189.0,17891.0,10.675490441986767
63113.67567026437,166770.0,148206.0,17884.0,10.685590243730985
63113.68577006611,166785.0,148233.0,17910.0,10.695690045475203
63113.69586986785,166818.0,148258.0,17902.0,10.705789847212145
63113.705969669594,166803.0,148199.0,17901.0,10.715889648956363
63113.71606947134,166786.0,148232.0,17910.0,10.725989450700581
63113.72616927308,166798.0,148217.0,17908.0,10.736089252444799
63113.73626907482,166820.0,148216.0,17932.0,10.746189054181741
63113.746368876564,166820.0,148220.0,17918.0,10.756288855925959
63113.75646867831,166789.0,148212.0,17915.0,10.766388657670177
63113.76656848005,166803.0,148226.0,17921.0,10.776488459414395
63113.7766682818,166775.0,148178.0,17908.0,10.786588261158613
63113.78676808353,166800.0,148228.0,17902.0,10.796688062895555
63113.79686788528,166815.0,148211.0,17946.0,10.806787864639773
63113.80696768702,166805.0,148224.0,17902.0,10.816887666383991
63113.817067488766,166804.0,148203.0,17875.0,10.826987468128209
63113.82716729051,166818.0,148241.0,17919.0,10.837087269872427
63113.83726709225,166790.0,148234.0,17888.0,10.847187071609369
63113.84736689399,166802.0,148235.0,17903.0,10.857286873353587
63113.857466695736,166814.0,148229.0,17908.0,10.867386675097805
63113.86756649748,166811.0,148207.0,17933.0,10.877486476842023
63113.87766629922,166786.0,148225.0,17876.0,10.887586278578965
63113.88776610096,166827.0,148226.0,17916.0,10.897686080323183
63113.897865902705,166820.0,148237.0,17881.0,10.907785882067401
63113.90796570445,166782.0,148234.0,17918.0,10.917885683811619
63113.918065506194,166814.0,148222.0,17902.0,10.927985485555837
63113.92816530793,166826.0,148250.0,17919.0,10.938085287292779
63113.938265109675,166819.0,148250.0,17916.0,10.948185089036997
63113.94836491142,166799.0,148211.0,17903.0,10.958284890781215
63113.95846471316,166852.0,148262.0,17926.0,10.968384692525433
63113.96856451491,166845.0,148242.0,17930.0,10.978484494269651
63113.978664316644,166825.0,148258.0,17932.0,10.988584296006593
63113.98876411839,166840.0,148231.0,17917.0,10.998684097750811
63113.99886392013,166828.0,148273.0,17924.0,11.008783899495029
63114.00896372188,166840.0,148248.0,17931.0,11.018883701239247
63114.019063523614,166838.0,148244.0,17927.0,11.028983502976189
63114.02916332536,166850.0,148254.0,17900.0,11.039083304720407
63114.0392631271,166889.0,148267.0,17936.0,11.049183106464625
63114.04936292885,166799.0,148187.0,17883.0,11.059282908208843
63114.05946273059,166825.0,148229.0,17919.0,11.06938270995306
63114.06956253233,166859.0,148251.0,17925.0,11.079482511690003
63114.07966233407,166847.0,148211.0,17938.0,11.08958231343422
63114.089762135816,166814.0,148206.0,17904.0,11.099682115178439
63114.09986193756,166807.0,148219.0,17905.0,11.109781916922657
63114.109961739305,166771.0,148190.0,17903.0,11.119881718666875
63114.12006154104,166743.0,148186.0,17897.0,11.129981520403817
63114.130161342786,166726.0,148208.0,17883.0,11.140081322148035
63114.14026114453,166741.0,148191.0,17883.0,11.150181123892253
63114.150360946274,166743.0,148189.0,17855.0,11.16028092563647
63114.16046074801,166772.0,148208.0,17868.0,11.170380727373413
63114.170560549755,166744.0,148220.0,17897.0,11.18048052911763
63114.1806603515,166733.0,148231.0,17855.0,11.190580330861849
63114.190760153244,166698.0,148198.0,17868.0,11.200680132606067
63114.20085995499,166691.0,148189.0,17866.0,11.210779934350285
63114.210959756725,166746.0,148215.0,17888.0,11.220879736087227
63114.22105955847,166722.0,148200.0,17875.0,11.230979537831445
63114.23115936021,166719.0,148180.0,17879.0,11.241079339575663
63114.24125916196,166716.0,148172.0,17881.0,11.25117914131988
63114.2513589637,166697.0,148161.0,17865.0,11.261278943064099
63114.26145876544,166722.0,148191.0,17886.0,11.27137874480104
63114.27155856718,166728.0,148212.0,17908.0,11.281478546545259
63114.28165836893,166751.0,148234.0,17899.0,11.291578348289477
63114.29175817067,166730.0,148174.0,17901.0,11.301678150033695
63114.30185797241,166743.0,148207.0,17888.0,11.311777951770637
63114.31195777415,166769.0,148250.0,17902.0,11.321877753514855
63114.3220575759,166779.0,148232.0,17900.0,11.331977555259073
63114.33215737764,166737.0,148188.0,17880.0,11.34207735700329
63114.342257179385,166744.0,148198.0,17888.0,11.352177158747509
63114.35235698112,166766.0,148205.0,17918.0,11.36227696048445
63114.36245678287,166732.0,148172.0,17897.0,11.372376762228669
63114.37255658461,166739.0,148199.0,17888.0,11.382476563972887
63114.382656386355,166709.0,148193.0,17893.0,11.392576365717105
63114.3927561881,166750.0,148189.0,17903.0,11.402676167461323
63114.402855989836,166704.0,148159.0,17883.0,11.412775969198265
63114.41295579158,166727.0,148207.0,17882.0,11.422875770942483
63114.423055593325,166718.0,148186.0,17888.0,11.4329755726867
63114.43315539507,166736.0,148169.0,17886.0,11.443075374430919
63114.443255196806,166728.0,148208.0,17883.0,11.45317517616786
63114.45335499855,166702.0,148184.0,17897.0,11.463274977912079
63114.463454800294,166725.0,148206.0,17864.0,11.473374779656297
63114.47355460204,166705.0,148207.0,17879.0,11.483474581400515
63114.48365440378,166721.0,148216.0,17894.0,11.493574383144733
63114.49375420552,166689.0,148165.0,17901.0,11.503674184881675
63114.503854007264,166695.0,148191.0,17877.0,11.513773986625893
63114.51395380901,166746.0,148170.0,17894.0,11.52387378837011
63114.52405361075,166751.0,148207.0,17877.0,11.533973590114329
63114.5341534125,166750.0,148172.0,17894.0,11.544073391858547
63114.54425321423,166717.0,148175.0,17913.0,11.554173193595489
63114.55435301598,166736.0,148206.0,17892.0,11.564272995339707
63114.56445281772,166711.0,148190.0,17893.0,11.574372797083925
63114.574552619466,166720.0,148177.0,17903.0,11.584472598828143
63114.5846524212,166780.0,148247.0,17896.0,11.594572400565085
63114.59475222295,166759.0,148206.0,17894.0,11.604672202309303
63114.60485202469,166746.0,148189.0,17932.0,11.61477200405352
63114.614951826436,166723.0,148210.0,17882.0,11.624871805797738
63114.62505162818,166765.0,148189.0,17923.0,11.634971607541956
63114.63515142992,166752.0,148212.0,17908.0,11.645071409278898
63114.64525123166,166747.0,148195.0,17917.0,11.655171211023116
63114.655351033405,166771.0,148230.0,17918.0,11.665271012767334
63114.66545083515,166758.0,148190.0,17922.0,11.675370814511552
63114.67555063689,166752.0,148195.0,17902.0,11.68547061625577
63114.68565043863,166749.0,148193.0,17895.0,11.695570417992712
63114.695750240375,166719.0,148187.0,17903.0,11.70567021973693
63114.70585004212,166765.0,148213.0,17916.0,11.715770021481148
63114.71594984386,166740.0,148186.0,17874.0,11.725869823225366
63114.7260496456,166713.0,148159.0,17889.0,11.735969624962308
63114.736149447344,166703.0,148155.0,17896.0,11.746069426706526
63114.74624924909,166690.0,148157.0,17883.0,11.756169228450744
63114.75634905083,166671.0,148168.0,17871.0,11.766269030194962
63114.76644885258,166687.0,148185.0,17870.0,11.77636883193918
63114.776548654314,166624.0,148136.0,17858.0,11.786468633676122
63114.78664845606,166669.0,148161.0,17833.0,11.79656843542034
63114.7967482578,166651.0,148151.0,17847.0,11.806668237164558
63114.80684805955,166640.0,148197.0,17881.0,11.816768038908776
63114.81694786129,166626.0,148156.0,17878.0,11.826867840652994
63114.82704766303,166642.0,148171.0,17892.0,11.836967642389936
63114.83714746477,166625.0,148159.0,17865.0,11.847067444134154
63114.847247266516,166634.0,148151.0,17870.0,11.857167245878372
63114.85734706826,166622.0,148145.0,17846.0,11.86726704762259
63114.86744687,166633.0,148155.0,17876.0,11.877366849359532
63114.87754667174,166639.0,148160.0,17868.0,11.88746665110375
63114.887646473486,166662.0,148151.0,17876.0,11.897566452847968
63114.89774627523,166638.0,148163.0,17859.0,11.907666254592186
63114.907846076974,166684.0,148220.0,17887.0,11.917766056336404
63114.91794587871,166685.0,148196.0,17875.0,11.927865858073346
63114.928045680455,166675.0,148180.0,17863.0,11.937965659817564
63114.9381454822,166693.0,148156.0,17872.0,11.948065461561782
63114.948245283944,166711.0,148207.0,17850.0,11.958165263306
63114.95834508569,166684.0,148190.0,17878.0,11.968265065050218
63114.968444887425,166682.0,148206.0,17877.0,11.97836486678716
63114.97854468917,166674.0,148193.0,17864.0,11.988464668531378
63114.98864449091,166646.0,148173.0,17842.0,11.998564470275596
63114.99874429266,166639.0,148162.0,17861.0,12.008664272019814
63115.008844094395,166639.0,148137.0,17878.0,12.018764073756756
63115.01894389614,166662.0,148182.0,17861.0,12.028863875500974
63115.02904369788,166651.0,148181.0,17895.0,12.038963677245192
63115.03914349963,166651.0,148166.0,17873.0,12.04906347898941
63115.04924330137,166657.0,148173.0,17871.0,12.059163280733628
63115.05934310311,166672.0,148195.0,17875.0,12.06926308247057
63115.06944290485,166705.0,148182.0,17877.0,12.079362884214788
63115.0795427066,166665.0,148174.0,17873.0,12.089462685959006
63115.08964250834,166667.0,148191.0,17867.0,12.099562487703224
63115.099742310085,166639.0,148158.0,17880.0,12.109662289447442
63115.10984211182,166647.0,148172.0,17864.0,12.119762091184384
63115.11994191357,166630.0,148126.0,17858.0,12.129861892928602
63115.13004171531,166654.0,148181.0,17871.0,12.13996169467282
63115.140141517055,166649.0,148159.0,17852.0,12.150061496417038
63115.15024131879,166660.0,148188.0,17887.0,12.16016129815398
63115.160341120536,166645.0,148168.0,17876.0,12.170261099898198
63115.17044092228,166680.0,148177.0,17878.0,12.180360901642416
63115.180540724024,166701.0,148199.0,17912.0,12.190460703386634
63115.19064052577,166665.0,148184.0,17871.0,12.200560505130852
63115.200740327506,166650.0,148189.0,17873.0,12.210660306867794
63115.21084012925,166684.0,148198.0,17890.0,12.220760108612012
63115.220939930994,166678.0,148173.0,17855.0,12.23085991035623
63115.23103973274,166642.0,148171.0,17853.0,12.240959712100448
63115.24113953448,166631.0,148172.0,17859.0,12.251059513844666
63115.25123933622,166643.0,148191.0,17902.0,12.261159315581608
63115.261339137964,166642.0,148199.0,17892.0,12.271259117325826
63115.27143893971,166661.0,148136.0,17881.0,12.281358919070044
63115.28153874145,166625.0,148141.0,17870.0,12.291458720814262
63115.29163854319,166673.0,148166.0,17892.0,12.301558522551204
63115.30173834493,166645.0,148186.0,17923.0,12.311658324295422
63115.31183814668,166637.0,148142.0,17900.0,12.32175812603964
63115.32193794842,166653.0,148181.0,17896.0,12.331857927783858
63115.332037750166,166644.0,148154.0,17894.0,12.341957729528076
63115.3421375519,166670.0,148124.0,17898.0,12.352057531265018
63115.35223735365,166629.0,148132.0,17876.0,12.362157333009236
63115.36233715539,166654.0,148165.0,17895.0,12.372257134753454
63115.372436957136,166622.0,148140.0,17872.0,12.382356936497672
63115.38253675888,166603.0,148156.0,17875.0,12.39245673824189
63115.39263656062,166596.0,148126.0,17856.0,12.402556539978832
63115.40273636236,166580.0,148137.0,17879.0,12.41265634172305
63115.412836164105,166581.0,148131.0,17843.0,12.422756143467268
63115.42293596585,166547.0,148100.0,17844.0,12.432855945211486
63115.433035767586,166579.0,148119.0,17870.0,12.442955746948428
63115.44313556933,166509.0,148100.0,17837.0,12.453055548692646
63115.453235371075,166538.0,148119.0,17834.0,12.463155350436864
63115.46333517282,166510.0,148134.0,17847.0,12.473255152181082
63115.47343497456,166545.0,148117.0,17842.0,12.4833549539253
63115.4835347763,166532.0,148118.0,17824.0,12.493454755662242
63115.493634578044,166558.0,148129.0,17818.0,12.50355455740646
63115.50373437979,166540.0,148134.0,17858.0,12.513654359150678
63115.51383418153,166534.0,148131.0,17840.0,12.523754160894896
63115.52393398328,166529.0,148137.0,17847.0,12.533853962639114
63115.534033785014,166583.0,148150.0,17863.0,12.543953764376056
63115.54413358676,166574.0,148181.0,17853.0,12.554053566120274
63115.5542333885,166559.0,148133.0,17845.0,12.564153367864492
63115.56433319025,166579.0,148146.0,17877.0,12.57425316960871
63115.57443299198,166573.0,148158.0,17864.0,12.584352971345652
63115.58453279373,166615.0,148164.0,17864.0,12.59445277308987
63115.59463259547,166621.0,148164.0,17881.0,12.604552574834088
63115.604732397216,166618.0,148198.0,17876.0,12.614652376578306
63115.61483219896,166602.0,148149.0,17855.0,12.624752178322524
63115.6249320007,166607.0,148179.0,17877.0,12.634851980059466
63115.63503180244,166607.0,148196.0,17889.0,12.644951781803684
63115.645131604186,166637.0,148145.0,17881.0,12.655051583547902
63115.65523140593,166524.0,148142.0,17833.0,12.66515138529212
63115.665331207674,166597.0,148161.0,17850.0,12.675251187036338
63115.67543100941,166613.0,148167.0,17874.0,12.68535098877328
63115.685530811155,166606.0,148159.0,17850.0,12.695450790517498
63115.6956306129,166628.0,148191.0,17875.0,12.705550592261716
63115.705730414644,166621.0,148184.0,17863.0,12.715650394005934
63115.71583021638,166603.0,148167.0,17868.0,12.725750195742876
63115.725930018125,166604.0,148189.0,17847.0,12.735849997487094
63115.73602981987,166639.0,148213.0,17876.0,12.745949799231312
63115.74612962161,166625.0,148198.0,17864.0,12.75604960097553
63115.75622942336,166601.0,148155.0,17869.0,12.766149402719748
63115.766329225095,166620.0,148155.0,17849.0,12.77624920445669
63115.77642902684,166632.0,148205.0,17900.0,12.786349006200908
63115.78652882858,166614.0,148173.0,17856.0,12.796448807945126
63115.79662863033,166610.0,148185.0,17848.0,12.806548609689344
63115.80672843207,166651.0,148229.0,17875.0,12.816648411433562
63115.81682823381,166638.0,148154.0,17869.0,12.826748213170504
63115.82692803555,166631.0,148198.0,17867.0,12.836848014914722
63115.8370278373,166647.0,148171.0,17870.0,12.84694781665894
63115.84712763904,166654.0,148204.0,17864.0,12.857047618403158
63115.85722744078,166604.0,148172.0,17869.0,12.8671474201401
63115.86732724252,166620.0,148177.0,17868.0,12.877247221884318
63115.87742704427,166640.0,148181.0,17876.0,12.887347023628536
63115.88752684601,166663.0,148180.0,17887.0,12.897446825372754
63115.897626647755,166657.0,148192.0,17884.0,12.907546627116972
63115.90772644949,166657.0,148219.0,17881.0,12.917646428853914
63115.917826251236,166695.0,148211.0,17888.0,12.927746230598132
63115.92792605298,166641.0,148171.0,17865.0,12.93784603234235
63115.938025854724,166640.0,148193.0,17872.0,12.947945834086568
63115.94812565647,166627.0,148188.0,17889.0,12.958045635830786
63115.958225458206,166652.0,148166.0,17886.0,12.968145437567728
63115.96832525995,166588.0,148152.0,17852.0,12.978245239311946
63115.978425061694,166639.0,148210.0,17882.0,12.988345041056164
63115.98852486344,166632.0,148176.0,17867.0,12.998444842800382
63115.998624665175,166631.0,148185.0,17900.0,13.008544644537324
63116.00872446692,166628.0,148190.0,17874.0,13.018644446281542
63116.01882426866,166650.0,148207.0,17894.0,13.02874424802576
63116.02892407041,166612.0,148175.0,17865.0,13.038844049769978
63116.03902387215,166650.0,148177.0,17884.0,13.048943851514196
63116.04912367389,166669.0,148199.0,17881.0,13.059043653251138
63116.05922347563,166626.0,148172.0,17884.0,13.069143454995356
63116.06932327738,166593.0,148164.0,17871.0,13.079243256739574
63116.07942307912,166607.0,148172.0,17879.0,13.089343058483792
63116.089522880866,166627.0,148161.0,17897.0,13.09944286022801
63116.0996226826,166582.0,148128.0,17906.0,13.109542661964952
63116.10972248435,166592.0,148144.0,17844.0,13.11964246370917
63116.11982228609,166564.0,148135.0,17859.0,13.129742265453388
63116.129922087835,166545.0,148127.0,17841.0,13.139842067197606
63116.14002188957,166537.0,148119.0,17837.0,13.149941868934548
63116.15012169132,166546.0,148139.0,17869.0,13.160041670678766
63116.16022149306,166518.0,148126.0,17839.0,13.170141472422983
63116.170321294805,166496.0,148075.0,17812.0,13.180241274167201
63116.18042109655,166503.0,148154.0,17824.0,13.19034107591142
63116.190520898286,166517.0,148143.0,17849.0,13.200440877648361
63116.20062070003,166461.0,148100.0,17832.0,13.21054067939258
63116.210720501775,166484.0,148088.0,17855.0,13.220640481136797
63116.22082030352,166472.0,148109.0,17846.0,13.230740282881015
63116.23092010526,166438.0,148069.0,17818.0,13.240840084625233
63116.241019907,166444.0,148081.0,17819.0,13.250939886362175
63116.251119708744,166450.0,148060.0,17810.0,13.261039688106393
63116.26121951049,166445.0,148081.0,17850.0,13.271139489850611
63116.27131931223,166407.0,148051.0,17818.0,13.28123929159483
63116.28141911397,166457.0,148083.0,17823.0,13.291339093331771
63116.291518915714,166483.0,148139.0,17848.0,13.30143889507599
63116.30161871746,166478.0,148098.0,17819.0,13.311538696820207
63116.3117185192,166506.0,148132.0,17823.0,13.321638498564425
63116.32181832095,166483.0,148135.0,17834.0,13.331738300308643
63116.33191812268,166495.0,148132.0,17862.0,13.341838102045585
63116.34201792443,166459.0,148077.0,17818.0,13.351937903789803
63116.35211772617,166426.0,148101.0,17826.0,13.362037705534021
63116.362217527916,166455.0,148089.0,17824.0,13.37213750727824
63116.37231732966,166475.0,148062.0,17852.0,13.382237309022457
63116.3824171314,166424.0,148066.0,17820.0,13.3923371107594
63116.39251693314,166477.0,148107.0,17862.0,13.402436912503617
63116.402616734886,166452.0,148082.0,17834.0,13.412536714247835
63116.41271653663,166473.0,148092.0,17844.0,13.422636515992053
63116.42281633837,166417.0,148085.0,17830.0,13.432736317728995
63116.43291614011,166466.0,148099.0,17858.0,13.442836119473213
63116.443015941855,166453.0,148089.0,17833.0,13.452935921217431
63116.4531157436,166433.0,148086.0,17827.0,13.46303572296165
63116.463215545344,166462.0,148101.0,17835.0,13.473135524705867
63116.47331534708,166440.0,148083.0,17851.0,13.48323532644281
63116.483415148825,166448.0,148069.0,17835.0,13.493335128187027
63116.49351495057,166422.0,148094.0,17836.0,13.503434929931245
63116.50361475231,166469.0,148070.0,17856.0,13.513534731675463
63116.51371455406,166418.0,148074.0,17824.0,13.523634533419681
63116.523814355794,166432.0,148074.0,17839.0,13.533734335156623
63116.53391415754,166428.0,148075.0,17844.0,13.543834136900841
63116.54401395928,166434.0,148091.0,17859.0,13.55393393864506
63116.55411376103,166448.0,148084.0,17819.0,13.564033740389277
63116.564213562764,166475.0,148081.0,17865.0,13.57413354212622
63116.57431336451,166453.0,148103.0,17839.0,13.584233343870437
63116.58441316625,166430.0,148076.0,17843.0,13.594333145614655
63116.594512968,166457.0,148073.0,17850.0,13.604432947358873
63116.60461276974,166445.0,148064.0,17862.0,13.614532749103091
63116.61471257148,166450.0,148076.0,17839.0,13.624632550840033
63116.62481237322,166431.0,148083.0,17845.0,13.634732352584251
63116.634912174966,166463.0,148105.0,17849.0,13.64483215432847
63116.64501197671,166453.0,148063.0,17852.0,13.654931956072687
63116.655111778455,166441.0,148089.0,17852.0,13.665031757816905
63116.66521158019,166421.0,148036.0,17840.0,13.675131559553847
63116.675311381936,166472.0,148111.0,17862.0,13.685231361298065
63116.68541118368,166441.0,148063.0,17839.0,13.695331163042283
63116.695510985424,166438.0,148070.0,17854.0,13.705430964786501
63116.70561078716,166454.0,148084.0,17862.0,13.715530766523443
63116.715710588905,166456.0,148043.0,17838.0,13.725630568267661
63116.72581039065,166433.0,148015.0,17835.0,13.73573037001188
63116.735910192394,166447.0,148050.0,17854.0,13.745830171756097
63116.74600999414,166478.0,148094.0,17852.0,13.755929973500315
63116.756109795875,166443.0,148076.0,17869.0,13.766029775237257
63116.76620959762,166457.0,148077.0,17854.0,13.776129576981475
63116.77630939936,166477.0,148094.0,17861.0,13.786229378725693
63116.78640920111,166492.0,148106.0,17851.0,13.796329180469911
63116.79650900285,166463.0,148061.0,17852.0,13.806428982214129
63116.80660880459,166449.0,148094.0,17863.0,13.816528783951071
63116.81670860633,166476.0,148090.0,17862.0,13.826628585695289
63116.82680840808,166458.0,148072.0,17872.0,13.836728387439507
63116.83690820982,166444.0,148069.0,17855.0,13.846828189183725
63116.84700801156,166425.0,148104.0,17848.0,13.856927990920667
63116.8571078133,166462.0,148097.0,17880.0,13.867027792664885
63116.86720761505,166438.0,148050.0,17850.0,13.877127594409103
63116.87730741679,166411.0,148047.0,17823.0,13.887227396153321
63116.887407218535,166422.0,148059.0,17852.0,13.897327197897539
63116.89750702027,166404.0,148049.0,17833.0,13.907426999634481
63116.90760682202,166368.0,148048.0,17815.0,13.917526801378699
63116.91770662376,166328.0,148031.0,17804.0,13.927626603122917
63116.927806425505,166354.0,148020.0,17801.0,13.937726404867135
63116.93790622725,166356.0,148017.0,17820.0,13.947826206611353
63116.948006028986,166347.0,148027.0,17785.0,13.957926008348295
63116.95810583073,166338.0,148019.0,17798.0,13.968025810092513
63116.968205632475,166299.0,147992.0,17790.0,13.978125611836731
63116.97830543422,166328.0,148023.0,17802.0,13.988225413580949
63116.988405235956,166336.0,148065.0,17838.0,13.998325215317891
63116.9985050377,166317.0,148000.0,17827.0,14.008425017062109
63117.008604839444,166315.0,147997.0,17786.0,14.018524818806327
63117.01870464119,166331.0,148046.0,17821.0,14.028624620550545
63117.02880444293,166326.0,148029.0,17802.0,14.038724422294763
63117.03890424467,166326.0,148020.0,17800.0,14.048824224031705
63117.049004046414,166327.0,148012.0,17803.0,14.058924025775923
63117.05910384816,166371.0,148048.0,17830.0,14.069023827520141
63117.0692036499,166352.0,148063.0,17818.0,14.079123629264359
63117.07930345165,166357.0,148044.0,17804.0,14.089223431008577
63117.08940325338,166393.0,148052.0,17817.0,14.099323232745519
63117.09950305513,166344.0,148033.0,17835.0,14.109423034489737
63117.10960285687,166366.0,148050.0,17822.0,14.119522836233955
63117.119702658616,166351.0,148076.0,17833.0,14.129622637978173
63117.12980246035,166357.0,148016.0,17810.0,14.139722439715115
63117.1399022621,166332.0,148019.0,17839.0,14.149822241459333
63117.15000206384,166365.0,148052.0,17817.0,14.15992204320355
63117.160101865586,166366.0,148057.0,17815.0,14.170021844947769
63117.17020166733,166350.0,148023.0,17821.0,14.180121646691987
63117.18030146907,166340.0,148054.0,17816.0,14.190221448428929
63117.19040127081,166364.0,148056.0,17827.0,14.200321250173147
63117.200501072555,166390.0,148042.0,17850.0,14.210421051917365
63117.2106008743,166354.0,148038.0,17830.0,14.220520853661583
63117.22070067604,166367.0,148015.0,17818.0,14.2306206554058
63117.23080047778,166374.0,148046.0,17818.0,14.240720457142743
63117.240900279525,166343.0,148063.0,17820.0,14.25082025888696
63117.25100008127,166366.0,148064.0,17837.0,14.260920060631179
63117.26109988301,166397.0,148062.0,17881.0,14.271019862375397
63117.27119968475,166364.0,148047.0,17828.0,14.281119664112339
63117.281299486494,166356.0,148044.0,17838.0,14.291219465856557
63117.29139928824,166369.0,148040.0,17816.0,14.301319267600775
63117.30149908998,166412.0,148094.0,17830.0,14.311419069344993
63117.31159889173,166386.0,148074.0,17840.0,14.32151887108921
63117.321698693464,166391.0,148047.0,17836.0,14.331618672826153
63117.33179849521,166413.0,148082.0,17858.0,14.34171847457037
63117.34189829695,166401.0,148040.0,17833.0,14.351818276314589
63117.3519980987,166400.0,148072.0,17837.0,14.361918078058807
63117.36209790044,166396.0,148076.0,17850.0,14.372017879803025
63117.37219770218,166424.0,148094.0,17829.0,14.382117681539967
63117.38229750392,166392.0,148053.0,17845.0,14.392217483284185
63117.392397305666,166391.0,148068.0,17838.0,14.402317285028403
63117.40249710741,166410.0,148063.0,17826.0,14.41241708677262
63117.41259690915,166421.0,148075.0,17857.0,14.422516888509563
63117.42269671089,166390.0,148061.0,17829.0,14.43261669025378
63117.432796512636,166431.0,148069.0,17844.0,14.442716491997999
63117.44289631438,166399.0,148072.0,17849.0,14.452816293742217
63117.452996116124,166429.0,148043.0,17848.0,14.462916095486435
63117.46309591786,166414.0,148096.0,17859.0,14.473015897223377
63117.473195719605,166435.0,148070.0,17852.0,14.483115698967595
63117.48329552135,166457.0,148097.0,17859.0,14.493215500711813
63117.493395323094,166439.0,148082.0,17844.0,14.50331530245603
63117.50349512484,166463.0,148095.0,17853.0,14.513415104200249
63117.513594926575,166436.0,148088.0,17878.0,14.52351490593719
63117.52369472832,166397.0,148063.0,17834.0,14.533614707681409
63117.53379453006,166433.0,148076.0,17856.0,14.543714509425627
63117.54389433181,166411.0,148049.0,17856.0,14.553814311169845
63117.553994133545,166400.0,148067.0,17842.0,14.563914112906787
63117.56409393529,166447.0,148059.0,17860.0,14.574013914651005
63117.57419373703,166437.0,148081.0,17845.0,14.584113716395223
63117.58429353878,166473.0,148116.0,17877.0,14.59421351813944
63117.59439334052,166438.0,148058.0,17848.0,14.604313319883659
63117.60449314226,166452.0,148090.0,17870.0,14.6144131216206
63117.614592944,166427.0,148102.0,17852.0,14.624512923364819
63117.62469274575,166444.0,148066.0,17848.0,14.634612725109037
63117.63479254749,166482.0,148113.0,17833.0,14.644712526853255
63117.64489234923,166459.0,148086.0,17855.0,14.654812328590197
63117.65499215097,166443.0,148070.0,17869.0,14.664912130334415
63117.66509195272,166428.0,148045.0,17850.0,14.675011932078633
63117.67519175446,166422.0,148060.0,17849.0,14.68511173382285
63117.685291556205,166424.0,148064.0,17842.0,14.695211535567068
63117.69539135794,166456.0,148052.0,17876.0,14.70531133730401
63117.705491159686,166391.0,148039.0,17835.0,14.715411139048229
63117.71559096143,166395.0,148040.0,17825.0,14.725510940792446
63117.725690763174,166384.0,148046.0,17828.0,14.735610742536664
63117.73579056492,166346.0,148017.0,17805.0,14.745710544280882
63117.745890366656,166366.0,148065.0,17845.0,14.755810346017824
63117.7559901684,166332.0,148041.0,17802.0,14.765910147762042
63117.766089970144,166349.0,148043.0,17814.0,14.77600994950626
63117.77618977189,166341.0,148042.0,17795.0,14.786109751250478
63117.78628957363,166354.0,148024.0,17810.0,14.796209552994696
63117.79638937537,166344.0,148041.0,17811.0,14.806309354731638
63117.806489177114,166339.0,148051.0,17821.0,14.816409156475856
63117.81658897886,166320.0,148020.0,17818.0,14.826508958220074
63117.8266887806,166344.0,148038.0,17794.0,14.836608759964292
63117.83678858234,166336.0,148027.0,17798.0,14.846708561701234
63117.84688838408,166344.0,148051.0,17819.0,14.856808363445452
63117.85698818583,166340.0,148031.0,17815.0,14.86690816518967
63117.86708798757,166341.0,148031.0,17804.0,14.877007966933888
63117.877187789316,166339.0,148039.0,17818.0,14.887107768678106
63117.88728759105,166370.0,148048.0,17830.0,14.897207570415048
63117.8973873928,166366.0,148071.0,17812.0,14.907307372159266
63117.90748719454,166380.0,148042.0,17839.0,14.917407173903484
63117.917586996286,166361.0,148030.0,17822.0,14.927506975647702
63117.92768679802,166386.0,148068.0,17830.0,14.937606777384644
63117.93778659977,166321.0,148041.0,17819.0,14.947706579128862
63117.94788640151,166345.0,148057.0,17825.0,14.95780638087308
63117.957986203255,166369.0,148068.0,17828.0,14.967906182617298
63117.968086005,166355.0,148042.0,17818.0,14.978005984361516
63117.978185806736,166329.0,148009.0,17827.0,14.988105786098458
63117.98828560848,166327.0,148033.0,17806.0,14.998205587842676
63117.998385410225,166382.0,148065.0,17833.0,15.008305389586894
63118.00848521197,166358.0,148041.0,17808.0,15.018405191331112
63118.01858501371,166356.0,148014.0,17850.0,15.02850499307533
63118.02868481545,166370.0,148077.0,17853.0,15.038604794812272
63118.038784617194,166354.0,148078.0,17833.0,15.04870459655649
63118.04888441894,166321.0,148053.0,17813.0,15.058804398300708
63118.05898422068,166389.0,148032.0,17821.0,15.068904200044926
63118.06908402242,166361.0,148058.0,17852.0,15.079004001781868
63118.079183824164,166372.0,148036.0,17838.0,15.089103803526086
63118.08928362591,166343.0,148031.0,17854.0,15.099203605270304
63118.09938342765,166381.0,148064.0,17833.0,15.109303407014522
63118.1094832294,166378.0,148100.0,17837.0,15.11940320875874
63118.11958303113,166392.0,148072.0,17860.0,15.129503010495682
63118.12968283288,166391.0,148075.0,17860.0,15.1396028122399
63118.13978263462,166378.0,148064.0,17842.0,15.149702613984118
63118.149882436366,166350.0,148059.0,17821.0,15.159802415728336
63118.15998223811,166369.0,148031.0,17821.0,15.169902217472554
63118.17008203985,166384.0,148031.0,17828.0,15.180002019209496
63118.18018184159,166393.0,148069.0,17845.0,15.190101820953714
63118.190281643336,166411.0,148054.0,17831.0,15.200201622697932
63118.20038144508,166406.0,148070.0,17825.0,15.21030142444215
63118.21048124682,166414.0,148046.0,17848.0,15.220401226179092
63118.22058104856,166398.0,148067.0,17842.0,15.23050102792331
63118.230680850305,166367.0,148051.0,17848.0,15.240600829667528
63118.24078065205,166377.0,148060.0,17832.0,15.250700631411746
63118.250880453794,166383.0,148046.0,17814.0,15.260800433155964
63118.26098025553,166400.0,148063.0,17842.0,15.270900234892906
63118.271080057275,166394.0,148067.0,17827.0,15.281000036637124
63118.28117985902,166410.0,148050.0,17863.0,15.291099838381342
63118.29127966076,166438.0,148078.0,17827.0,15.30119964012556
63118.30137946251,166403.0,148059.0,17856.0,15.311299441869778
63118.311479264245,166399.0,148037.0,17850.0,15.32139924360672
63118.32157906599,166393.0,148045.0,17852.0,15.331499045350938
63118.33167886773,166423.0,148061.0,17862.0,15.341598847095156
63118.34177866948,166422.0,148068.0,17858.0,15.351698648839374
63118.351878471214,166433.0,148039.0,17838.0,15.361798450576316
63118.36197827296,166399.0,148056.0,17842.0,15.371898252320534
63118.3720780747,166424.0,148044.0,17858.0,15.381998054064752
63118.38217787645,166425.0,148073.0,17862.0,15.39209785580897
63118.39227767819,166457.0,148079.0,17884.0,15.402197657553188
63118.40237747993,166442.0,148058.0,17871.0,15.41229745929013
63118.41247728167,166394.0,148077.0,17836.0,15.422397261034348
63118.42257708342,166433.0,148083.0,17855.0,15.432497062778566
63118.43267688516,166454.0,148095.0,17843.0,15.442596864522784
63118.442776686905,166412.0,148066.0,17882.0,15.452696666267002
63118.45287648864,166452.0,148082.0,17859.0,15.462796468003944
63118.462976290386,166421.0,148055.0,17879.0,15.472896269748162
63118.47307609213,166406.0,148044.0,17881.0,15.48299607149238
63118.483175893874,166444.0,148076.0,17893.0,15.493095873236598
63118.49327569561,166455.0,148099.0,17851.0,15.50319567497354
63118.503375497356,166431.0,148063.0,17844.0,15.513295476717758
63118.5134752991,166385.0,148052.0,17866.0,15.523395278461976
63118.523575100844,166405.0,148068.0,17851.0,15.533495080206194
63118.53367490259,166393.0,148074.0,17866.0,15.543594881950412
63118.543774704325,166384.0,148049.0,17836.0,15.553694683687354
63118.55387450607,166373.0,148014.0,17835.0,15.563794485431572
63118.56397430781,166333.0,147999.0,17819.0,15.57389428717579
63118.57407410956,166316.0,148019.0,17806.0,15.583994088920008
63118.5841739113,166325.0,148027.0,17812.0,15.594093890664226
63118.59427371304,166324.0,148035.0,17843.0,15.604193692401168
63118.60437351478,166345.0,148036.0,17827.0,15.614293494145386
63118.61447331653,166308.0,148016.0,17814.0,15.624393295889604
63118.62457311827,166335.0,148045.0,17785.0,15.634493097633822
63118.63467292001,166327.0,148027.0,17817.0,15.644592899370764
63118.64477272175,166311.0,148044.0,17847.0,15.654692701114982
63118.6548725235,166310.0,148005.0,17830.0,15.6647925028592
63118.66497232524,166303.0,148000.0,17814.0,15.674892304603418
63118.675072126985,166319.0,148024.0,17818.0,15.684992106347636
63118.68517192872,166330.0,148051.0,17833.0,15.695091908084578
63118.69527173047,166315.0,148025.0,17816.0,15.705191709828796
63118.70537153221,166350.0,148048.0,17844.0,15.715291511573014
63118.715471333955,166335.0,148039.0,17827.0,15.725391313317232
63118.7255711357,166304.0,148055.0,17832.0,15.73549111506145
63118.735670937436,166302.0,148043.0,17827.0,15.745590916798392
63118.74577073918,166327.0,148062.0,17865.0,15.75569071854261
63118.755870540925,166343.0,148042.0,17840.0,15.765790520286828
63118.76597034267,166344.0,148063.0,17848.0,15.775890322031046
63118.776070144406,166320.0,148031.0,17821.0,15.785990123767988
63118.78616994615,166336.0,148012.0,17832.0,15.796089925512206
63118.796269747894,166349.0,148047.0,17842.0,15.806189727256424
63118.80636954964,166316.0,148037.0,17808.0,15.816289529000642
63118.81646935138,166364.0,148040.0,17866.0,15.82638933074486
63118.82656915312,166326.0,148001.0,17823.0,15.836489132481802
63118.836668954864,166331.0,148032.0,17822.0,15.84658893422602
63118.84676875661,166326.0,148034.0,17851.0,15.856688735970238
63118.85686855835,166331.0,148025.0,17852.0,15.866788537714456
63118.8669683601,166310.0,148049.0,17834.0,15.876888339458674
63118.87706816183,166340.0,148019.0,17830.0,15.886988141195616
63118.88716796358,166297.0,148014.0,17821.0,15.897087942939834
63118.89726776532,166326.0,148016.0,17832.0,15.907187744684052
63118.907367567066,166339.0,148014.0,17835.0,15.91728754642827
63118.9174673688,166348.0,148044.0,17830.0,15.927387348165212
63118.92756717055,166378.0,148074.0,17861.0,15.93748714990943
63118.93766697229,166357.0,148014.0,17817.0,15.947586951653648
63118.947766774036,166373.0,148062.0,17860.0,15.957686753397866
63118.95786657578,166358.0,148034.0,17848.0,15.967786555142084
63118.96796637752,166357.0,148062.0,17816.0,15.977886356879026
63118.97806617926,166358.0,148007.0,17832.0,15.987986158623244
63118.988165981005,166382.0,148034.0,17871.0,15.998085960367462
63118.99826578275,166342.0,148040.0,17809.0,16.00818576211168
63119.008365584494,166348.0,148010.0,17875.0,16.018285563855898
63119.01846538623,166381.0,148036.0,17851.0,16.02838536559284
63119.028565187975,166374.0,148055.0,17869.0,16.038485167337058
63119.03866498972,166334.0,148045.0,17844.0,16.048584969081276
63119.04876479146,166354.0,148001.0,17844.0,16.058684770825494
63119.0588645932,166389.0,148049.0,17828.0,16.068784572562436
63119.068964394944,166349.0,148066.0,17852.0,16.078884374306654
63119.07906419669,166390.0,148045.0,17863.0,16.08898417605087
63119.08916399843,166372.0,148074.0,17860.0,16.09908397779509
63119.09926380018,166393.0,148017.0,17851.0,16.109183779539308
63119.109363601914,166358.0,148024.0,17835.0,16.11928358127625
63119.11946340366,166396.0,148069.0,17855.0,16.129383383020468
63119.1295632054,166387.0,148017.0,17870.0,16.139483184764686
63119.13966300715,166367.0,148049.0,17862.0,16.149582986508904
63119.14976280889,166385.0,148054.0,17872.0,16.15968278825312
63119.15986261063,166409.0,148043.0,17867.0,16.169782589990064
63119.16996241237,166390.0,148040.0,17862.0,16.17988239173428
63119.180062214116,166387.0,148064.0,17822.0,16.1899821934785
63119.19016201586,166384.0,148076.0,17864.0,16.200081995222718
63119.2002618176,166391.0,148033.0,17864.0,16.21018179695966
63119.21036161934,166380.0,148056.0,17862.0,16.220281598703878
63119.220461421086,166389.0,148049.0,17841.0,16.230381400448096
63119.23056122283,166393.0,148072.0,17896.0,16.240481202192314
63119.240661024574,166366.0,148012.0,17846.0,16.25058100393653
63119.25076082631,166387.0,148044.0,17867.0,16.260680805673474
63119.260860628056,166420.0,148038.0,17865.0,16.27078060741769
63119.2709604298,166385.0,148026.0,17842.0,16.28088040916191
63119.281060231544,166392.0,148070.0,17864.0,16.290980210906127
63119.29116003329,166393.0,148047.0,17860.0,16.301080012650345
63119.301259835025,166372.0,148068.0,17867.0,16.311179814387287
63119.31135963677,166393.0,148049.0,17858.0,16.321279616131505
63119.32145943851,166409.0,148059.0,17831.0,16.331379417875723
63119.33155924026,166403.0,148047.0,17871.0,16.34147921961994
63119.341659041995,166401.0,148072.0,17904.0,16.351579021356883
63119.35175884374,166396.0,148041.0,17860.0,16.3616788231011
63119.36185864548,166392.0,148077.0,17866.0,16.37177862484532
63119.37195844723,166395.0,148042.0,17871.0,16.381878426589537
63119.38205824897,166387.0,148042.0,17864.0,16.391978228333755
63119.39215805071,166418.0,148049.0,17907.0,16.402078030070697
63119.40225785245,166397.0,148044.0,17882.0,16.412177831814915
63119.4123576542,166368.0,148021.0,17848.0,16.422277633559133
63119.42245745594,166318.0,147998.0,17831.0,16.43237743530335
63119.432557257685,166310.0,148013.0,17839.0,16.44247723704757
63119.44265705942,166350.0,148003.0,17830.0,16.45257703878451
63119.45275686117,166314.0,147999.0,17836.0,16.46267684052873
63119.46285666291,166291.0,147995.0,17805.0,16.472776642272947
63119.472956464655,166312.0,148000.0,17843.0,16.482876444017165
63119.48305626639,166259.0,147973.0,17833.0,16.492976245754107
63119.493156068136,166294.0,148010.0,17825.0,16.503076047498325
63119.50325586988,166268.0,148025.0,17848.0,16.513175849242543
63119.513355671625,166276.0,147999.0,17819.0,16.52327565098676
63119.52345547337,166282.0,147989.0,17816.0,16.53337545273098
63119.533555275106,166288.0,147995.0,17815.0,16.54347525446792
63119.54365507685,166287.0,147997.0,17833.0,16.55357505621214
63119.553754878594,166256.0,147980.0,17818.0,16.563674857956357
63119.56385468034,166258.0,148001.0,17814.0,16.573774659700575
63119.57395448208,166314.0,148012.0,17849.0,16.583874461444793
63119.58405428382,166296.0,148026.0,17825.0,16.593974263181735
63119.594154085564,166320.0,148014.0,17803.0,16.604074064925953
63119.60425388731,166343.0,148021.0,17841.0,16.61417386667017
63119.61435368905,166315.0,148022.0,17847.0,16.62427366841439
63119.62445349079,166312.0,148018.0,17840.0,16.63437347015133
63119.63455329253,166309.0,148006.0,17836.0,16.64447327189555
63119.64465309428,166333.0,148039.0,17852.0,16.654573073639767
63119.65475289602,166305.0,147978.0,17824.0,16.664672875383985
63119.664852697766,166289.0,147988.0,17819.0,16.674772677128203
63119.6749524995,166309.0,147988.0,17833.0,16.684872478865145
63119.68505230125,166343.0,148017.0,17846.0,16.694972280609363
63119.69515210299,166283.0,147999.0,17837.0,16.70507208235358
63119.705251904736,166317.0,148005.0,17837.0,16.7151718840978
63119.71535170648,166318.0,148008.0,17828.0,16.725271685842017
63119.72545150822,166314.0,147992.0,17828.0,16.73537148757896
63119.73555130996,166301.0,147969.0,17826.0,16.745471289323177
63119.745651111705,166317.0,148010.0,17838.0,16.755571091067395
63119.75575091345,166315.0,148009.0,17855.0,16.765670892811613
63119.76585071519,166296.0,147980.0,17838.0,16.775770694548555
63119.77595051693,166335.0,148043.0,17867.0,16.785870496292773
63119.786050318675,166317.0,148017.0,17850.0,16.79597029803699
63119.79615012042,166300.0,147967.0,17827.0,16.80607009978121
63119.80624992216,166332.0,148000.0,17850.0,16.816169901525427
63119.8163497239,166346.0,148029.0,17817.0,16.82626970326237
63119.826449525644,166327.0,148006.0,17838.0,16.836369505006587
63119.83654932739,166336.0,148007.0,17884.0,16.846469306750805
63119.84664912913,166357.0,148046.0,17861.0,16.856569108495023
63119.85674893088,166362.0,148030.0,17874.0,16.86666891023924
63119.866848732614,166335.0,148024.0,17855.0,16.876768711976183
63119.87694853436,166327.0,148006.0,17827.0,16.8868685137204
63119.8870483361,166356.0,148034.0,17858.0,16.89696831546462
63119.89714813785,166366.0,148033.0,17869.0,16.907068117208837
63119.90724793958,166347.0,148025.0,17855.0,16.91716791894578
63119.91734774133,166350.0,148000.0,17851.0,16.927267720689997
63119.92744754307,166354.0,148025.0,17895.0,16.937367522434215
63119.937547344816,166315.0,147992.0,17840.0,16.947467324178433
63119.94764714656,166342.0,148015.0,17857.0,16.95756712592265
63119.9577469483,166376.0,148036.0,17859.0,16.967666927659593
63119.96784675004,166352.0,148013.0,17879.0,16.97776672940381
63119.977946551786,166348.0,148015.0,17857.0,16.98786653114803
63119.98804635353,166359.0,148007.0,17861.0,16.997966332892247
63119.998146155274,166353.0,148039.0,17879.0,17.008066134636465
63120.00824595701,166337.0,147990.0,17851.0,17.018165936373407
63120.018345758755,166357.0,148019.0,17847.0,17.028265738117625
63120.0284455605,166352.0,148022.0,17892.0,17.038365539861843
63120.038545362244,166351.0,148031.0,17869.0,17.04846534160606
63120.04864516398,166333.0,147998.0,17853.0,17.058565143343003
63120.058744965725,166351.0,148019.0,17854.0,17.06866494508722
63120.06884476747,166350.0,148034.0,17873.0,17.07876474683144
63120.07894456921,166358.0,148027.0,17858.0,17.088864548575657
63120.08904437096,166361.0,148041.0,17867.0,17.098964350319875
63120.099144172695,166337.0,148031.0,17888.0,17.109064152056817
63120.10924397444,166328.0,147996.0,17851.0,17.119163953801035
63120.11934377618,166369.0,148026.0,17865.0,17.129263755545253
63120.12944357793,166350.0,148043.0,17870.0,17.13936355728947
63120.13954337967,166348.0,148017.0,17852.0,17.14946335903369
63120.14964318141,166375.0,148021.0,17846.0,17.15956316077063
63120.15974298315,166367.0,148038.0,17874.0,17.16966296251485
63120.1698427849,166364.0,148050.0,17894.0,17.179762764259067
63120.17994258664,166357.0,148007.0,17856.0,17.189862566003285
63120.19004238838,166346.0,148034.0,17878.0,17.199962367740227
63120.20014219012,166385.0,148046.0,17890.0,17.210062169484445
63120.21024199187,166389.0,148012.0,17862.0,17.220161971228663
63120.22034179361,166359.0,147990.0,17886.0,17.23026177297288
63120.230441595355,166381.0,148014.0,17879.0,17.2403615747171
63120.24054139709,166397.0,148025.0,17887.0,17.25046137645404
63120.250641198836,166390.0,148047.0,17888.0,17.26056117819826
63120.26074100058,166353.0,148029.0,17854.0,17.270660979942477
63120.270840802325,166398.0,148044.0,17902.0,17.280760781686695
63120.28094060407,166376.0,148020.0,17866.0,17.290860583430913
63120.291040405806,166356.0,148007.0,17837.0,17.300960385167855
63120.30114020755,166375.0,148017.0,17851.0,17.311060186912073
63120.311240009294,166335.0,148028.0,17854.0,17.32115998865629
63120.32133981104,166328.0,148001.0,17850.0,17.33125979040051
63120.331439612775,166296.0,147979.0,17834.0,17.34135959213745
63120.34153941452,166319.0,148023.0,17863.0,17.35145939388167
63120.351639216264,166284.0,147960.0,17855.0,17.361559195625887
63120.36173901801,166303.0,147974.0,17832.0,17.371658997370105
63120.37183881975,166293.0,147986.0,17834.0,17.381758799114323
63120.38193862149,166331.0,148025.0,17867.0,17.391858600851265
63120.39203842323,166295.0,147990.0,17829.0,17.401958402595483
63120.40213822498,166289.0,147991.0,17846.0,17.4120582043397
63120.41223802672,166332.0,147976.0,17857.0,17.42215800608392
63120.422337828466,166311.0,147992.0,17850.0,17.432257807828137
63120.4324376302,166272.0,147962.0,17822.0,17.44235760956508
63120.44253743195,166303.0,147988.0,17846.0,17.452457411309297
63120.45263723369,166320.0,148019.0,17845.0,17.462557213053515
63120.462737035436,166276.0,147976.0,17827.0,17.472657014797733
63120.47283683717,166298.0,148009.0,17843.0,17.482756816534675
63120.48293663892,166307.0,147993.0,17848.0,17.492856618278893
63120.49303644066,166286.0,147984.0,17832.0,17.50295642002311
63120.503136242405,166295.0,147972.0,17827.0,17.51305622176733
63120.51323604415,166300.0,147997.0,17855.0,17.523156023511547
63120.523335845886,166320.0,148005.0,17867.0,17.53325582524849
63120.53343564763,166304.0,147984.0,17855.0,17.543355626992707
63120.543535449375,166323.0,148001.0,17850.0,17.553455428736925
63120.55363525112,166343.0,148028.0,17873.0,17.563555230481143
63120.56373505286,166303.0,148007.0,17851.0,17.57365503222536
63120.5738348546,166309.0,148010.0,17848.0,17.583754833962303
63120.583934656344,166351.0,148029.0,17878.0,17.59385463570652
63120.59403445809,166317.0,147989.0,17863.0,17.60395443745074
63120.60413425983,166329.0,147990.0,17858.0,17.614054239194957
63120.61423406157,166310.0,147980.0,17858.0,17.6241540409319
63120.624333863314,166345.0,148026.0,17842.0,17.634253842676117
63120.63443366506,166296.0,147996.0,17832.0,17.644353644420335
63120.6445334668,166336.0,148017.0,17828.0,17.654453446164553
63120.65463326855,166342.0,148016.0,17850.0,17.66455324790877
63120.66473307028,166327.0,148024.0,17884.0,17.674653049645713
63120.67483287203,166337.0,147991.0,17850.0,17.68475285138993
63120.68493267377,166347.0,148026.0,17888.0,17.69485265313415
63120.695032475516,166336.0,148010.0,17854.0,17.704952454878367
63120.70513227726,166327.0,148003.0,17839.0,17.715052256622585
63120.715232079,166346.0,148015.0,17871.0,17.725152058359527
63120.72533188074,166366.0,148044.0,17886.0,17.735251860103745
63120.735431682486,166314.0,148008.0,17832.0,17.745351661847963
63120.74553148423,166316.0,148019.0,17841.0,17.75545146359218
63120.75563128597,166329.0,148049.0,17858.0,17.765551265329123
63120.76573108771,166329.0,148029.0,17854.0,17.77565106707334
63120.775830889455,166358.0,148031.0,17864.0,17.78575086881756
63120.7859306912,166355.0,148017.0,17859.0,17.795850670561776
63120.796030492944,166354.0,148013.0,17883.0,17.805950472305994
63120.80613029468,166357.0,148049.0,17870.0,17.816050274042937
63120.816230096425,166356.0,148014.0,17869.0,17.826150075787154
63120.82632989817,166341.0,148053.0,17861.0,17.836249877531372
63120.83642969991,166375.0,148041.0,17895.0,17.84634967927559
63120.84652950166,166377.0,148038.0,17842.0,17.85644948101981
63120.856629303395,166368.0,148047.0,17878.0,17.86654928275675
63120.86672910514,166378.0,148051.0,17887.0,17.87664908450097
63120.87682890688,166348.0,148024.0,17879.0,17.886748886245186
63120.88692870863,166397.0,148046.0,17895.0,17.896848687989404
63120.897028510364,166386.0,148032.0,17867.0,17.906948489726346
63120.90712831211,166401.0,148018.0,17891.0,17.917048291470564
63120.91722811385,166405.0,148038.0,17866.0,17.927148093214782
63120.9273279156,166392.0,148034.0,17881.0,17.937247894959
63120.93742771734,166384.0,148051.0,17876.0,17.94734769670322
63120.94752751908,166369.0,148050.0,17884.0,17.95744749844016
63120.95762732082,166369.0,148026.0,17852.0,17.96754730018438
63120.96772712257,166415.0,148063.0,17904.0,17.977647101928596
63120.97782692431,166401.0,148045.0,17886.0,17.987746903672814
63120.987926726055,166387.0,148031.0,17883.0,17.997846705417032
63120.99802652779,166457.0,148104.0,17920.0,18.007946507153974
63121.008126329536,166380.0,148017.0,17899.0,18.018046308898192
63121.01822613128,166409.0,148049.0,17879.0,18.02814611064241
63121.028325933024,166349.0,148050.0,17876.0,18.03824591238663
63121.03842573476,166396.0,148079.0,17901.0,18.04834571412357
63121.048525536506,166415.0,148037.0,17900.0,18.05844551586779
63121.05862533825,166398.0,148061.0,17869.0,18.068545317612006
63121.068725139994,166400.0,148008.0,17884.0,18.078645119356224
63121.07882494174,166431.0,148040.0,17869.0,18.088744921100442
63121.088924743475,166391.0,148042.0,17854.0,18.098844722837384
63121.09902454522,166433.0,148047.0,17917.0,18.108944524581602
63121.109124346964,166409.0,148081.0,17891.0,18.11904432632582
63121.11922414871,166417.0,148024.0,17874.0,18.12914412807004
63121.12932395045,166404.0,148018.0,17879.0,18.139243929814256
63121.13942375219,166443.0,148066.0,17903.0,18.1493437315512
63121.14952355393,166414.0,148031.0,17886.0,18.159443533295416
63121.15962335568,166363.0,148044.0,17878.0,18.169543335039634
63121.16972315742,166429.0,148053.0,17886.0,18.179643136783852
63121.17982295916,166384.0,148006.0,17881.0,18.189742938520794
63121.1899227609,166410.0,148041.0,17867.0,18.199842740265012
63121.20002256265,166372.0,148022.0,17849.0,18.20994254200923
63121.21012236439,166402.0,148047.0,17881.0,18.220042343753448
63121.220222166135,166380.0,148060.0,17840.0,18.230142145497666
63121.23032196787,166402.0,148047.0,17858.0,18.24024194723461
63121.24042176962,166397.0,148020.0,17854.0,18.250341748978826
63121.25052157136,166370.0,148068.0,17878.0,18.260441550723044
63121.260621373105,166377.0,148034.0,17838.0,18.270541352467262
63121.27072117485,166406.0,148045.0,17859.0,18.28064115421148
63121.280820976586,166412.0,148065.0,17862.0,18.290740955948422
63121.29092077833,166440.0,148058.0,17888.0,18.30084075769264
63121.301020580075,166444.0,148089.0,17876.0,18.310940559436858
63121.31112038182,166430.0,148059.0,17871.0,18.321040361181076
63121.321220183556,166447.0,148103.0,17892.0,18.331140162918018
63121.3313199853,166426.0,148064.0,17865.0,18.341239964662236
63121.341419787044,166471.0,148074.0,17855.0,18.351339766406454
63121.35151958879,166488.0,148092.0,17889.0,18.361439568150672
63121.36161939053,166525.0,148075.0,17888.0,18.37153936989489
63121.37171919227,166584.0,148161.0,17907.0,18.381639171631832
63121.381818994014,166561.0,148134.0,17881.0,18.39173897337605
63121.39191879576,166618.0,148173.0,17915.0,18.401838775120268
63121.4020185975,166697.0,148190.0,17896.0,18.411938576864486
63121.41211839925,166730.0,148246.0,17912.0,18.422038378608704
63121.42221820098,166750.0,148291.0,17943.0,18.432138180345646
63121.43231800273,166762.0,148388.0,17954.0,18.442237982089864
63121.44241780447,166743.0,148474.0,17937.0,18.452337783834082
63121.452517606216,166775.0,148557.0,17961.0,18.4624375855783
63121.46261740795,166895.0,148640.0,18005.0,18.472537387315242
63121.4727172097,166927.0,148678.0,17981.0,18.48263718905946
63121.48281701144,167009.0,148692.0,17988.0,18.492736990803678
63121.492916813186,167049.0,148742.0,17977.0,18.502836792547896
63121.50301661493,167035.0,148754.0,17975.0,18.512936594292114
63121.51311641667,167099.0,148795.0,17998.0,18.523036396029056
63121.52321621841,167199.0,148841.0,18004.0,18.533136197773274
63121.533316020155,167199.0,148802.0,18004.0,18.543235999517492
63121.5434158219,167262.0,148879.0,17993.0,18.55333580126171
63121.553515623644,167287.0,148897.0,18002.0,18.563435603005928
63121.56361542538,167367.0,148906.0,18017.0,18.57353540474287
63121.573715227125,167385.0,148931.0,18045.0,18.583635206487088
63121.58381502887,167466.0,148970.0,18021.0,18.593735008231306
63121.59391483061,167508.0,149002.0,18022.0,18.603834809975524
63121.60401463235,167584.0,149052.0,18054.0,18.613934611712466
63121.614114434095,167647.0,149089.0,18042.0,18.624034413456684
63121.62421423584,167717.0,149114.0,18063.0,18.634134215200902
63121.63431403758,167793.0,149135.0,18074.0,18.64423401694512
63121.64441383933,167884.0,149197.0,18107.0,18.654333818689338
63121.654513641064,167946.0,149242.0,18113.0,18.66443362042628
63121.66461344281,168041.0,149266.0,18137.0,18.674533422170498
63121.67471324455,168124.0,149306.0,18171.0,18.684633223914716
63121.6848130463,168217.0,149320.0,18127.0,18.694733025658934
63121.69491284804,168244.0,149324.0,18122.0,18.704832827403152
63121.70501264978,168369.0,149390.0,18147.0,18.714932629140094
63121.71511245152,168413.0,149438.0,18139.0,18.725032430884312
63121.72521225327,168507.0,149479.0,18154.0,18.73513223262853
63121.73531205501,168566.0,149489.0,18185.0,18.745232034372748
63121.74541185675,168585.0,149514.0,18192.0,18.75533183610969
63121.75551165849,168581.0,149562.0,18169.0,18.765431637853908
63121.765611460236,168638.0,149584.0,18184.0,18.775531439598126
63121.77571126198,168645.0,149596.0,18162.0,18.785631241342344
63121.785811063724,168724.0,149659.0,18192.0,18.795731043086562
63121.79591086546,168689.0,149642.0,18198.0,18.805830844823504
63121.806010667206,168726.0,149700.0,18197.0,18.815930646567722
63121.81611046895,168712.0,149648.0,18206.0,18.82603044831194
63121.826210270694,168754.0,149677.0,18216.0,18.836130250056158
63121.83631007244,168770.0,149713.0,18216.0,18.846230051800376
63121.846409874175,168745.0,149699.0,18193.0,18.856329853537318
63121.85650967592,168731.0,149670.0,18182.0,18.866429655281536
63121.86660947766,168725.0,149686.0,18178.0,18.876529457025754
63121.87670927941,168719.0,149719.0,18171.0,18.886629258769972
63121.886809081145,168776.0,149740.0,18184.0,18.896729060506914
63121.89690888289,168792.0,149758.0,18203.0,18.906828862251132
63121.90700868463,168791.0,149762.0,18178.0,18.91692866399535
63121.91710848638,168796.0,149823.0,18165.0,18.927028465739568
63121.92720828812,168848.0,149851.0,18184.0,18.937128267483786
63121.93730808986,168820.0,149906.0,18181.0,18.947228069220728
63121.9474078916,168830.0,149881.0,18165.0,18.957327870964946
63121.95750769335,168865.0,149945.0,18181.0,18.967427672709164
63121.96760749509,168801.0,149909.0,18155.0,18.97752747445338
63121.977707296835,168739.0,149856.0,18130.0,18.9876272761976
63121.98780709857,168729.0,149843.0,18136.0,18.99772707793454
63121.99790690032,168670.0,149841.0,18135.0,19.00782687967876
63122.00800670206,168604.0,149794.0,18087.0,19.017926681422978
63122.018106503805,168545.0,149759.0,18107.0,19.028026483167196
63122.02820630554,168540.0,149774.0,18083.0,19.038126284904138
63122.038306107286,168483.0,149700.0,18068.0,19.048226086648356
63122.04840590903,168467.0,149721.0,18059.0,19.058325888392574
63122.058505710775,168447.0,149726.0,18033.0,19.06842569013679
63122.06860551252,168407.0,149735.0,18018.0,19.07852549188101
63122.078705314256,168401.0,149706.0,18003.0,19.08862529361795
63122.088805116,168421.0,149695.0,17994.0,19.09872509536217
63122.098904917744,168378.0,149709.0,17960.0,19.108824897106388
63122.10900471949,168377.0,149669.0,17939.0,19.118924698850606
63122.11910452123,168349.0,149644.0,17899.0,19.129024500594824
63122.12920432297,168366.0,149659.0,17908.0,19.139124302331766
63122.139304124714,168350.0,149647.0,17849.0,19.149224104075984
63122.14940392646,168330.0,149609.0,17847.0,19.1593239058202
63122.1595037282,168320.0,149591.0,17802.0,19.16942370756442
63122.16960352994,168337.0,149552.0,17835.0,19.17952350930136
63122.17970333168,168322.0,149549.0,17828.0,19.18962331104558
63122.18980313343,168311.0,149511.0,17841.0,19.199723112789798
63122.19990293517,168363.0,149544.0,17799.0,19.209822914534016
63122.210002736916,168299.0,149485.0,17783.0,19.219922716278234
63122.22010253865,168338.0,149496.0,17812.0,19.230022518015176
63122.2302023404,168356.0,149474.0,17822.0,19.240122319759394
63122.24030214214,168410.0,149495.0,17833.0,19.25022212150361
63122.250401943886,168458.0,149535.0,17826.0,19.26032192324783
63122.26050174562,168501.0,149549.0,17808.0,19.27042172498477
63122.27060154737,168550.0,149601.0,17799.0,19.28052152672899
63122.28070134911,168550.0,149564.0,17816.0,19.290621328473208
63122.290801150855,168521.0,149546.0,17768.0,19.300721130217426
63122.3009009526,168544.0,149548.0,17778.0,19.310820931961644
