timestamp,time_from_segment_start_sec,selected_channel_name,backup_channel_name,selected_channel_raw,selected_channel_clipped,selected_channel_detrended,selected_channel_filtered,selected_channel_filtered_z
62858.88481225331,0.0,PPG_2,PPG_3,89894.0,89894.0,-321.12411130574765,5.172864286310525,0.061034354330563964
62858.894901220854,0.0100889675450162,PPG_2,PPG_3,89927.0,89927.0,-288.2323432816338,15.31254661025444,0.18145821175739088
62858.9049901884,0.0201779350900324,PPG_2,PPG_3,89930.0,89930.0,-285.34057525751996,25.170651393601293,0.29853791573639377
62858.91507915595,0.0302669026423245,PPG_2,PPG_3,89915.0,89915.0,-300.4488072334061,34.49616510682545,0.4092923060570187
62858.9251681235,0.0403558701873407,PPG_2,PPG_3,89939.0,89939.0,-276.5570392093068,43.06856799360123,0.5111023815664529
62858.93525709104,0.0504448377323569,PPG_2,PPG_3,89943.0,89943.0,-272.665271185193,50.703227081754285,0.6017753502218028
62858.945346058594,0.0605338052846491,PPG_2,PPG_3,89950.0,89950.0,-265.77350316107913,57.25358019559492,0.6795705674954047
62858.95543502614,0.0706227728296653,PPG_2,PPG_3,89958.0,89958.0,-257.8817351369653,62.61170653363862,0.7432063128366381
62858.96552399368,0.0807117403746815,PPG_2,PPG_3,89960.0,89960.0,-255.98996711285145,66.70761802679091,0.7918513734929784
62858.97561296123,0.0908007079196977,PPG_2,PPG_3,89964.0,89964.0,-252.0981990887376,69.50742720685106,0.8251032852146805
62858.98570192878,0.1008896754719899,PPG_2,PPG_3,89966.0,89966.0,-250.20643106462376,71.01076579096103,0.842957674093275
62858.995790896326,0.1109786430170061,PPG_2,PPG_3,89956.0,89956.0,-260.3146630405099,71.24803133890916,0.845775556508677
62859.00587986387,0.1210676105620223,PPG_2,PPG_3,89994.0,89994.0,-222.42289501639607,70.27813891080491,0.8342566367092296
62859.01596883142,0.1311565781143144,PPG_2,PPG_3,89971.0,89971.0,-245.53112699229678,68.18666500141977,0.8094172632624922
62859.02605779897,0.1412455456593306,PPG_2,PPG_3,89969.0,89969.0,-247.63935896818293,65.0825509490713,0.772551277116762
62859.03614676651,0.1513345132043468,PPG_2,PPG_3,89943.0,89943.0,-273.7475909440691,61.09130835407393,0.7251493158067065
62859.046235734066,0.161423480756639,PPG_2,PPG_3,89947.0,89947.0,-269.85582291995524,56.34551312688399,0.6687859160908716
62859.05632470161,0.1715124483016552,PPG_2,PPG_3,89959.0,89959.0,-257.9640548958414,50.976395794785155,0.6050196362951267
62859.06641366915,0.1816014158466714,PPG_2,PPG_3,89933.0,89933.0,-284.07228687172756,45.109977531761984,0.5353471659018281
62859.07650263671,0.1916903833989636,PPG_2,PPG_3,89965.0,89965.0,-252.1805188476137,38.86827775062399,0.4612176675081882
62859.08659160425,0.2017793509439798,PPG_2,PPG_3,89928.0,89928.0,-289.28875082349987,32.37375687259724,0.384085541344413
62859.0966805718,0.211868318488996,PPG_2,PPG_3,89930.0,89930.0,-287.3969827994006,25.754596731001733,0.30547313794647374
62859.10676953935,0.2219572860412881,PPG_2,PPG_3,89941.0,89941.0,-276.50521477528673,19.14925072314912,0.2270247979993589
62859.116858506895,0.2320462535863043,PPG_2,PPG_3,89941.0,89941.0,-276.6134467511729,12.70948849157958,0.15054301246985355
62859.12694747444,0.2421352211313205,PPG_2,PPG_3,89933.0,89933.0,-284.72167872705904,6.600152565917628,0.07798553236545262
62859.13703644199,0.2522241886836127,PPG_2,PPG_3,89899.0,89899.0,-318.8299107029452,0.9925435635289028,0.011386808121950746
62859.14712540954,0.2623131562286289,PPG_2,PPG_3,89882.0,89882.0,-335.93814267883135,-3.9496197682691125,-0.04730875584489411
62859.15721437708,0.2724021237736451,PPG_2,PPG_3,89924.0,89924.0,-294.0463746547175,-8.088055536798043,-0.09645885572352275
62859.16730334463,0.2824910913186613,PPG_2,PPG_3,89873.0,89873.0,-345.15460663060367,-11.32588008478953,-0.13491285351985094
62859.17739231218,0.2925800588709535,PPG_2,PPG_3,89895.0,89895.0,-323.2628386064898,-13.618244842165765,-0.16213810554383984
62859.187481279725,0.3026690264159697,PPG_2,PPG_3,89915.0,89915.0,-303.37107058239053,-14.976794323973985,-0.17827290778692712
62859.19757024727,0.3127579939609859,PPG_2,PPG_3,89875.0,89875.0,-343.4793025582767,-15.468005906661904,-0.18410677828801078
62859.20765921482,0.3228469615132781,PPG_2,PPG_3,89910.0,89910.0,-308.58753453416284,-15.206327570922987,-0.18099895759028545
62859.21774818237,0.3329359290582943,PPG_2,PPG_3,89908.0,89908.0,-310.695766510049,-14.343381898670986,-0.17075019009616219
62859.22783714991,0.3430248966033105,PPG_2,PPG_3,89900.0,89900.0,-318.80399848593515,-13.054323647186928,-0.15544069990384898
62859.237926117465,0.3531138641556026,PPG_2,PPG_3,89912.0,89912.0,-306.9122304618213,-11.522949562399724,-0.13725334762180802
62859.24801508501,0.3632028317006188,PPG_2,PPG_3,89915.0,89915.0,-304.02046243770747,-9.92726763467109,-0.11830224374850483
62859.258104052555,0.373291799245635,PPG_2,PPG_3,89914.0,89914.0,-305.1286944135936,-8.426586782311018,-0.10047941940014925
62859.26819302011,0.3833807667979272,PPG_2,PPG_3,89897.0,89897.0,-322.2369263894798,-7.150865193902981,-0.08532832198203803
62859.27828198765,0.3934697343429434,PPG_2,PPG_3,89954.0,89954.0,-265.3451583653805,-6.192597419810029,-0.073947462294591
62859.2883709552,0.4035587018879596,PPG_2,PPG_3,89929.0,89929.0,-290.45339034126664,-5.6016347388939876,-0.06692889865940128
62859.29845992275,0.4136476694402518,PPG_2,PPG_3,89911.0,89911.0,-308.5616223171528,-5.385169912680332,-0.06435805585219419
62859.308548890294,0.423736636985268,PPG_2,PPG_3,89915.0,89915.0,-304.66985429303895,-5.5153841497028555,-0.06590454421476492
62859.31863785784,0.4338256045302842,PPG_2,PPG_3,89895.0,89895.0,-324.7780862689251,-5.943380106055636,-0.07098763482652665
62859.328726825384,0.4439145720753004,PPG_2,PPG_3,89914.0,89914.0,-305.88631824481126,-6.614054281378988,-0.07895289139854712
62859.33881579294,0.4540035396275925,PPG_2,PPG_3,89912.0,89912.0,-307.9945502206974,-7.4765422018070735,-0.08919622240673135
62859.34890476048,0.4640925071726087,PPG_2,PPG_3,89923.0,89923.0,-297.1027821965836,-8.487780440594804,-0.1012061854018011
62859.35899372803,0.4741814747176249,PPG_2,PPG_3,89936.0,89936.0,-284.21101417246973,-9.61011586566412,-0.11453559325656852
62859.36908269558,0.4842704422699171,PPG_2,PPG_3,89912.0,89912.0,-308.31924614837044,-10.806217582220937,-0.12874108589241628
62859.37917166312,0.4943594098149333,PPG_2,PPG_3,89925.0,89925.0,-295.4274781242566,-12.034786342876957,-0.1433321731223314
62859.38926063067,0.5044483773599495,PPG_2,PPG_3,89938.0,89938.0,-282.53571010014275,-13.248946700553681,-0.15775213906750668
62859.39934959822,0.5145373449122417,PPG_2,PPG_3,89911.0,89911.0,-309.6439420760289,-14.397880272062784,-0.1713974395994164
62859.409438565766,0.5246263124572579,PPG_2,PPG_3,89874.0,89874.0,-346.75217405191506,-15.431736621019024,-0.18367602640213393
62859.41952753331,0.5347152800022741,PPG_2,PPG_3,89934.0,89934.0,-286.8604060278012,-16.30765812154283,-0.19407890121874288
62859.42961650086,0.5448042475545662,PPG_2,PPG_3,89919.0,89919.0,-301.9686380036874,-16.99238983029229,-0.20221111197601244
62859.43970546841,0.5548932150995824,PPG_2,PPG_3,89923.0,89923.0,-298.07686997957353,-17.45937221367671,-0.20775722458199905
62859.449794435954,0.5649821826445987,PPG_2,PPG_3,89930.0,89930.0,-291.18510195547424,-17.6832069071289,-0.21041559555954065
62859.459883403506,0.5750711501968908,PPG_2,PPG_3,89921.0,89921.0,-300.2933339313604,-17.63568011046835,-0.2098511439325416
62859.46997237105,0.585160117741907,PPG_2,PPG_3,89930.0,89930.0,-291.40156590724655,-17.28550900269171,-0.20569233952322497
62859.48006133859,0.5952490852869232,PPG_2,PPG_3,89916.0,89916.0,-305.5097978831327,-16.602194011205068,-0.19757695439739248
62859.49015030615,0.6053380528392154,PPG_2,PPG_3,89918.0,89918.0,-303.61802985901886,-15.563196811403792,-0.1852373123200187
62859.50023927369,0.6154270203842316,PPG_2,PPG_3,89905.0,89905.0,-316.726261834905,-14.162360362648968,-0.16860028924634726
62859.51032824124,0.6255159879292478,PPG_2,PPG_3,89940.0,89940.0,-281.8344938107912,-12.416478357675066,-0.14786533533614793
62859.52041720878,0.635604955474264,PPG_2,PPG_3,89927.0,89927.0,-294.94272578667733,-10.367542898845048,-0.12353116946309477
62859.530506176336,0.6456939230265561,PPG_2,PPG_3,89937.0,89937.0,-285.0509577625635,-8.080652381745885,-0.09637093221073138
62859.54059514388,0.6557828905715724,PPG_2,PPG_3,89942.0,89942.0,-280.1591897384642,-5.6395489672756405,-0.06737918669478664
62859.550684111426,0.6658718581165886,PPG_2,PPG_3,89907.0,89907.0,-315.26742171435035,-3.141368168700874,-0.03770956207512796
62859.56077307898,0.6759608256688807,PPG_2,PPG_3,89939.0,89939.0,-283.3756536902365,-0.6900218473665732,-0.00859616675631705
62859.57086204652,0.6860497932138969,PPG_2,PPG_3,89960.0,89960.0,-262.48388566612266,1.6141670423747387,0.01876951448277314
62859.58095101407,0.6961387607589131,PPG_2,PPG_3,89995.0,89995.0,-227.59211764200882,3.6892957190398428,0.04341476390157739
62859.59103998162,0.7062277283112053,PPG_2,PPG_3,89963.0,89963.0,-259.700349617895,5.486464086586179,0.06475881989377973
62859.601128949165,0.7163166958562215,PPG_2,PPG_3,89941.0,89941.0,-281.8085815937811,6.996166466195953,0.08268878833961113
62859.61121791671,0.7264056634012377,PPG_2,PPG_3,89939.0,89939.0,-283.9168135696673,8.242812116863313,0.09749456561166941
62859.62130688426,0.7364946309535298,PPG_2,PPG_3,89948.0,89948.0,-275.02504554555344,9.27165286162048,0.10971358463053714
62859.63139585181,0.746583598498546,PPG_2,PPG_3,89961.0,89961.0,-262.13327752145415,10.135834350262364,0.11997702928830184
62859.64148481935,0.7566725660435623,PPG_2,PPG_3,89960.0,89960.0,-263.2415094973403,10.888155798364217,0.12891196905376412
62859.651573786905,0.7667615335958544,PPG_2,PPG_3,89947.0,89947.0,-276.34974147322646,11.577524765335106,0.13709925417185365
62859.66166275445,0.7768505011408706,PPG_2,PPG_3,89989.0,89989.0,-234.45797344911261,12.248419340141668,0.1450671283166042
62859.671751721995,0.7869394686858868,PPG_2,PPG_3,89981.0,89981.0,-242.56620542499877,12.941726727318711,0.15330118805131784
62859.68184068955,0.797028436238179,PPG_2,PPG_3,89921.0,89921.0,-302.6744374008849,13.694702758471227,0.16224390196723656
62859.69192965709,0.8071174037831952,PPG_2,PPG_3,89966.0,89966.0,-257.7826693767711,14.538866840639805,0.17226961005434918
62859.70201862464,0.8172063713282114,PPG_2,PPG_3,89984.0,89984.0,-239.89090135265724,15.498626018232812,0.1836681823837428
62859.71210759218,0.8272953388732276,PPG_2,PPG_3,89977.0,89977.0,-246.9991333285434,16.59414969711347,0.19667916074562927
62859.722196559735,0.8373843064255198,PPG_2,PPG_3,89969.0,89969.0,-255.1073653044441,17.84726137850981,0.2115617317808201
62859.73228552728,0.847473273970536,PPG_2,PPG_3,89996.0,89996.0,-228.21559728033026,19.28612709534594,0.2286504091579657
62859.742374494825,0.8575622415155522,PPG_2,PPG_3,89997.0,89997.0,-227.3238292562164,20.94604694654707,0.24836443422450785
62859.75246346238,0.8676512090678443,PPG_2,PPG_3,89986.0,89986.0,-238.43206123210257,22.864799871728312,0.2711524882598594
62859.76255242992,0.8777401766128605,PPG_2,PPG_3,89980.0,89980.0,-244.54029320798873,25.070963162955852,0.2973539692486393
62859.77264139747,0.8878291441578767,PPG_2,PPG_3,89940.0,89940.0,-284.6485251838749,27.566008277543162,0.3269863529420661
62859.78273036502,0.8979181117101689,PPG_2,PPG_3,89978.0,89978.0,-246.75675715976104,30.305637099543134,0.3595235331142578
62859.79281933256,0.9080070792551852,PPG_2,PPG_3,89994.0,89994.0,-230.8649891356472,33.18837429789853,0.393760338793465
62859.80290830011,0.9180960468002012,PPG_2,PPG_3,90007.0,90007.0,-217.97322111153335,36.056283129634615,0.4278210354930626
62859.81299726766,0.9281850143524936,PPG_2,PPG_3,89986.0,89986.0,-239.08145308743406,38.706112822718524,0.45929171701646476
62859.82308623521,0.9382739818975095,PPG_2,PPG_3,89987.0,89987.0,-238.1896850633202,40.90602307212201,0.48541893380316753
62859.83317520275,0.948362949442526,PPG_2,PPG_3,89992.0,89992.0,-233.29791703920637,42.415624588528885,0.5033477043479624
62859.843264170304,0.958451916994818,PPG_2,PPG_3,90036.0,90036.0,-189.40614901509252,43.01016714480274,0.510408784344703
62859.85335313785,0.9685408845398342,PPG_2,PPG_3,90024.0,90024.0,-201.51438099097868,42.50809279804943,0.5044459023115733
62859.863442105394,0.9786298520848504,PPG_2,PPG_3,90022.0,90022.0,-203.62261296686484,40.79651907834142,0.4841184104816861
62859.87353107294,0.9887188196298666,PPG_2,PPG_3,90011.0,90011.0,-214.730844942751,37.84748574379132,0.4490942392620212
62859.88362004049,0.9988077871821588,PPG_2,PPG_3,89995.0,89995.0,-230.83907691863715,33.72117201342471,0.40008810667435346
62859.89370900803,1.008896754727175,PPG_2,PPG_3,89998.0,89998.0,-227.94730889453785,28.557130554499253,0.3387574088745451
62859.90379797558,1.0189857222721912,PPG_2,PPG_3,89972.0,89972.0,-254.055540870424,22.55731606598272,0.26750065925761085
62859.91388694313,1.0290746898244834,PPG_2,PPG_3,89983.0,89983.0,-243.16377284631017,15.965179543486721,0.18920920165951308
62859.92397591068,1.0391636573694996,PPG_2,PPG_3,89974.0,89974.0,-252.27200482219632,9.044455311364947,0.10701527471060124
62859.93406487822,1.0492526249145158,PPG_2,PPG_3,89966.0,89966.0,-260.3802367980825,2.0598883998461983,0.024063120681606917
62859.944153845776,1.059341592466808,PPG_2,PPG_3,89941.0,89941.0,-285.48846877396863,-4.739218546011778,-0.0566864195228519
62859.95424281332,1.069430560011824,PPG_2,PPG_3,89971.0,89971.0,-255.5967007498548,-11.131832435330981,-0.1326082481361866
62859.964331780866,1.0795195275568403,PPG_2,PPG_3,89954.0,89954.0,-272.70493272574095,-16.933307116852475,-0.2015094165942089
62859.97442074842,1.0896084951091325,PPG_2,PPG_3,89971.0,89971.0,-255.8131647016271,-21.999344967169396,-0.2616761753066437
62859.98450971596,1.0996974626541487,PPG_2,PPG_3,89917.0,89917.0,-309.9213966775278,-26.228620943955814,-0.31190513820467786
62859.99459868351,1.109786430199165,PPG_2,PPG_3,89934.0,89934.0,-293.02962865341397,-29.566069551914925,-0.35154232036620975
62860.00468765106,1.119875397751457,PPG_2,PPG_3,89943.0,89943.0,-284.1378606293001,-32.005201102936276,-0.3805106470614017
62860.014776618606,1.1299643652964733,PPG_2,PPG_3,89932.0,89932.0,-295.2460926051863,-33.58614014366597,-0.39928665715313466
62860.02486558615,1.1400533328414897,PPG_2,PPG_3,89953.0,89953.0,-274.35432458107243,-34.38846679386413,-0.4088154833082746
62860.0349545537,1.1501423003937816,PPG_2,PPG_3,89928.0,89928.0,-299.4625565569586,-34.520865953705915,-0.41038792088953574
62860.04504352125,1.1602312679387978,PPG_2,PPG_3,89948.0,89948.0,-279.57078853284474,-34.1100098033139,-0.4055083910485556
62860.05513248879,1.170320235483814,PPG_2,PPG_3,89950.0,89950.0,-277.6790205087309,-33.290032629794055,-0.3957699385919111
62860.06522145634,1.1804092030288302,PPG_2,PPG_3,89921.0,89921.0,-306.78725248461706,-32.19325661410729,-0.38274408686178973
62860.07531042389,1.1904981705811224,PPG_2,PPG_3,89970.0,89970.0,-257.89548446051776,-30.94248295352453,-0.36788928331241555
62860.085399391435,1.2005871381261386,PPG_2,PPG_3,89956.0,89956.0,-272.0037164364039,-29.64494380048334,-0.35247906975941523
62860.09548835898,1.2106761056711548,PPG_2,PPG_3,89941.0,89941.0,-287.1119484122901,-28.388865964377793,-0.3375612712111332
62860.10557732653,1.220765073223447,PPG_2,PPG_3,89940.0,89940.0,-288.22018038817623,-27.24420548436448,-0.3239667200167886
62860.11566629408,1.2308540407684632,PPG_2,PPG_3,89929.0,89929.0,-299.3284123640624,-26.266793837918545,-0.3123584982798039
62860.12575526162,1.2409430083134794,PPG_2,PPG_3,89954.0,89954.0,-274.43664433994854,-25.501972891888112,-0.3032751083254335
62860.135844229175,1.2510319758657715,PPG_2,PPG_3,89958.0,89958.0,-270.5448763158347,-24.983990099761883,-0.2971232897658658
62860.14593319672,1.2611209434107875,PPG_2,PPG_3,89983.0,89983.0,-245.65310829172086,-24.731081821654687,-0.2941196265886747
62860.156022164265,1.271209910955804,PPG_2,PPG_3,89948.0,89948.0,-280.761340267607,-24.740104317959066,-0.2942267821951208
62860.16611113182,1.281298878508096,PPG_2,PPG_3,89955.0,89955.0,-273.8695722435077,-24.98537363558386,-0.29713972131818145
62860.17620009936,1.2913878460531123,PPG_2,PPG_3,89947.0,89947.0,-281.9778042193939,-25.42320121662754,-0.3023395771433124
62860.18628906691,1.3014768135981285,PPG_2,PPG_3,89951.0,89951.0,-278.08603619528003,-25.999724615981037,-0.309186652764511
62860.19637803446,1.3115657811504209,PPG_2,PPG_3,89946.0,89946.0,-283.1942681711662,-26.658555360594807,-0.3170112509247934
62860.206467002005,1.3216547486954369,PPG_2,PPG_3,89961.0,89961.0,-268.30250014705234,-27.346094441250795,-0.32517680341244604
62860.21655596955,1.331743716240453,PPG_2,PPG_3,89952.0,89952.0,-277.4107321229385,-28.01405867957642,-0.33310987543901194
62860.226644937095,1.3418326837854693,PPG_2,PPG_3,89941.0,89941.0,-288.51896409882465,-28.619901354596823,-0.34030516120723187
62860.23673390465,1.3519216513377614,PPG_2,PPG_3,89972.0,89972.0,-257.6271960747108,-29.12587752168964,-0.3463143831789571
62860.24682287219,1.3620106188827776,PPG_2,PPG_3,89953.0,89953.0,-276.7354280506115,-29.497131014006932,-0.3507235723625724
62860.25691183974,1.3720995864277938,PPG_2,PPG_3,89943.0,89943.0,-286.8436600264977,-29.699638767082742,-0.35312865410035443
62860.26700080729,1.382188553980086,PPG_2,PPG_3,89966.0,89966.0,-263.95189200238383,-29.69900094843342,-0.3531210790521787
62860.277089774834,1.3922775215251022,PPG_2,PPG_3,89957.0,89957.0,-273.06012397827,-29.46001908340238,-0.35028281281043105
62860.28717874238,1.4023664890701184,PPG_2,PPG_3,89954.0,89954.0,-276.16835595415614,-28.946768801257235,-0.34418719986845825
62860.29726770993,1.4124554566224106,PPG_2,PPG_3,89950.0,89950.0,-280.2765879300423,-28.123541110182686,-0.33441014266562297
62860.30735667748,1.4225444241674268,PPG_2,PPG_3,89988.0,89988.0,-242.38481990592845,-26.956713138045636,-0.32055231942529766
62860.31744564502,1.432633391712443,PPG_2,PPG_3,89951.0,89951.0,-279.4930518818146,-25.41748256592781,-0.3022716596332231
62860.327534612574,1.4427223592647351,PPG_2,PPG_3,89969.0,89969.0,-261.60128385770076,-23.4864573587229,-0.2793378539368723
62860.33762358012,1.4528113268097511,PPG_2,PPG_3,89971.0,89971.0,-259.7095158336015,-21.160945941345368,-0.25171893586589633
62860.347712547664,1.4629002943547675,PPG_2,PPG_3,89926.0,89926.0,-304.8177478094876,-18.463768052544502,-0.21968592386819796
62860.357801515216,1.4729892619070597,PPG_2,PPG_3,89950.0,89950.0,-280.9259797853738,-15.450092473155925,-0.1838940295357688
62860.36789048276,1.483078229452076,PPG_2,PPG_3,89980.0,89980.0,-251.03421176125994,-12.207036217464768,-0.14537789740406445
62860.377979450306,1.493167196997092,PPG_2,PPG_3,90022.0,90022.0,-209.1424437371461,-8.842346343479301,-0.10541718456067503
62860.38806841786,1.5032561645493845,PPG_2,PPG_3,89981.0,89981.0,-250.25067571303225,-5.4651928084074255,-0.06530844714435186
62860.3981573854,1.5133451320944005,PPG_2,PPG_3,90020.0,90020.0,-211.3589076889184,-2.167860305239234,-0.026147703586074187
62860.40824635295,1.523434099639417,PPG_2,PPG_3,89992.0,89992.0,-239.46713966480456,0.9841782979889251,0.01128745811151255
62860.41833532049,1.5335230671844329,PPG_2,PPG_3,89966.0,89966.0,-265.5753716406907,3.9518617709349217,0.046533127553254325
62860.428424288046,1.543612034736725,PPG_2,PPG_3,89989.0,89989.0,-242.68360361659143,6.714901110552908,0.07934834255393987
62860.43851325559,1.5537010022817412,PPG_2,PPG_3,90002.0,90002.0,-229.79183559247758,9.263053653984525,0.10961145620863474
62860.448602223136,1.5637899698267574,PPG_2,PPG_3,90003.0,90003.0,-228.90006756836374,11.591573818875334,0.1372661076458047
62860.45869119069,1.5738789373790496,PPG_2,PPG_3,90005.0,90005.0,-227.0082995442499,13.701631264169594,0.1623261883107082
62860.46878015823,1.5839679049240658,PPG_2,PPG_3,90007.0,90007.0,-225.11653152013605,15.603378375627427,0.18491227293303197
62860.47886912578,1.594056872469082,PPG_2,PPG_3,90037.0,90037.0,-195.2247634960222,17.319508156674612,0.20529387478960517
62860.48895809333,1.6041458400213742,PPG_2,PPG_3,90016.0,90016.0,-216.33299547190836,18.88745682150152,0.2239156047840274
62860.499047060875,1.6142348075663904,PPG_2,PPG_3,90006.0,90006.0,-226.44122744779452,20.357849443077644,0.24137871119752974
62860.50913602842,1.6243237751114066,PPG_2,PPG_3,89988.0,89988.0,-244.54945942368067,21.788236663495713,0.2583666937786035
62860.51922499597,1.6344127426636987,PPG_2,PPG_3,90035.0,90035.0,-197.65769139958138,23.235014967095946,0.27554934493026345
62860.52931396352,1.644501710208715,PPG_2,PPG_3,90019.0,90019.0,-213.76592337546754,24.747960403819828,0.29351782951842154
62860.53940293106,1.6545906777537311,PPG_2,PPG_3,90027.0,90027.0,-205.8741553513537,26.368571896734572,0.31276500917672206
62860.549491898615,1.6646796453060233,PPG_2,PPG_3,90021.0,90021.0,-211.98238732723985,28.129869938543028,0.3336830515272236
62860.55958086616,1.6747686128510395,PPG_2,PPG_3,90046.0,90046.0,-187.090619303126,30.055381565942103,0.3565513752363448
62860.569669833705,1.6848575803960557,PPG_2,PPG_3,90029.0,90029.0,-204.19885127901216,32.15646269599105,0.3815048487637873
62860.57975880126,1.694946547948348,PPG_2,PPG_3,90023.0,90023.0,-210.30708325489832,34.4273714874435,0.4084752791771169
62860.5898477688,1.705035515493364,PPG_2,PPG_3,90014.0,90014.0,-219.41531523078447,36.838407583604145,0.4371099304234737
62860.59993673635,1.7151244830383805,PPG_2,PPG_3,90047.0,90047.0,-186.52354720668518,39.32981656790382,0.46669912964411775
62860.61002570389,1.7252134505833965,PPG_2,PPG_3,90032.0,90032.0,-201.63177918257134,41.80991966620369,0.4961540545985445
62860.620114671445,1.7353024181356886,PPG_2,PPG_3,90055.0,90055.0,-178.7400111584575,44.158462202929904,0.5240465015774505
62860.63020363899,1.7453913856807048,PPG_2,PPG_3,90039.0,90039.0,-194.84824313434365,46.2334066002045,0.5486895624035217
62860.640292606535,1.755480353225721,PPG_2,PPG_3,90026.0,90026.0,-207.9564751102298,47.87919003134512,0.5682356963883213
62860.65038157409,1.7655693207780132,PPG_2,PPG_3,90072.0,90072.0,-162.06470708611596,48.93624629240527,0.5807898167647998
62860.66047054163,1.7756582883230294,PPG_2,PPG_3,90041.0,90041.0,-193.17293906200211,49.25255121901955,0.5845464097397152
62860.67055950918,1.7857472558680456,PPG_2,PPG_3,90037.0,90037.0,-197.28117103788827,48.69667363791135,0.5779445340166396
62860.68064847673,1.7958362234203378,PPG_2,PPG_3,90067.0,90067.0,-167.38940301377443,47.17077540806868,0.5598222156828095
62860.690737444274,1.805925190965354,PPG_2,PPG_3,90059.0,90059.0,-175.49763498967513,44.62249774554569,0.5295576160522093
62860.70082641182,1.8160141585103704,PPG_2,PPG_3,90044.0,90044.0,-190.6058669655613,41.0540733705967,0.4871772520093912
62860.71091537937,1.8261031260626623,PPG_2,PPG_3,90030.0,90030.0,-204.71409894144745,36.52596713367624,0.43339923387555096
62860.72100434692,1.8361920936076783,PPG_2,PPG_3,90047.0,90047.0,-187.8223309173336,31.15410198587665,0.3696003196682328
62860.73109331446,1.8462810611526947,PPG_2,PPG_3,90016.0,90016.0,-218.93056289321976,25.10235147808756,0.29772675232660256
62860.741182282014,1.856370028704987,PPG_2,PPG_3,90027.0,90027.0,-208.0387948691059,18.572205768189246,0.22017152812710034
62860.75127124956,1.866458996250003,PPG_2,PPG_3,90016.0,90016.0,-219.14702684499207,11.79060369907628,0.13962988445372296
62860.761360217104,1.876547963795019,PPG_2,PPG_3,89997.0,89997.0,-238.25525882087823,4.9966723854144375,0.05894181260436329
62860.77144918465,1.8866369313400355,PPG_2,PPG_3,90014.0,90014.0,-221.36349079676438,-1.571802769194924,-0.019068630943996925
62860.7815381522,1.8967258988923277,PPG_2,PPG_3,90005.0,90005.0,-230.4717227726651,-7.691518114281628,-0.09174938214161822
62860.79162711975,1.906814866437344,PPG_2,PPG_3,89966.0,89966.0,-269.57995474855124,-13.166370634354623,-0.15677142506630554
62860.80171608729,1.91690383398236,PPG_2,PPG_3,89974.0,89974.0,-261.6881867244374,-17.839500291480626,-0.2122718127103959
62860.81180505485,1.926992801534652,PPG_2,PPG_3,89999.0,89999.0,-236.79641870032356,-21.6024073228906,-0.2569619484941238
62860.82189402239,1.9370817690796684,PPG_2,PPG_3,89977.0,89977.0,-258.9046506762097,-24.398488754409442,-0.2901695876395734
62860.831982989934,1.9471707366246849,PPG_2,PPG_3,89976.0,89976.0,-260.01288265209587,-26.22138170628005,-0.3118191614553189
62860.842071957486,1.9572597041769768,PPG_2,PPG_3,90005.0,90005.0,-231.12111462798202,-27.11080885412075,-0.32238243598613847
62860.85216092503,1.967348671721993,PPG_2,PPG_3,89949.0,89949.0,-287.2293466038682,-27.147991833152787,-0.3228240393443704
62860.862249892576,1.9774376392670092,PPG_2,PPG_3,89975.0,89975.0,-261.33757857975434,-26.45114662139528,-0.31454796266383267
62860.87233886013,1.9875266068193016,PPG_2,PPG_3,89972.0,89972.0,-264.44581055565504,-25.169597592922123,-0.2993276556995892
62860.88242782767,1.9976155743643176,PPG_2,PPG_3,90000.0,90000.0,-236.5540425315412,-23.473891217421517,-0.2791886122584708
62860.89251679522,2.007704541909334,PPG_2,PPG_3,90005.0,90005.0,-231.66227450742736,-21.541678987255427,-0.256240708893251
62860.90260576277,2.017793509461626,PPG_2,PPG_3,89989.0,89989.0,-247.7705064833135,-19.54322987994198,-0.23250614377718362
62860.91269473032,2.027882477006642,PPG_2,PPG_3,89983.0,89983.0,-253.87873845919967,-17.6313722116591,-0.20979998120619178
62860.92278369786,2.0379714445516584,PPG_2,PPG_3,89959.0,89959.0,-277.9869704350858,-15.937120077510144,-0.18967820905105656
62860.93287266541,2.0480604121039505,PPG_2,PPG_3,90018.0,90018.0,-219.09520241097198,-14.567643842382198,-0.17341363530804707
62860.94296163296,2.0581493796489667,PPG_2,PPG_3,89989.0,89989.0,-248.20343438685813,-13.602455405231137,-0.16195058242018381
62860.9530506005,2.068238347193983,PPG_2,PPG_3,90013.0,90013.0,-224.31166636275884,-13.087537396233547,-0.15583516273335554
62860.96313956805,2.078327314738999,PPG_2,PPG_3,90003.0,90003.0,-234.419898338645,-13.030924964093755,-0.1551628056279964
62860.9732285356,2.0884162822912913,PPG_2,PPG_3,89982.0,89982.0,-255.52813031453115,-13.403129592044685,-0.15958329096648913
62860.983317503145,2.0985052498363075,PPG_2,PPG_3,90001.0,90001.0,-236.6363622904173,-14.143017998706194,-0.16837056981300347
62860.99340647069,2.1085942173813237,PPG_2,PPG_3,89995.0,89995.0,-242.74459426630347,-15.167265437165758,-0.18053503646572908
62861.00349543824,2.118683184933616,PPG_2,PPG_3,89978.0,89978.0,-259.8528262421896,-16.381021088014133,-0.19495019591343832
62861.01358440579,2.128772152478632,PPG_2,PPG_3,89985.0,89985.0,-252.96105821807578,-17.68816365661465,-0.21047446435585027
62861.02367337333,2.1388611200236483,PPG_2,PPG_3,89986.0,89986.0,-252.06929019396193,-18.999482506413983,-0.22604833236909624
62861.033762340885,2.1489500875759404,PPG_2,PPG_3,90015.0,90015.0,-223.1775221698481,-20.23722886992211,-0.24074841732715244
62861.04385130843,2.1590390551209566,PPG_2,PPG_3,89972.0,89972.0,-266.2857541457488,-21.336597144454426,-0.253805055999079
62861.053940275975,2.169128022665973,PPG_2,PPG_3,89976.0,89976.0,-262.39398612163495,-22.246487587656734,-0.26461136269642804
62861.06402924353,2.179216990218265,PPG_2,PPG_3,89985.0,89985.0,-253.5022180975211,-22.930226763617554,-0.2727317856458342
62861.07411821107,2.189305957763281,PPG_2,PPG_3,90003.0,90003.0,-235.61045007340726,-23.36431063587275,-0.27788717934296264
62861.08420717862,2.1993949253082974,PPG_2,PPG_3,89966.0,89966.0,-272.7186820492934,-23.534080073445068,-0.2799034447339763
62861.09429614617,2.2094838928605895,PPG_2,PPG_3,90021.0,90021.0,-217.82691402517958,-23.4279024163094,-0.27864242662351474
62861.104385113715,2.2195728604056058,PPG_2,PPG_3,89996.0,89996.0,-242.93514600106573,-23.032362076618657,-0.27394479488795265
62861.11447408126,2.229661827950622,PPG_2,PPG_3,89982.0,89982.0,-257.0433779769519,-22.330958862432905,-0.26561458512739977
62861.12456304881,2.239750795502914,PPG_2,PPG_3,89982.0,89982.0,-257.15160995283804,-21.308051011537238,-0.2534660280758482
62861.13465201636,2.2498397630479303,PPG_2,PPG_3,89974.0,89974.0,-265.25984192873875,-19.95667959312123,-0.23741647604622207
62861.1447409839,2.2599287305929465,PPG_2,PPG_3,89976.0,89976.0,-263.3680739046249,-18.285783358129557,-0.21757209004386116
62861.15482995145,2.2700176981379627,PPG_2,PPG_3,90007.0,90007.0,-232.47630588051106,-16.322395854802778,-0.1942539337919725
62861.164918919,2.280106665690255,PPG_2,PPG_3,90036.0,90036.0,-203.58453785639722,-14.10766622530921,-0.16795071475410372
62861.175007886544,2.290195633235271,PPG_2,PPG_3,89969.0,89969.0,-270.6927698322834,-11.690130256911784,-0.13923886782621295
62861.18509685409,2.3002846007802873,PPG_2,PPG_3,89978.0,89978.0,-261.80100180816953,-9.121108383857994,-0.10872789974228418
62861.19518582164,2.3103735683325795,PPG_2,PPG_3,90041.0,90041.0,-198.9092337840557,-6.452600274866725,-0.0770353841591625
62861.20527478919,2.3204625358775957,PPG_2,PPG_3,90002.0,90002.0,-238.01746575994184,-3.7342406328832705,-0.04475080723627048
62861.21536375673,2.330551503422612,PPG_2,PPG_3,90035.0,90035.0,-205.125697735828,-1.0090759840412435,-0.012385410702907024
62861.22545272429,2.340640470974904,PPG_2,PPG_3,89982.0,89982.0,-258.2339297117287,1.6880382208625435,0.01964684495348822
62861.23554169183,2.35072943851992,PPG_2,PPG_3,90019.0,90019.0,-221.34216168761486,4.327690660631443,0.05099665640788345
62861.245630659374,2.3608184060649364,PPG_2,PPG_3,90008.0,90008.0,-232.45039366350102,6.881622484630053,0.08132840764280959
62861.255719626926,2.3709073736172286,PPG_2,PPG_3,90040.0,90040.0,-200.55862563938717,9.320580607237348,0.11029467461680507
62861.26580859447,2.380996341162245,PPG_2,PPG_3,89994.0,89994.0,-246.66685761527333,11.61520869380576,0.13754680705215608
62861.275897562016,2.391085308707261,PPG_2,PPG_3,90027.0,90027.0,-213.77508959115949,13.738863935933303,0.16276838184427728
62861.28598652957,2.401174276259553,PPG_2,PPG_3,90052.0,90052.0,-188.88332156704564,15.672029643609136,0.18572760917764763
62861.29607549711,2.41126324380457,PPG_2,PPG_3,90040.0,90040.0,-200.9915535429318,17.40792563067573,0.2063439642246566
62861.30616446466,2.4213522113495856,PPG_2,PPG_3,89999.0,89999.0,-242.0997855188325,18.956557076053336,0.2247362734141141
62861.31625343221,2.4314411788946018,PPG_2,PPG_3,90040.0,90040.0,-201.20801749471866,20.344827291940675,0.24122405372189998
62861.32634239976,2.441530146446894,PPG_2,PPG_3,90059.0,90059.0,-182.31624947060482,21.614210218929895,0.2562998700774897
62861.3364313673,2.45161911399191,PPG_2,PPG_3,90032.0,90032.0,-209.42448144649097,22.81795705358935,0.2705961598983962
62861.346520334846,2.4617080815369263,PPG_2,PPG_3,90045.0,90045.0,-196.53271342237713,24.016144392778692,0.2848264224150471
62861.3566093024,2.4717970490892185,PPG_2,PPG_3,90027.0,90027.0,-214.64094539826328,25.266059680055868,0.2996710315006039
62861.36669826994,2.4818860166342347,PPG_2,PPG_3,90016.0,90016.0,-225.74917737414944,26.60886331615884,0.3156188283309283
62861.37678723749,2.491974984179251,PPG_2,PPG_3,90037.0,90037.0,-204.8574093500356,28.05658960835805,0.33281273826173324
62861.38687620504,2.502063951731543,PPG_2,PPG_3,90039.0,90039.0,-202.96564132592175,29.583919182151615,0.35095205594074635
62861.396965172586,2.5121529192765593,PPG_2,PPG_3,90052.0,90052.0,-190.07387330182246,31.126785875366302,0.3692759000964494
62861.40705414013,2.5222418868215755,PPG_2,PPG_3,90024.0,90024.0,-218.18210527770862,32.58658650317198,0.38661321077918553
62861.41714310768,2.5323308543738676,PPG_2,PPG_3,90066.0,90066.0,-176.29033725359477,33.83762556469889,0.40147116636078695
62861.42723207523,2.542419821918884,PPG_2,PPG_3,90016.0,90016.0,-226.39856922948093,34.73661332595104,0.4121479874416453
62861.43732104277,2.5525087894639,PPG_2,PPG_3,90060.0,90060.0,-182.50680120536708,35.1341616232839,0.41686946667036234
62861.447410010325,2.562597757016192,PPG_2,PPG_3,90036.0,90036.0,-206.61503318125324,34.888456628828436,0.4139513532348464
62861.45749897787,2.5726867245612084,PPG_2,PPG_3,90069.0,90069.0,-173.7232651571394,33.88066716112938,0.40198234954250545
62861.467587945415,2.5827756921062246,PPG_2,PPG_3,90046.0,90046.0,-196.83149713302555,32.02998354629431,0.38000272013648506
62861.47767691297,2.5928646596585168,PPG_2,PPG_3,90044.0,90044.0,-198.9397291089117,29.304876464139088,0.347638007293425
62861.48776588051,2.602953627203533,PPG_2,PPG_3,90023.0,90023.0,-220.0479610848124,25.72816889417364,0.3051592679500962
62861.49785484806,2.613042594748549,PPG_2,PPG_3,90034.0,90034.0,-209.15619306069857,21.3764054181857,0.25347558323049363
62861.5079438156,2.623131562293566,PPG_2,PPG_3,90041.0,90041.0,-202.26442503658473,16.375939121947212,0.19408758456470743
62861.518032783155,2.6332205298458575,PPG_2,PPG_3,90012.0,90012.0,-231.37265701247088,10.897161442786981,0.12901892451897062
62861.5281217507,2.6433094973908737,PPG_2,PPG_3,90031.0,90031.0,-212.48088898835704,5.146204077864906,0.06071772457449721
62861.538210718245,2.65339846493589,PPG_2,PPG_3,90010.0,90010.0,-233.5891209642432,-0.6469421195478481,-0.008084530707465884
62861.5482996858,2.663487432488182,PPG_2,PPG_3,90015.0,90015.0,-228.69735294012935,-6.244147344522283,-0.0745596945702761
62861.55838865334,2.6735764000331983,PPG_2,PPG_3,89968.0,89968.0,-275.8055849160155,-11.418307842085238,-0.13601057105293143
62861.56847762089,2.6836653675782145,PPG_2,PPG_3,89986.0,89986.0,-257.91381689190166,-15.974011796853674,-0.19011635326588713
62861.57856658844,2.6937543351305067,PPG_2,PPG_3,89992.0,89992.0,-252.02204886780237,-19.765539275915945,-0.23514639957121328
62861.588655555985,2.703843302675523,PPG_2,PPG_3,89958.0,89958.0,-286.1302808436885,-22.708113592176336,-0.27009386031092547
62861.59874452353,2.713932270220539,PPG_2,PPG_3,89985.0,89985.0,-259.2385128195747,-24.78077169728207,-0.2947097680060225
62861.60883349108,2.7240212377728312,PPG_2,PPG_3,89995.0,89995.0,-249.34674479546084,-26.020985590695133,-0.309439158563601
62861.61892245863,2.734110205317847,PPG_2,PPG_3,89975.0,89975.0,-269.454976771347,-26.51237375852621,-0.3152751262767495
62861.62901142617,2.7441991728628636,PPG_2,PPG_3,89991.0,89991.0,-253.56320874723315,-26.368602189279244,-0.31356762436456986
62861.63910039373,2.754288140415156,PPG_2,PPG_3,89987.0,89987.0,-257.6714407231193,-25.716909459532026,-0.3058278007817485
62861.64918936127,2.764377107960172,PPG_2,PPG_3,90000.0,90000.0,-244.77967269900546,-24.683468439889147,-0.29355414663435675
62861.659278328814,2.774466075505188,PPG_2,PPG_3,89970.0,89970.0,-274.8879046748916,-23.38222270611161,-0.27809991190437333
62861.66936729637,2.7845550430574804,PPG_2,PPG_3,90007.0,90007.0,-237.99613665079232,-21.908413921426387,-0.2605962334565553
62861.67945626391,2.794644010602497,PPG_2,PPG_3,89986.0,89986.0,-259.1043686266785,-20.336882648412367,-0.24193195464415662
62861.68954523146,2.8047329781475128,PPG_2,PPG_3,89970.0,89970.0,-275.21260060256463,-18.724576240656102,-0.22278341026446646
62861.699634199,2.814821945692529,PPG_2,PPG_3,89997.0,89997.0,-248.3208325784508,-17.11619796221247,-0.2036815182816844
62861.709723166554,2.824910913244821,PPG_2,PPG_3,89999.0,89999.0,-246.42906455433695,-15.550938063218373,-0.185091721393543
62861.7198121341,2.8349998807898373,PPG_2,PPG_3,89969.0,89969.0,-276.5372965302231,-14.068611391492682,-0.16748688032723577
62861.72990110165,2.8450888483348535,PPG_2,PPG_3,89986.0,89986.0,-259.64552850610926,-12.714747505745828,-0.15140772652894455
62861.7399900692,2.8551778158871457,PPG_2,PPG_3,89982.0,89982.0,-263.7537604819954,-11.543372967297799,-0.13749590602956094
62861.75007903674,2.865266783432162,PPG_2,PPG_3,89972.0,89972.0,-273.8619924578961,-10.614836289071743,-0.12646814746850363
62861.760168004286,2.875355750977178,PPG_2,PPG_3,90028.0,90028.0,-217.97022443378228,-9.986985203825474,-0.11901147898921277
62861.77025697184,2.8854447185294703,PPG_2,PPG_3,89998.0,89998.0,-248.07845640966843,-9.70102869458317,-0.11561531875469033
62861.78034593938,2.8955336860744865,PPG_2,PPG_3,89997.0,89997.0,-249.1866883855546,-9.766664052221541,-0.11639483656381708
62861.79043490693,2.9056226536195027,PPG_2,PPG_3,90024.0,90024.0,-222.29492036144075,-10.151830474751819,-0.12096926255375735
62861.80052387448,2.915711621171795,PPG_2,PPG_3,89987.0,89987.0,-259.4031523373269,-10.780218743715249,-0.12843231089124305
62861.810612842026,2.925800588716811,PPG_2,PPG_3,89998.0,89998.0,-248.51138431321306,-11.537366973170382,-0.13742457588751117
62861.82070180957,2.9358895562618272,PPG_2,PPG_3,89980.0,89980.0,-266.6196162890992,-12.284509647900867,-0.14629800999173131
62861.83079077712,2.9459785238141194,PPG_2,PPG_3,89998.0,89998.0,-248.72784826498537,-12.877388475124786,-0.15333933072348646
62861.84087974467,2.9560674913591356,PPG_2,PPG_3,89965.0,89965.0,-281.8360802408861,-13.1863925585105,-0.1570092152911792
62861.85096871221,2.966156458904152,PPG_2,PPG_3,89988.0,89988.0,-258.94431221677223,-13.11496740379047,-0.1561609350025174
62861.86105767976,2.976245426449168,PPG_2,PPG_3,89968.0,89968.0,-279.0525441926584,-12.61356447810196,-0.15020602709638672
62861.87114664731,2.98633439400146,PPG_2,PPG_3,89964.0,89964.0,-283.16077616854454,-11.686415059442806,-0.13919474431267248
62861.881235614856,2.9964233615464764,PPG_2,PPG_3,90002.0,90002.0,-245.2690081444307,-10.388897849134107,-0.12378479136236216
62861.8913245824,3.006512329091493,PPG_2,PPG_3,89983.0,89983.0,-264.37724012031686,-8.814820923209734,-0.10509027912318135
62861.90141354995,3.0166012966437847,PPG_2,PPG_3,90035.0,90035.0,-212.485472096203,-7.076062060591519,-0.08443992315718454
62861.9115025175,3.026690264188801,PPG_2,PPG_3,89989.0,89989.0,-258.59370407208917,-5.2803117770646555,-0.06311270902869394
62861.92159148504,3.036779231733817,PPG_2,PPG_3,90014.0,90014.0,-233.70193604797532,-3.5134091414079633,-0.04212810376340347
62861.931680452595,3.0468681992861093,PPG_2,PPG_3,90003.0,90003.0,-244.81016802387603,-1.830234346096737,-0.022137891535911513
62861.94176942014,3.0569571668311255,PPG_2,PPG_3,89970.0,89970.0,-277.9183999997622,-0.25437276269205866,-0.0034221838261925043
62861.951858387685,3.0670461343761417,PPG_2,PPG_3,90021.0,90021.0,-227.02663197564834,1.2160720756975625,0.014041542739884949
62861.96194735524,3.077135101928434,PPG_2,PPG_3,89982.0,89982.0,-266.1348639515345,2.6002000371122684,0.03048012759498293
62861.97203632278,3.08722406947345,PPG_2,PPG_3,89993.0,89993.0,-255.24309592742065,3.926278802664578,0.04622929163166259
62861.98212529033,3.0973130370184663,PPG_2,PPG_3,90001.0,90001.0,-247.3513279033068,5.225232229859411,0.061656301800533046
62861.99221425788,3.1074020045707584,PPG_2,PPG_3,89992.0,89992.0,-256.45955987919297,6.5267198515209115,0.07711340931006921
62862.002303225425,3.117490972115774,PPG_2,PPG_3,90032.0,90032.0,-216.56779185507912,7.8583818008298865,0.09292888198475352
62862.01239219297,3.127579939660791,PPG_2,PPG_3,90001.0,90001.0,-247.67602383096528,9.246843377800545,0.10941893499094144
62862.02248116052,3.137668907213083,PPG_2,PPG_3,89992.0,89992.0,-256.784255806866,10.71759871359885,0.12688634917705274
62862.03257012807,3.147757874758099,PPG_2,PPG_3,89996.0,89996.0,-252.89248778275214,12.292404050113214,0.1455895123788806
62862.04265909561,3.1578468423031154,PPG_2,PPG_3,90019.0,90019.0,-230.0007197586383,13.986173592767857,0.1657055530399265
62862.05274806316,3.1679358098481316,PPG_2,PPG_3,90018.0,90018.0,-231.10895173452445,15.805998188964296,0.1873186855536237
62862.06283703071,3.178024777400424,PPG_2,PPG_3,90002.0,90002.0,-247.2171837104106,17.75186520907843,0.21042875992434076
62862.072925998255,3.18811374494544,PPG_2,PPG_3,90021.0,90021.0,-228.32541568629676,19.81668555262973,0.2349515825059379
62862.0830149658,3.198202712490456,PPG_2,PPG_3,90032.0,90032.0,-217.43364766218292,21.984382151105702,0.26069621412058536
62862.09310393335,3.2082916800427483,PPG_2,PPG_3,90000.0,90000.0,-249.54187963806908,24.225851321140038,0.28731700510152536
62862.1031929009,3.2183806475877645,PPG_2,PPG_3,90021.0,90021.0,-228.65011161396978,26.492587278584768,0.31423787688455895
62862.11328186844,3.2284696151327807,PPG_2,PPG_3,89994.0,89994.0,-255.75834358985594,28.709054088341063,0.34056172753016445
62862.123370835994,3.238558582685073,PPG_2,PPG_3,90003.0,90003.0,-246.8665755657421,30.767143619275167,0.36500461166861475
62862.13345980354,3.248647550230089,PPG_2,PPG_3,90028.0,90028.0,-221.97480754162825,32.526724067073395,0.3859022550273534
62862.14354877109,3.2587365177751053,PPG_2,PPG_3,90026.0,90026.0,-224.0830395175144,33.82435684983845,0.4013135805730333
62862.15363773864,3.2688254853273975,PPG_2,PPG_3,89998.0,89998.0,-252.19127149340056,34.48884100039158,0.40920532136452115
62862.16372670618,3.2789144528724137,PPG_2,PPG_3,90053.0,90053.0,-197.29950346928672,34.36039955428057,0.4076798875392776
62862.17381567373,3.28900342041743,PPG_2,PPG_3,90026.0,90026.0,-224.40773544517288,33.31078359612055,0.39521413186171506
62862.18390464128,3.299092387969722,PPG_2,PPG_3,90014.0,90014.0,-236.51596742105903,31.26137120700495,0.3708743017298736
62862.193993608824,3.3091813555147382,PPG_2,PPG_3,90043.0,90043.0,-207.62419939695974,28.195769678849253,0.33446570927502717
62862.20408257637,3.3192703230597544,PPG_2,PPG_3,89991.0,89991.0,-259.7324313728459,24.16485042133063,0.28659252839437943
62862.214171543914,3.32935929060477,PPG_2,PPG_3,90009.0,90009.0,-241.84066334873205,19.28425864907926,0.22862821857056465
62862.224260511466,3.339448258157063,PPG_2,PPG_3,89975.0,89975.0,-275.9488953246182,13.726114844885487,0.1626169673646502
62862.23434947901,3.349537225702079,PPG_2,PPG_3,90023.0,90023.0,-228.05712730050436,7.707928415313995,0.0911420235341722
62862.24443844656,3.359626193247095,PPG_2,PPG_3,90002.0,90002.0,-249.16535927639052,1.480603896396648,0.01718325282931258
62862.25452741411,3.3697151607993874,PPG_2,PPG_3,89965.0,89965.0,-286.2735912522767,-4.686148412620535,-0.05605613250073897
62862.26461638165,3.3798041283444036,PPG_2,PPG_3,89948.0,89948.0,-303.38182322816283,-10.523590801911716,-0.1253844711573974
62862.2747053492,3.38989309588942,PPG_2,PPG_3,89992.0,89992.0,-259.490055204049,-15.78738739738205,-0.187899910052349
62862.28479431675,3.399982063441712,PPG_2,PPG_3,89935.0,89935.0,-316.5982871799497,-20.279824999488476,-0.24125430992516034
62862.294883284296,3.410071030986728,PPG_2,PPG_3,89921.0,89921.0,-330.70651915583585,-23.86741526747766,-0.28386229754603476
62862.30497225184,3.4201599985317443,PPG_2,PPG_3,89949.0,89949.0,-302.814751131722,-26.491615137198433,-0.31502858667370387
62862.31506121939,3.4302489660840365,PPG_2,PPG_3,89965.0,89965.0,-286.92298310760816,-28.16931418278575,-0.33495376620263684
62862.32515018694,3.4403379336290527,PPG_2,PPG_3,89942.0,89942.0,-310.0312150834943,-28.981977596794646,-0.3446053568519325
62862.33523915448,3.450426901174069,PPG_2,PPG_3,89956.0,89956.0,-296.1394470593805,-29.057353173861333,-0.34550055430054577
62862.345328122035,3.460515868726361,PPG_2,PPG_3,89952.0,89952.0,-300.24767903526663,-28.548972920658812,-0.3394627802190337
62862.35541708958,3.4706048362713773,PPG_2,PPG_3,89952.0,89952.0,-300.3559110111528,-27.61641704371497,-0.3283872876759938
62862.365506057125,3.4806938038163935,PPG_2,PPG_3,89973.0,89973.0,-279.46414298703894,-26.40795716681738,-0.31403502344598855
62862.37559502468,3.4907827713686856,PPG_2,PPG_3,89960.0,89960.0,-292.57237496293965,-25.0476146798997,-0.297878926591811
62862.38568399222,3.500871738913702,PPG_2,PPG_3,89947.0,89947.0,-305.6806069388258,-23.629097944698138,-0.28103192373511426
62862.39577295977,3.510960706458718,PPG_2,PPG_3,89943.0,89943.0,-309.78883891471196,-22.217736530446125,-0.26426990099143705
62862.40586192731,3.5210496740037343,PPG_2,PPG_3,89932.0,89932.0,-320.8970708905981,-20.858261963108284,-0.24812411197732803
62862.415950894865,3.5311386415560264,PPG_2,PPG_3,89975.0,89975.0,-278.00530286648427,-19.583887550703974,-0.23298901428443686
62862.42603986241,3.5412276091010426,PPG_2,PPG_3,89960.0,89960.0,-293.1135348423704,-18.42347426616221,-0.2192073750309203
62862.436128829955,3.551316576646059,PPG_2,PPG_3,89928.0,89928.0,-325.2217668182566,-17.407287911271137,-0.20713864577383925
62862.44621779751,3.561405544198351,PPG_2,PPG_3,89919.0,89919.0,-334.32999879414274,-16.5726915242092,-0.19722656834246277
62862.45630676505,3.571494511743367,PPG_2,PPG_3,89960.0,89960.0,-293.43823077004345,-15.967235512317238,-0.1900358747758488
62862.4663957326,3.5815834792883834,PPG_2,PPG_3,89956.0,89956.0,-297.5464627459296,-15.644267222390013,-0.18620014441891838
62862.47648470015,3.5916724468406755,PPG_2,PPG_3,89976.0,89976.0,-277.65469472181576,-15.650362407896402,-0.1862725338416795
62862.486573667695,3.601761414385692,PPG_2,PPG_3,89961.0,89961.0,-292.7629266977019,-16.00992381433822,-0.1905428620592895
62862.49666263524,3.611850381930708,PPG_2,PPG_3,89949.0,89949.0,-304.87115867358807,-16.71371285896803,-0.19890140711635965
62862.50675160279,3.621939349483,PPG_2,PPG_3,89948.0,89948.0,-305.9793906494742,-17.714818872755426,-0.21079103482084782
62862.51684057034,3.632028317028016,PPG_2,PPG_3,89953.0,89953.0,-301.0876226253604,-18.93146481130115,-0.2252405207476782
62862.52692953788,3.642117284573033,PPG_2,PPG_3,89910.0,89910.0,-344.19585460124654,-20.253995662848602,-0.24094754801156423
62862.537018505434,3.6522062521253247,PPG_2,PPG_3,89976.0,89976.0,-278.3040865771327,-21.5532554169733,-0.2563781962698096
62862.54710747298,3.662295219670341,PPG_2,PPG_3,89940.0,89940.0,-314.4123185530334,-22.688499715836,-0.269860916262726
62862.557196440524,3.672384187215357,PPG_2,PPG_3,89940.0,89940.0,-314.52055052891956,-23.515361528592862,-0.2796811340831587
62862.56728540808,3.6824731547676497,PPG_2,PPG_3,89934.0,89934.0,-320.6287825048057,-23.89602444835877,-0.2842020742579135
62862.57737437562,3.6925621223126655,PPG_2,PPG_3,89911.0,89911.0,-343.73701448069187,-23.71178566698364,-0.2820139638189485
62862.58746334317,3.7026510898576817,PPG_2,PPG_3,89952.0,89952.0,-302.845246456578,-22.874959757760255,-0.27207540748514464
62862.59755231071,3.712740057402698,PPG_2,PPG_3,89926.0,89926.0,-328.9534784324642,-21.336666814134734,-0.2538058834304896
62862.607641278264,3.72282902495499,PPG_2,PPG_3,89949.0,89949.0,-306.06171040835034,-19.089508817297965,-0.22711752914274222
62862.61773024581,3.732917992500006,PPG_2,PPG_3,89940.0,89940.0,-315.1699423842365,-16.166523568477505,-0.19240271780851875
62862.627819213354,3.7430069600450224,PPG_2,PPG_3,89943.0,89943.0,-312.27817436012265,-12.638191796987774,-0.1504985132555741
62862.63790818091,3.7530959275973146,PPG_2,PPG_3,89929.0,89929.0,-326.38640633602336,-8.608233485372782,-0.1026367450413982
62862.64799714845,3.763184895142331,PPG_2,PPG_3,89961.0,89961.0,-294.4946383119095,-4.20755089730549,-0.05037207287166815
62862.658086116,3.773273862687347,PPG_2,PPG_3,89952.0,89952.0,-303.60287028779567,0.41486664698515835,0.004526032762908278
62862.66817508355,3.783362830239639,PPG_2,PPG_3,89970.0,89970.0,-285.7111022636818,5.10390600083428,0.060215371795087465
62862.678264051094,3.7934517977846554,PPG_2,PPG_3,89953.0,89953.0,-302.819334239568,9.7111353086447,0.11493309445847939
62862.68835301864,3.803540765329672,PPG_2,PPG_3,89968.0,89968.0,-287.92756621545414,14.10643917619052,0.1671338862962106
62862.69844198619,3.813629732881964,PPG_2,PPG_3,89992.0,89992.0,-264.0357981913403,18.18779883133959,0.21560612216287675
62862.708530953736,3.82371870042698,PPG_2,PPG_3,89962.0,89962.0,-294.14403016722645,21.88871055425073,0.25955997115247437
62862.71861992128,3.833807667971996,PPG_2,PPG_3,89972.0,89972.0,-284.2522621431126,25.181968465183186,0.29867232284808887
62862.72870888883,3.843896635524288,PPG_2,PPG_3,89986.0,89986.0,-270.3604941190133,28.079327454590686,0.33308278411380554
62862.73879785638,3.853985603069305,PPG_2,PPG_3,90002.0,90002.0,-254.46872609489947,30.627980770882186,0.363351845193435
62862.74888682392,3.8640745706143207,PPG_2,PPG_3,89966.0,89966.0,-290.5769580707856,32.903871587053516,0.39038144458418184
62862.75897579147,3.874163538159337,PPG_2,PPG_3,89976.0,89976.0,-280.6851900466718,35.00066211625392,0.41528396082436886
62862.76906475902,3.884252505711629,PPG_2,PPG_3,89986.0,89986.0,-270.79342202255793,37.0151353505482,0.4392088363585814
62862.779153726566,3.8943414732566457,PPG_2,PPG_3,89970.0,89970.0,-286.9016539984441,39.032323554723085,0.46316595621124246
62862.78924269411,3.9044304408016615,PPG_2,PPG_3,89975.0,89975.0,-282.00988597433025,41.11338666021735,0.4878816858273942
62862.79933166166,3.9145194083539536,PPG_2,PPG_3,90007.0,90007.0,-250.1181179502164,43.287808500140365,0.51370618971923
62862.80942062921,3.92460837589897,PPG_2,PPG_3,89978.0,89978.0,-279.2263499261171,45.55018977061509,0.5405753430966903
62862.81950959675,3.934697343443986,PPG_2,PPG_3,90015.0,90015.0,-242.33458190200326,47.860117304210746,0.5680091792944133
62862.829598564305,3.944786310996278,PPG_2,PPG_3,89988.0,89988.0,-269.4428138778894,50.142471408063535,0.5951155398705104
62862.83968753185,3.9548752785412944,PPG_2,PPG_3,89961.0,89961.0,-296.5510458537756,52.28654525020507,0.6205796160052165
62862.849776499395,3.9649642460863106,PPG_2,PPG_3,89962.0,89962.0,-295.65927782966173,54.14549955284637,0.6426574721699635
62862.85986546695,3.975053213638603,PPG_2,PPG_3,90006.0,90006.0,-251.7675098055479,55.541342053034796,0.6592351846527365
62862.86995443449,3.985142181183619,PPG_2,PPG_3,90002.0,90002.0,-255.87574178143404,56.280203943521094,0.6680102720879638
62862.88004340204,3.995231148728635,PPG_2,PPG_3,90024.0,90024.0,-233.9839737573202,56.17645665003208,0.6667781181722502
62862.89013236959,4.005320116280927,PPG_2,PPG_3,89985.0,89985.0,-273.09220573320636,55.078256373153536,0.6537353512152787
62862.900221337135,4.0154090838259435,PPG_2,PPG_3,90006.0,90006.0,-252.20043770910706,52.88720055558951,0.6277132940187252
62862.91031030468,4.02549805137096,PPG_2,PPG_3,89994.0,89994.0,-264.3086696849932,49.569041311228276,0.5883052018323576
62862.92039927223,4.035587018923252,PPG_2,PPG_3,89974.0,89974.0,-284.4169016608794,45.15568151404796,0.535889968888234
62862.93048823978,4.045675986468268,PPG_2,PPG_3,89959.0,89959.0,-299.52513363676553,39.7398114827424,0.4715684310278164
62862.94057720732,4.055764954013284,PPG_2,PPG_3,89958.0,89958.0,-300.6333656126517,33.46484564893752,0.39704384862113506
62862.95066617487,4.0658539215583005,PPG_2,PPG_3,89977.0,89977.0,-281.74159758853784,26.513991466251895,0.31449208355115993
62862.96075514242,4.075942889110593,PPG_2,PPG_3,89944.0,89944.0,-314.849829564424,19.1006808023022,0.22644795771615892
62862.970844109965,4.086031856655609,PPG_2,PPG_3,89953.0,89953.0,-305.95806154031015,11.459333692506435,0.13569555882433434
62862.98093307751,4.096120824200625,PPG_2,PPG_3,89948.0,89948.0,-311.0662935161963,3.834213661410627,0.04513588070515201
62862.99102204506,4.106209791752917,PPG_2,PPG_3,89908.0,89908.0,-351.174525492097,-3.5347974953954644,-0.042382122381432866
62863.00111101261,4.116298759297933,PPG_2,PPG_3,89915.0,89915.0,-344.2827574679832,-10.429055811238177,-0.12426172708366702
62863.01119998015,4.12638772684295,PPG_2,PPG_3,89893.0,89893.0,-366.39098944386933,-16.66814210995252,-0.1983601864738432
62863.021288947704,4.136476694395242,PPG_2,PPG_3,89886.0,89886.0,-373.4992214197555,-22.12286988693733,-0.26314321804541546
62863.03137791525,4.146565661940258,PPG_2,PPG_3,89910.0,89910.0,-349.60745339564164,-26.720660772052668,-0.31774884535585113
62863.041466882794,4.156654629485274,PPG_2,PPG_3,89897.0,89897.0,-362.7156853715278,-30.442093494632786,-0.36194641183673126
62863.05155585035,4.166743597037566,PPG_2,PPG_3,89883.0,89883.0,-376.82391734741395,-33.31058006546224,-0.39601397005013045
62863.06164481789,4.176832564582583,PPG_2,PPG_3,89929.0,89929.0,-330.9321493233001,-35.378914825375176,-0.4205785315700248
62863.07173378544,4.186921532127599,PPG_2,PPG_3,89881.0,89881.0,-379.04038129918627,-36.71642899011453,-0.4364635080352721
62863.08182275299,4.197010499679891,PPG_2,PPG_3,89902.0,89902.0,-358.148613275087,-37.400218914444295,-0.4445845336972832
62863.091911720534,4.207099467224907,PPG_2,PPG_3,89877.0,89877.0,-383.25684525097313,-37.512791610408215,-0.4459215024361262
62863.10200068808,4.217188434769923,PPG_2,PPG_3,89856.0,89856.0,-404.3650772268593,-37.145392241556536,-0.44155808671955854
62863.11208965563,4.2272774023222155,PPG_2,PPG_3,89861.0,89861.0,-399.47330920274544,-36.40284092127492,-0.43273918180036436
62863.122178623176,4.237366369867232,PPG_2,PPG_3,89894.0,89894.0,-366.5815411786316,-35.40401808559482,-0.4208766702427227
62863.13226759072,4.247455337412248,PPG_2,PPG_3,89904.0,89904.0,-356.68977315451775,-34.27426882803458,-0.4074592120646463
62863.142356558266,4.257544304957264,PPG_2,PPG_3,89895.0,89895.0,-365.7980051304039,-33.131838874752795,-0.3938911517034977
62863.15244552582,4.267633272509556,PPG_2,PPG_3,89889.0,89889.0,-371.90623710629006,-32.0748038182336,-0.38133728316258325
62863.16253449336,4.2777222400545725,PPG_2,PPG_3,89884.0,89884.0,-377.0144690821908,-31.173574013764792,-0.3706338344730838
62863.17262346091,4.287811207599589,PPG_2,PPG_3,89889.0,89889.0,-372.1227010580769,-30.469607737756103,-0.36227318452893537
62863.18271242846,4.297900175151881,PPG_2,PPG_3,89869.0,89869.0,-392.2309330339631,-29.978161119379998,-0.3564365226283482
62863.192801396006,4.307989142696897,PPG_2,PPG_3,89888.0,89888.0,-373.33916500984924,-29.69248045037068,-0.35304363840818487
62863.20289036355,4.318078110241913,PPG_2,PPG_3,89897.0,89897.0,-364.4473969857354,-29.5874380144048,-0.3517961027430239
62863.2129793311,4.328167077794205,PPG_2,PPG_3,89870.0,89870.0,-391.55562896162155,-29.622078222576086,-0.35220750690311325
62863.22306829865,4.338256045339222,PPG_2,PPG_3,89887.0,89887.0,-374.6638609375077,-29.74199599554906,-0.35363170939132527
62863.23315726619,4.348345012884238,PPG_2,PPG_3,89900.0,89900.0,-361.77209291339386,-29.88228234850975,-0.3552978191596732
62863.243246233746,4.35843398043653,PPG_2,PPG_3,89877.0,89877.0,-384.88032488928,-29.97128777034874,-0.3563548913526
62863.25333520129,4.368522947981546,PPG_2,PPG_3,89871.0,89871.0,-390.9885568651807,-29.935982857358418,-0.3559355928309517
62863.263424168836,4.378611915526562,PPG_2,PPG_3,89888.0,89888.0,-374.0967888410669,-29.709076734175245,-0.3532407440423502
62863.27351313639,4.3887008830788545,PPG_2,PPG_3,89872.0,89872.0,-390.20502081695304,-29.23623139982865,-0.34762500014534153
62863.28360210393,4.398789850623871,PPG_2,PPG_3,89880.0,89880.0,-382.3132527928392,-28.481545749095613,-0.33866198194591157
62863.29369107148,4.408878818168887,PPG_2,PPG_3,89877.0,89877.0,-385.42148476872535,-27.430630012672925,-0.32618078946202816
62863.30378003902,4.418967785713903,PPG_2,PPG_3,89889.0,89889.0,-373.5297167446115,-26.091103640596312,-0.31027191503215495
62863.313869006575,4.429056753266195,PPG_2,PPG_3,89875.0,89875.0,-387.63794872049766,-24.490664937912854,-0.29126431735848696
62863.32395797412,4.4391457208112115,PPG_2,PPG_3,89883.0,89883.0,-379.7461806963838,-22.673327760380356,-0.2696807266530021
62863.334046941665,4.449234688356228,PPG_2,PPG_3,89877.0,89877.0,-385.85441267227,-20.694118609223846,-0.24617466472501487
62863.34413590922,4.45932365590852,PPG_2,PPG_3,89887.0,89887.0,-375.9626446481707,-18.611797151943456,-0.2214439903037653
62863.35422487676,4.469412623453536,PPG_2,PPG_3,89912.0,89912.0,-351.07087662405684,-16.479409931416352,-0.19611871023881125
62863.36431384431,4.479501590998552,PPG_2,PPG_3,89888.0,89888.0,-375.179108599943,-14.33418641169238,-0.17064097996733332
62863.37440281186,4.489590558550844,PPG_2,PPG_3,89914.0,89914.0,-349.28734057582915,-12.189998269956483,-0.14517554635439314
62863.384491779405,4.499679526095861,PPG_2,PPG_3,89890.0,89890.0,-373.3955725517153,-10.035370487523464,-0.11958612643076465
62863.39458074695,4.509768493640877,PPG_2,PPG_3,89910.0,89910.0,-353.50380452760146,-7.838139633641809,-0.09349073146391804
62863.4046697145,4.519857461193169,PPG_2,PPG_3,89895.0,89895.0,-368.6120365034876,-5.55615939445991,-0.06638881108864639
62863.41475868205,4.529946428738185,PPG_2,PPG_3,89865.0,89865.0,-398.7202684793738,-3.1522742019760086,-0.037839087493603416
62863.42484764959,4.540035396283201,PPG_2,PPG_3,89895.0,89895.0,-368.8285004552599,-0.6099794816910978,-0.007645544229470447
62863.434936617145,4.550124363835494,PPG_2,PPG_3,89895.0,89895.0,-368.93673243116064,2.0555343244499866,0.024011409539384947
62863.44502558469,4.56021333138051,PPG_2,PPG_3,89905.0,89905.0,-359.0449644070468,4.795028413089989,0.0565469895518859
62863.455114552235,4.570302298925526,PPG_2,PPG_3,89906.0,89906.0,-358.15319638293295,7.531621322106972,0.08904811372739606
62863.46520351979,4.580391266477818,PPG_2,PPG_3,89883.0,89883.0,-381.2614283588191,10.173435657863859,0.12042360092250107
62863.47529248733,4.590480234022834,PPG_2,PPG_3,89941.0,89941.0,-323.36966033470526,12.630569561687274,0.14960573241925607
62863.48538145488,4.6005692015678505,PPG_2,PPG_3,89944.0,89944.0,-320.4778923105914,14.834928101194414,0.17578577928841324
62863.49547042242,4.610658169112867,PPG_2,PPG_3,89933.0,89933.0,-331.58612428647757,16.758720071565126,0.19863367950435282
62863.505559389974,4.620747136665159,PPG_2,PPG_3,89899.0,89899.0,-365.6943562623637,18.42489664252846,0.21842201245397566
62863.51564835752,4.630836104210175,PPG_2,PPG_3,89944.0,89944.0,-320.8025882382499,19.905811959234484,0.2360100915734845
62863.525737325064,4.640925071755191,PPG_2,PPG_3,89903.0,89903.0,-361.9108202141506,21.312157616231218,0.252712544715541
62863.53582629262,4.6510140393074835,PPG_2,PPG_3,89929.0,89929.0,-336.01905219003675,22.776227159271926,0.27010055513651415
62863.54591526016,4.6611030068525,PPG_2,PPG_3,89914.0,89914.0,-351.1272841659229,24.432307263089786,0.2897689774734376
62863.55600422771,4.671191974397516,PPG_2,PPG_3,89904.0,89904.0,-361.23551614180906,26.396431187796967,0.31309587982806264
62863.56609319526,4.681280941949808,PPG_2,PPG_3,89920.0,89920.0,-345.3437481176952,28.74831102819284,0.3410279622677716
62863.5761821628,4.691369909494824,PPG_2,PPG_3,89928.0,89928.0,-337.45198009358137,31.51851641752488,0.37392828480156404
62863.58627113035,4.70145887703984,PPG_2,PPG_3,89931.0,89931.0,-334.5602120694675,34.68265089966309,0.41150710310995764
62863.5963600979,4.711547844592133,PPG_2,PPG_3,89921.0,89921.0,-344.6684440453537,38.161903355704865,0.45282841755872677
62863.606449065446,4.721636812137149,PPG_2,PPG_3,89948.0,89948.0,-317.7766760212544,41.82835405829858,0.4963729905113732
62863.61653803299,4.731725779682165,PPG_2,PPG_3,89937.0,89937.0,-328.88490799714054,45.51401836462325,0.5401457536777197
62863.62662700054,4.741814747234457,PPG_2,PPG_3,89933.0,89933.0,-332.9931399730267,49.02281498105694,0.581817949115179
62863.63671596809,4.751903714779473,PPG_2,PPG_3,89967.0,89967.0,-299.10137194891286,52.14446841598065,0.6188922416002122
62863.64680493563,4.76199268232449,PPG_2,PPG_3,89934.0,89934.0,-332.209603924799,54.66947530593808,0.6488804660833357
62863.656893903186,4.772081649876782,PPG_2,PPG_3,89968.0,89968.0,-298.31783590068517,56.40399935150291,0.6694805272778819
62863.66698287073,4.782170617421798,PPG_2,PPG_3,89960.0,89960.0,-306.4260678765713,57.18310099290561,0.6787335217986009
62863.67707183827,4.792259584966814,PPG_2,PPG_3,89942.0,89942.0,-324.5342998524575,56.88067159029268,0.675141721375432
62863.68716080582,4.80234855251183,PPG_2,PPG_3,89926.0,89926.0,-340.64253182834364,55.415217456964946,0.6577372668787973
62863.69724977337,4.8124375200641225,PPG_2,PPG_3,89954.0,89954.0,-312.75076380424434,52.75290067665686,0.6261182825621203
62863.70733874092,4.822526487609139,PPG_2,PPG_3,89972.0,89972.0,-294.8589957801305,48.91062608324661,0.5804855385520906
62863.71742770846,4.832615455154155,PPG_2,PPG_3,89920.0,89920.0,-346.96722775601665,43.95921833958011,0.5216801834003468
62863.727516676016,4.842704422706447,PPG_2,PPG_3,89925.0,89925.0,-342.0754597319028,38.023437094774856,0.4511839240990761
62863.73760564356,4.852793390251463,PPG_2,PPG_3,89929.0,89929.0,-338.18369170778897,31.277238427041436,0.3710627486439275
62863.747694611106,4.8628823577964795,PPG_2,PPG_3,89935.0,89935.0,-332.2919236836751,23.936117298498093,0.2838759812588017
62863.75778357866,4.872971325348772,PPG_2,PPG_3,89920.0,89920.0,-347.4001556595613,16.247518423351487,0.19256239714716614
62863.7678725462,4.883060292893788,PPG_2,PPG_3,89885.0,89885.0,-382.50838763544743,8.477402985225417,0.10028068221598976
62863.77796151375,4.893149260438804,PPG_2,PPG_3,89886.0,89886.0,-381.6166196113336,0.8918315496499295,0.010190702680669746
62863.7880504813,4.903238227991096,PPG_2,PPG_3,89882.0,89882.0,-385.7248515872343,-6.263725931343176,-0.07479221950277526
62863.798139448845,4.913327195536112,PPG_2,PPG_3,89880.0,89880.0,-387.83308356312045,-12.782860318880367,-0.1522166678187998
62863.80822841639,4.923416163081129,PPG_2,PPG_3,89871.0,89871.0,-396.9413155390066,-18.511969390030757,-0.22025838667401193
62863.81831738394,4.933505130633421,PPG_2,PPG_3,89863.0,89863.0,-405.04954751489277,-23.35930521211963,-0.27782773246709913
62863.82840635149,4.943594098178437,PPG_2,PPG_3,89851.0,89851.0,-417.1577794907789,-27.29973148674292,-0.32462617414762596
62863.83849531903,4.953683065723453,PPG_2,PPG_3,89849.0,89849.0,-419.2660114666651,-30.37445236569682,-0.3611430725005531
62863.84858428658,4.963772033268469,PPG_2,PPG_3,89845.0,89845.0,-423.37424344255123,-32.68401801834567,-0.38857261082205563
62863.85867325413,4.9738610008207615,PPG_2,PPG_3,89858.0,89858.0,-410.4824754184374,-34.373185013093554,-0.408633989359061
62863.868762221675,4.983949968365778,PPG_2,PPG_3,89887.0,89887.0,-381.59070739432354,-35.60815052436211,-0.4233010475473502
62863.87885118922,4.994038935910794,PPG_2,PPG_3,89867.0,89867.0,-401.69893937022425,-36.55008070593454,-0.43448787394563365
62863.88894015677,5.004127903463086,PPG_2,PPG_3,89883.0,89883.0,-385.8071713461104,-37.331761507642284,-0.44377149984344455
62863.89902912432,5.014216871008102,PPG_2,PPG_3,89856.0,89856.0,-412.91540332199656,-38.04385852515994,-0.4522287144752201
62863.90911809186,5.0243058385531185,PPG_2,PPG_3,89835.0,89835.0,-434.0236352978827,-38.733467686146724,-0.4604188522556516
62863.919207059414,5.034394806105411,PPG_2,PPG_3,89830.0,89830.0,-439.1318672737689,-39.412504472873415,-0.46848342731627735
62863.92929602696,5.044483773650427,PPG_2,PPG_3,89870.0,89870.0,-399.24009924965503,-40.06966706566128,-0.47628821368451024
62863.939384994505,5.054572741195443,PPG_2,PPG_3,89857.0,89857.0,-412.3483312255412,-40.68037889021497,-0.4835413278688928
62863.94947396206,5.064661708747735,PPG_2,PPG_3,89838.0,89838.0,-431.45656320142734,-41.21397697320565,-0.48987860130768274
62863.9595629296,5.0747506762927515,PPG_2,PPG_3,89862.0,89862.0,-407.56479517732805,-41.64059934244141,-0.49494537852284504
62863.96965189715,5.084839643837768,PPG_2,PPG_3,89824.0,89824.0,-445.6730271532142,-41.938663768675084,-0.4984853383383525
62863.9797408647,5.09492861139006,PPG_2,PPG_3,89846.0,89846.0,-423.78125912910036,-42.1011473755537,-0.5004150736183959
62863.98982983224,5.105017578935076,PPG_2,PPG_3,89833.0,89833.0,-436.8894911049865,-42.13792668125416,-0.500851882753478
62863.99991879979,5.115106546480092,PPG_2,PPG_3,89870.0,89870.0,-399.9977230808727,-42.07207330744923,-0.5000697756770627
62864.01000776734,5.125195514032384,PPG_2,PPG_3,89860.0,89860.0,-410.10595505675883,-41.93045878079677,-0.4983878918643033
62864.02009673489,5.135284481577401,PPG_2,PPG_3,89852.0,89852.0,-418.214187032645,-41.732266279519855,-0.4960340601805949
62864.03018570243,5.145373449122417,PPG_2,PPG_3,89867.0,89867.0,-403.32241900853114,-41.479969493557526,-0.49303765938505634
62864.04027466998,5.155462416667433,PPG_2,PPG_3,89836.0,89836.0,-434.4306509844173,-41.15523716820225,-0.48918097847522923
62864.05036363753,5.165551384219725,PPG_2,PPG_3,89872.0,89872.0,-398.538882960318,-40.719588524056846,-0.4840070007770452
62864.060452605074,5.175640351764741,PPG_2,PPG_3,89847.0,89847.0,-423.64711493620416,-40.11852516964457,-0.47686847657246434
62864.07054157262,5.185729319309758,PPG_2,PPG_3,89862.0,89862.0,-408.7553469120903,-39.288235359711834,-0.467007546170515
62864.08063054017,5.19581828686205,PPG_2,PPG_3,89845.0,89845.0,-425.8635788879765,-38.16448887130126,-0.4536613798330654
62864.09071950771,5.205907254407066,PPG_2,PPG_3,89855.0,89855.0,-415.97181086386263,-36.692832096915,-0.4361832597186492
62864.10080847526,5.215996221952082,PPG_2,PPG_3,89838.0,89838.0,-433.0800428397488,-34.8380711835408,-0.4141552063085746
62864.11089744281,5.226085189504374,PPG_2,PPG_3,89867.0,89867.0,-404.18827481563494,-32.59045871385062,-0.3874614544775557
62864.12098641036,5.2361741570493905,PPG_2,PPG_3,89879.0,89879.0,-392.2965067915211,-29.966797836886577,-0.35630156669312557
62864.1310753779,5.246263124594407,PPG_2,PPG_3,89849.0,89849.0,-422.40473876740725,-27.007014410900258,-0.3211497220970095
62864.141164345456,5.256352092146699,PPG_2,PPG_3,89887.0,89887.0,-384.51297074330796,-23.768579939189117,-0.28268848054641854
62864.151253313,5.266441059691715,PPG_2,PPG_3,89879.0,89879.0,-392.6212027191941,-20.320597714999348,-0.24173854676046938
62864.161342280546,5.276530027236731,PPG_2,PPG_3,89871.0,89871.0,-400.7294346950803,-16.738282859879384,-0.19919321253907382
62864.1714312481,5.286618994789023,PPG_2,PPG_3,89887.0,89887.0,-384.8376666709664,-13.098443694053294,-0.155964691293693
62864.18152021564,5.29670796233404,PPG_2,PPG_3,89893.0,89893.0,-378.9458986468526,-9.476078611370562,-0.11294370085942561
62864.19160918319,5.306796929879056,PPG_2,PPG_3,89899.0,89899.0,-373.05413062273874,-5.941845013362987,-0.07096940331022757
62864.20169815074,5.316885897431348,PPG_2,PPG_3,89865.0,89865.0,-407.1623625986249,-2.560789344708941,-0.03081432223508481
62864.211787118285,5.326974864976364,PPG_2,PPG_3,89918.0,89918.0,-354.27059457451105,0.6076812146938417,0.006815993460861815
62864.22187608583,5.33706383252138,PPG_2,PPG_3,89881.0,89881.0,-391.3788265503972,3.510156120185519,0.04128721386374335
62864.231965053375,5.347152800066397,PPG_2,PPG_3,89927.0,89927.0,-345.4870585262979,6.1012679486228665,0.07206053312916749
62864.24205402093,5.357241767618689,PPG_2,PPG_3,89912.0,89912.0,-360.59529050218407,8.346664273513088,0.09872796493388769
62864.25214298847,5.367330735163705,PPG_2,PPG_3,89880.0,89880.0,-392.7035224780702,10.224821491668205,0.12103388437380808
62864.26223195602,5.377419702708721,PPG_2,PPG_3,89908.0,89908.0,-364.8117544539564,11.726956362987371,0.1388739773669034
62864.27232092357,5.387508670261013,PPG_2,PPG_3,89913.0,89913.0,-359.91998642984254,12.857241857076179,0.15229780415389674
62864.282409891115,5.3975976378060295,PPG_2,PPG_3,89936.0,89936.0,-337.0282184057287,13.635892523134045,0.1615454426694774
62864.29249885866,5.407686605351046,PPG_2,PPG_3,89901.0,89901.0,-372.13645038161485,14.10407651699765,0.16710582619287595
62864.30258782621,5.417775572903338,PPG_2,PPG_3,89929.0,89929.0,-344.244682357501,14.326986080918362,0.16975320987680806
62864.31267679376,5.427864540448354,PPG_2,PPG_3,89921.0,89921.0,-352.3529143334017,14.392789168989742,0.17053471973510415
62864.3227657613,5.43795350799337,PPG_2,PPG_3,89899.0,89899.0,-374.46114630928787,14.40746045227829,0.1707089631157707
62864.332854728855,5.4480424755456625,PPG_2,PPG_3,89916.0,89916.0,-357.569378285174,14.48654790759378,0.1716482446572321
62864.3429436964,5.458131443090679,PPG_2,PPG_3,89925.0,89925.0,-348.6776102610602,14.745794557269434,0.1747271854545391
62864.353032663945,5.468220410635695,PPG_2,PPG_3,89922.0,89922.0,-351.78584223694634,15.292348840890895,0.18121833310829044
62864.3631216315,5.478309378187987,PPG_2,PPG_3,89910.0,89910.0,-363.8940742128325,16.216403970064754,0.19219286658725232
62864.37321059904,5.488398345733003,PPG_2,PPG_3,89899.0,89899.0,-375.00230618871865,17.582558517047183,0.2084179903271086
62864.38329956659,5.498487313278019,PPG_2,PPG_3,89916.0,89916.0,-358.1105381646048,19.422497616148384,0.23027001257646293
62864.39338853413,5.508576280823036,PPG_2,PPG_3,89936.0,89936.0,-338.21877014049096,21.732354185085484,0.2577030059629764
62864.40347750168,5.518665248375328,PPG_2,PPG_3,89943.0,89943.0,-331.32700211639167,24.476087153372927,0.29028892899629444
62864.41356646923,5.528754215920344,PPG_2,PPG_3,89915.0,89915.0,-359.4352340922778,27.592279766512565,0.3272983660743287
62864.423655436774,5.53884318346536,PPG_2,PPG_3,89921.0,89921.0,-353.543466068164,31.000916329467586,0.3677810114238632
62864.43374440433,5.548932151017652,PPG_2,PPG_3,89948.0,89948.0,-326.65169804405014,34.60999624257981,0.41064422064614214
62864.44383337187,5.559021118562669,PPG_2,PPG_3,89967.0,89967.0,-307.7599300199363,38.32401587132453,0.4547537455763498
62864.45392233942,5.569110086107685,PPG_2,PPG_3,89952.0,89952.0,-322.86816199582245,42.053663244275334,0.4990488732877939
62864.46401130697,5.579199053659977,PPG_2,PPG_3,89968.0,89968.0,-306.9763939717086,45.72247927140963,0.5426215379987561
62864.474100274514,5.589288021204993,PPG_2,PPG_3,89947.0,89947.0,-328.08462594759476,49.266797412672574,0.5847156045466664
62864.48418924206,5.599376988750009,PPG_2,PPG_3,89942.0,89942.0,-333.1928579234809,52.629015986069575,0.6246469670080402
62864.49427820961,5.6094659563023015,PPG_2,PPG_3,89972.0,89972.0,-303.3010898993816,55.74760367807222,0.6616848492213667
62864.50436717716,5.619554923847318,PPG_2,PPG_3,89949.0,89949.0,-326.4093218752678,58.54815053611551,0.6949455219698376
62864.5144561447,5.629643891392334,PPG_2,PPG_3,89956.0,89956.0,-319.51755385115393,60.93826689848833,0.7233317201622833
62864.524545112254,5.639732858944626,PPG_2,PPG_3,89970.0,89970.0,-305.6257858270401,62.80754342622299,0.7455321681522236
62864.5346340798,5.649821826489642,PPG_2,PPG_3,89989.0,89989.0,-286.73401780292625,64.03314004620803,0.7600879567768195
62864.544723047344,5.6599107940346585,PPG_2,PPG_3,89955.0,89955.0,-320.8422497788124,64.49003464712068,0.7655142619135659
62864.554812014896,5.669999761586951,PPG_2,PPG_3,89973.0,89973.0,-302.95048175469856,64.06339142359188,0.7604472370225562
62864.56490098244,5.680088729131967,PPG_2,PPG_3,89991.0,89991.0,-285.0587137305847,62.66135506178185,0.7437959631909152
62864.574989949986,5.690177696676983,PPG_2,PPG_3,89977.0,89977.0,-299.16694570647087,60.227566934932405,0.714891097630904
62864.58507891753,5.700266664221999,PPG_2,PPG_3,89967.0,89967.0,-309.2751776823716,56.75138404923477,0.6736062389102017
62864.59516788508,5.710355631774291,PPG_2,PPG_3,89980.0,89980.0,-296.38340965825773,52.27305083216002,0.6204193496553646
62864.60525685263,5.720444599319308,PPG_2,PPG_3,89944.0,89944.0,-332.4916416341439,46.88280075763699,0.5564020870103131
62864.61534582017,5.730533566864324,PPG_2,PPG_3,89949.0,89949.0,-327.59987361003004,40.7148527750622,0.4831485012726521
62864.625434787726,5.740622534416616,PPG_2,PPG_3,89950.0,89950.0,-326.7081055859162,33.93842202784861,0.40266827476316824
62864.63552375527,5.750711501961632,PPG_2,PPG_3,89939.0,89939.0,-337.81633756180236,26.748060654158788,0.31727200442165415
62864.645612722816,5.760800469506648,PPG_2,PPG_3,89931.0,89931.0,-345.9245695376885,19.35436290662062,0.22946081123426562
62864.65570169037,5.7708894370589405,PPG_2,PPG_3,89940.0,89940.0,-337.03280151357467,11.974643358991601,0.14181563002823558
62864.66579065791,5.780978404603957,PPG_2,PPG_3,89906.0,89906.0,-371.1410334894754,4.822946311973812,0.05687855625855708
62864.67587962546,5.791067372148973,PPG_2,PPG_3,89932.0,89932.0,-345.24926546536153,-1.9009300936021065,-0.022977509025521207
62864.68596859301,5.801156339701265,PPG_2,PPG_3,89905.0,89905.0,-372.3574974412477,-8.023386695342944,-0.09569081673625024
62864.696057560555,5.811245307246281,PPG_2,PPG_3,89887.0,89887.0,-390.46572941713384,-13.409675815721945,-0.15966103714054164
62864.7061465281,5.8213342747912975,PPG_2,PPG_3,89867.0,89867.0,-410.57396139302,-17.975944284103555,-0.2138922887163917
62864.71623549565,5.83142324234359,PPG_2,PPG_3,89909.0,89909.0,-368.68219336890616,-21.69713007032222,-0.25808692245951587
62864.7263244632,5.841512209888606,PPG_2,PPG_3,89882.0,89882.0,-395.7904253447923,-24.606750277386794,-0.29264300398036897
62864.73641343074,5.851601177433622,PPG_2,PPG_3,89887.0,89887.0,-390.89865732067847,-26.787973940999468,-0.3185482896777955
62864.74650239829,5.861690144978638,PPG_2,PPG_3,89925.0,89925.0,-353.0068892965646,-28.358892131237074,-0.33720528721741877
62864.75659136584,5.87177911253093,PPG_2,PPG_3,89878.0,89878.0,-400.11512127246533,-29.455979340168046,-0.3502348348316591
62864.766680333385,5.881868080075947,PPG_2,PPG_3,89872.0,89872.0,-406.2233532483515,-30.219421979243712,-0.3593018553343142
62864.77676930093,5.891957047620963,PPG_2,PPG_3,89904.0,89904.0,-374.33158522423764,-30.78174218227834,-0.3659802468060627
62864.78685826848,5.902046015173255,PPG_2,PPG_3,89909.0,89909.0,-369.4398172001238,-31.25834861907931,-0.3716406594068101
62864.79694723603,5.912134982718271,PPG_2,PPG_3,89868.0,89868.0,-410.54804917600995,-31.739555295873263,-0.37735570672167834
62864.80703620357,5.922223950263287,PPG_2,PPG_3,89898.0,89898.0,-380.6562811518961,-32.28595295518078,-0.3838449942279961
62864.817125171125,5.93231291781558,PPG_2,PPG_3,89899.0,89899.0,-379.76451312778227,-32.92789824192635,-0.39146905238061913
62864.82721413867,5.942401885360596,PPG_2,PPG_3,89883.0,89883.0,-395.8727451036684,-33.668072523574104,-0.40025972641916074
62864.837303106215,5.952490852905612,PPG_2,PPG_3,89885.0,89885.0,-393.9809770795546,-34.486705062481725,-0.4099822093334014
62864.84739207377,5.962579820457904,PPG_2,PPG_3,89882.0,89882.0,-397.0892090554553,-35.34923633854699,-0.4202260552544698
62864.85748104131,5.97266878800292,PPG_2,PPG_3,89884.0,89884.0,-395.19744103134144,-36.21480905093866,-0.4305060227701645
62864.86757000886,5.9827577555479365,PPG_2,PPG_3,89875.0,89875.0,-404.3056730072276,-37.04350643652284,-0.44034804075685396
62864.87765897641,5.992846723100229,PPG_2,PPG_3,89886.0,89886.0,-393.41390498311375,-37.800957435783246,-0.44934390159633475
62864.887747943954,6.002935690645245,PPG_2,PPG_3,89892.0,89892.0,-387.5221369589999,-38.45966399971304,-0.45716702492569977
62864.8978369115,6.013024658190261,PPG_2,PPG_3,89877.0,89877.0,-402.63036893488606,-38.9973819107452,-0.46355322746984434
62864.90792587905,6.023113625742553,PPG_2,PPG_3,89912.0,89912.0,-367.7386009107722,-39.39397150008191,-0.4682633206105801
62864.9180148466,6.0332025932875695,PPG_2,PPG_3,89873.0,89873.0,-406.8468328866584,-39.62860334866139,-0.4710499239161301
62864.92810381414,6.043291560832586,PPG_2,PPG_3,89882.0,89882.0,-397.95506486254453,-39.6788309107568,-0.4716464511625894
62864.93819278169,6.053380528377602,PPG_2,PPG_3,89879.0,89879.0,-401.06329683844524,-39.52145566894518,-0.46977738534011465
62864.94828174924,6.063469495929894,PPG_2,PPG_3,89917.0,89917.0,-363.1715288143314,-39.13340430933951,-0.46516869641767283
62864.958370716784,6.07355846347491,PPG_2,PPG_3,89893.0,89893.0,-387.27976079021755,-38.491900858403945,-0.45754988572457467
62864.96845968433,6.083647431019926,PPG_2,PPG_3,89890.0,89890.0,-390.3879927661037,-37.576213182288214,-0.44667472823609305
62864.97854865188,6.093736398572219,PPG_2,PPG_3,89879.0,89879.0,-401.49622474198986,-36.37339781072267,-0.43238950092930056
62864.988637619426,6.103825366117235,PPG_2,PPG_3,89876.0,89876.0,-404.604456717876,-34.88680220133823,-0.41473395985844114
62864.99872658697,6.113914333662251,PPG_2,PPG_3,89869.0,89869.0,-411.7126886937622,-33.14266921008049,-0.3940197780958954
62865.00881555452,6.124003301214543,PPG_2,PPG_3,89903.0,89903.0,-377.82092066964833,-31.18978467869476,-0.37082636030771576
62865.01890452207,6.134092268759559,PPG_2,PPG_3,89930.0,89930.0,-350.92915264554904,-29.089830014778254,-0.3458862652464417
62865.028993489614,6.144181236304576,PPG_2,PPG_3,89914.0,89914.0,-367.0373846214352,-26.90125909720634,-0.3198937199451144
62865.039082457166,6.154270203856868,PPG_2,PPG_3,89938.0,89938.0,-343.14561659732135,-24.663964030564927,-0.29332250267031384
62865.04917142471,6.164359171401884,PPG_2,PPG_3,89907.0,89907.0,-374.2538485732075,-22.391858954703096,-0.26633786459459846
62865.059260392256,6.1744481389469,PPG_2,PPG_3,89897.0,89897.0,-384.36208054909366,-20.07621307163855,-0.23883611446435185
62865.06934935981,6.184537106499192,PPG_2,PPG_3,89897.0,89897.0,-384.4703125249798,-17.69722126862615,-0.210582037013716
62865.07943832735,6.1946260740442085,PPG_2,PPG_3,89912.0,89912.0,-369.578544500866,-15.237517193202978,-0.18136938089415688
62865.0895272949,6.204715041589225,PPG_2,PPG_3,89926.0,89926.0,-355.68677647675213,-12.691474484430561,-0.1511313246742096
62865.09961626245,6.214804009141517,PPG_2,PPG_3,89929.0,89929.0,-352.7950084526383,-10.068155329675994,-0.11997549535091458
62865.10970523,6.224892976686533,PPG_2,PPG_3,89944.0,89944.0,-337.903240428539,-7.390055641959257,-0.0881690654584455
62865.11979419754,6.234981944231549,PPG_2,PPG_3,89910.0,89910.0,-372.01147240442515,-4.691248781953454,-0.05611670699703469
62865.129883165086,6.2450709117765655,PPG_2,PPG_3,89936.0,89936.0,-346.1197043803113,-2.0168503126440966,-0.024354234595890898
62865.13997213264,6.255159879328858,PPG_2,PPG_3,89929.0,89929.0,-353.22793635619746,0.5772391150933232,0.006454448104217919
62865.15006110018,6.265248846873874,PPG_2,PPG_3,89925.0,89925.0,-357.3361683320836,3.026817923491944,0.035546851569540114
62865.16015006773,6.27533781441889,PPG_2,PPG_3,89951.0,89951.0,-331.4444003079698,5.2657721266986295,0.06213777356671807
62865.17023903528,6.285426781971182,PPG_2,PPG_3,89950.0,89950.0,-332.5526322838559,7.2364076459944675,0.085542010823297
62865.180328002825,6.295515749516198,PPG_2,PPG_3,89972.0,89972.0,-310.6608642597421,8.901811744313962,0.1053211695076366
62865.19041697037,6.305604717061215,PPG_2,PPG_3,89964.0,89964.0,-318.76909623562824,10.256241599400678,0.1214070450363444
62865.20050593792,6.315693684613507,PPG_2,PPG_3,89948.0,89948.0,-334.87732821152895,11.329033639587927,0.13414805126994941
62865.21059490547,6.325782652158523,PPG_2,PPG_3,89942.0,89942.0,-340.9855601874151,12.179912695716181,0.14425350969251735
62865.22068387301,6.335871619703539,PPG_2,PPG_3,89956.0,89956.0,-327.09379216330126,12.887638692899262,0.15265881193564368
62865.230772840565,6.345960587255831,PPG_2,PPG_3,89935.0,89935.0,-348.2020241391874,13.536461510740482,0.16036455103226976
62865.24086180811,6.3560495548008475,PPG_2,PPG_3,89944.0,89944.0,-339.31025611507357,14.204469410346652,0.1682981416016909
62865.250950775655,6.366138522345864,PPG_2,PPG_3,89961.0,89961.0,-322.4184880909597,14.95653474321731,0.17723003961662284
62865.26103974321,6.376227489898156,PPG_2,PPG_3,89964.0,89964.0,-319.5267200668459,15.843065133211226,0.1877589108256423
62865.27112871075,6.386316457443172,PPG_2,PPG_3,89967.0,89967.0,-316.63495204273204,16.903328943636463,0.2003511256369452
62865.2812176783,6.396405424988188,PPG_2,PPG_3,89962.0,89962.0,-321.7431840186182,18.170137583335237,0.21539636848976276
62865.29130664584,6.4064943925332045,PPG_2,PPG_3,89978.0,89978.0,-305.8514159945189,19.673039284870622,0.23324556873589405
62865.301395613395,6.416583360085497,PPG_2,PPG_3,89963.0,89963.0,-320.95964797040506,21.438747961468255,0.25421599395580363
62865.31148458094,6.426672327630513,PPG_2,PPG_3,89954.0,89954.0,-330.0678799462912,23.488700058598752,0.27856223392564206
62865.321573548485,6.436761295175529,PPG_2,PPG_3,89964.0,89964.0,-320.17611192217737,25.835025300555074,0.30642834722064044
62865.33166251604,6.446850262727821,PPG_2,PPG_3,90003.0,90003.0,-281.2843438980635,28.47751438979108,0.33781184812013687
62865.34175148358,6.4569392302728374,PPG_2,PPG_3,89984.0,89984.0,-300.3925758739497,31.40274501163918,0.37255332660947543
62865.35184045113,6.467028197817854,PPG_2,PPG_3,89960.0,89960.0,-324.50080784983584,34.583177188855785,0.41032570436537485
62865.36192941868,6.477117165370146,PPG_2,PPG_3,90006.0,90006.0,-278.609039825722,37.97385514582894,0.4505950644721125
62865.372018386224,6.487206132915162,PPG_2,PPG_3,89957.0,89957.0,-327.71727180160815,41.50777971404066,0.4925656918313689
62865.38210735377,6.497295100460178,PPG_2,PPG_3,89998.0,89998.0,-286.82550377750886,45.09306821924664,0.5351463425846394
62865.39219632132,6.50738406801247,PPG_2,PPG_3,90007.0,90007.0,-277.933735753395,48.61426747862321,0.5769658379135306
62865.40228528887,6.517473035557487,PPG_2,PPG_3,89996.0,89996.0,-289.04196772928117,51.938284029292625,0.6164434943522316
62865.41237425641,6.527562003102503,PPG_2,PPG_3,90032.0,90032.0,-253.15019970516732,54.923090004085836,0.6518925190525863
62865.42246322397,6.537650970654795,PPG_2,PPG_3,90018.0,90018.0,-267.2584316810535,57.425932510983,0.681617508414497
62865.43255219151,6.547739938199811,PPG_2,PPG_3,89997.0,89997.0,-288.36666365693964,59.30802962493779,0.7039702199959162
62865.442641159054,6.557828905744827,PPG_2,PPG_3,89990.0,89990.0,-295.4748956328258,60.434867929068915,0.7173531062584706
62865.452730126606,6.5679178732971195,PPG_2,PPG_3,90011.0,90011.0,-274.58312760871195,60.675073130296234,0.7202059014429385
62865.46281909415,6.578006840842136,PPG_2,PPG_3,90020.0,90020.0,-265.69135958461266,59.9028650957444,0.7110347787898029
62865.472908061696,6.588095808387152,PPG_2,PPG_3,89993.0,89993.0,-292.7995915604988,58.00642325256375,0.688511702144476
62865.48299702924,6.598184775932168,PPG_2,PPG_3,90021.0,90021.0,-264.90782353638497,54.90068473577111,0.6516264230595421
62865.49308599679,6.60827374348446,PPG_2,PPG_3,90003.0,90003.0,-283.0160555122711,50.542252906291104,0.5998635416921014
62865.50317496434,6.6183627110294765,PPG_2,PPG_3,90005.0,90005.0,-281.1242874881573,44.944630509864986,0.533383423295824
62865.51326393188,6.628451678574493,PPG_2,PPG_3,90019.0,90019.0,-267.23251946404343,38.19163563039803,0.4531815326854374
62865.52335289944,6.638540646126785,PPG_2,PPG_3,90023.0,90023.0,-263.3407514399296,30.445881616677358,0.3611891460197415
62865.53344186698,6.648629613671801,PPG_2,PPG_3,89971.0,89971.0,-315.44898341581575,21.948152470003844,0.2602659325977287
62865.543530834526,6.658718581216817,PPG_2,PPG_3,89982.0,89982.0,-304.5572153917019,13.004252802673864,0.15404377849384557
62865.55361980208,6.668807548769109,PPG_2,PPG_3,89965.0,89965.0,-321.6654473676026,3.9598672731757913,0.04662820483769825
62865.56370876962,6.678896516314126,PPG_2,PPG_3,89921.0,89921.0,-365.77367934348877,-4.832036656396317,-0.05778877308132391
62865.57379773717,6.688985483859142,PPG_2,PPG_3,89932.0,89932.0,-354.8819113193749,-13.04520432091987,-0.1553323942971122
62865.58388670472,6.699074451411434,PPG_2,PPG_3,89942.0,89942.0,-344.9901432952611,-20.40908246757316,-0.2427894352289606
62865.593975672266,6.70916341895645,PPG_2,PPG_3,89917.0,89917.0,-370.09837527114723,-26.727811543837383,-0.3178337714407503
62865.60406463981,6.719252386501466,PPG_2,PPG_3,89922.0,89922.0,-365.2066072470334,-31.887924512478175,-0.37911781255656907
62865.61415360736,6.7293413540537586,PPG_2,PPG_3,89951.0,89951.0,-336.31483922291955,-35.85617165893996,-0.4262466686028258
62865.62424257491,6.739430321598775,PPG_2,PPG_3,89926.0,89926.0,-361.4230711988057,-38.66995042926037,-0.4596644900534588
62865.63433154245,6.749519289143791,PPG_2,PPG_3,89907.0,89907.0,-380.53130317469186,-40.42400253543067,-0.4804964761063037
62865.644420510005,6.759608256696083,PPG_2,PPG_3,89939.0,89939.0,-348.63953515059256,-41.2565033065954,-0.49038366497194763
62865.65450947755,6.769697224241099,PPG_2,PPG_3,89918.0,89918.0,-369.7477671264787,-41.33497690787489,-0.49131565608077515
62865.664598445095,6.7797861917861155,PPG_2,PPG_3,89932.0,89932.0,-355.8559991023649,-40.841556482008386,-0.4854555522710416
62865.67468741264,6.789875159331132,PPG_2,PPG_3,89923.0,89923.0,-364.96423107825103,-39.958382945955535,-0.47496654871146976
62865.68477638019,6.799964126883424,PPG_2,PPG_3,89938.0,89938.0,-350.0724630541372,-38.8543577655899,-0.46185460233401504
62865.69486534774,6.81005309442844,PPG_2,PPG_3,89939.0,89939.0,-349.18069503002334,-37.67408602134888,-0.4478371142399591
62865.70495431528,6.820142061973456,PPG_2,PPG_3,89944.0,89944.0,-344.2889270059095,-36.53019646406927,-0.43425171890340225
62865.715043282835,6.8302310295257485,PPG_2,PPG_3,89925.0,89925.0,-363.39715898179566,-35.50064282543608,-0.422024233206019
62865.72513225038,6.840319997070765,PPG_2,PPG_3,89923.0,89923.0,-365.5053909576818,-34.63148967784345,-0.4117017426798008
62865.735221217925,6.850408964615781,PPG_2,PPG_3,89940.0,89940.0,-348.6136229335825,-33.94323323511407,-0.4035276704471217
62865.74531018548,6.860497932168073,PPG_2,PPG_3,89949.0,89949.0,-339.7218549094687,-33.43754333283978,-0.3975218482972637
62865.75539915302,6.870586899713089,PPG_2,PPG_3,89915.0,89915.0,-373.83008688535483,-33.10301271950414,-0.39354879809724813
62865.76548812057,6.880675867258105,PPG_2,PPG_3,89928.0,89928.0,-360.938318861241,-32.920113703019894,-0.3913765993654797
62865.77557708812,6.890764834810398,PPG_2,PPG_3,89952.0,89952.0,-337.04655083712714,-32.86441363386585,-0.39071507793195004
62865.785666055664,6.900853802355414,PPG_2,PPG_3,89961.0,89961.0,-328.1547828130133,-32.90648918865681,-0.3912147879277293
62865.79575502321,6.91094276990043,PPG_2,PPG_3,89945.0,89945.0,-344.26301478889945,-33.01003537273986,-0.3924445533691636
62865.80584399076,6.921031737452722,PPG_2,PPG_3,89930.0,89930.0,-359.3712467647856,-33.132345667721076,-0.39389717062620233
62865.81593295831,6.931120704997738,PPG_2,PPG_3,89924.0,89924.0,-365.4794787406863,-33.22900899405112,-0.3950451918616294
62865.82602192585,6.941209672542755,PPG_2,PPG_3,89944.0,89944.0,-345.5877107165725,-33.25991751934553,-0.39541227671936086
62865.8361108934,6.951298640087771,PPG_2,PPG_3,89954.0,89954.0,-335.69594269245863,-33.19226769730986,-0.3946088341396524
62865.84619986095,6.961387607640063,PPG_2,PPG_3,89938.0,89938.0,-351.8041746683448,-32.999327071277776,-0.3923173763110118
62865.856288828494,6.971476575185079,PPG_2,PPG_3,89966.0,89966.0,-323.91240664423094,-32.657229618375275,-0.38825445860035246
62865.86637779604,6.981565542730095,PPG_2,PPG_3,89947.0,89947.0,-343.0206386201171,-32.14275069468541,-0.38214425370673033
62865.87646676359,6.9916545102823875,PPG_2,PPG_3,89941.0,89941.0,-349.12887059600325,-31.433880132676073,-0.37372535804844076
62865.88655573114,7.001743477827404,PPG_2,PPG_3,89940.0,89940.0,-350.2371025718894,-30.51330297835413,-0.3627921307104722
62865.89664469868,7.01183244537242,PPG_2,PPG_3,89969.0,89969.0,-321.34533454777556,-29.37294923811641,-0.3492487284772234
62865.906733666234,7.021921412924712,PPG_2,PPG_3,89928.0,89928.0,-362.4535665236763,-28.017403631538485,-0.33314960173469954
62865.91682263378,7.032010380469728,PPG_2,PPG_3,89949.0,89949.0,-341.5617984995624,-26.465215046561706,-0.31471504620475
62865.92691160133,7.0420993480147445,PPG_2,PPG_3,89959.0,89959.0,-331.6700304754486,-24.74728647778969,-0.29431208105990053
62865.93700056888,7.052188315567037,PPG_2,PPG_3,89994.0,89994.0,-296.77826245133474,-22.90141107138052,-0.27238955630345985
62865.94708953642,7.062277283112053,PPG_2,PPG_3,89961.0,89961.0,-329.8864944272209,-20.964692030076943,-0.24938812783118727
62865.957178503966,7.072366250657069,PPG_2,PPG_3,89967.0,89967.0,-323.99472640310705,-18.968472187738676,-0.22568003856307658
62865.96726747152,7.082455218209361,PPG_2,PPG_3,89938.0,89938.0,-353.1029583789932,-16.93856329237523,-0.20157184152149363
62865.97735643906,7.092544185754377,PPG_2,PPG_3,89981.0,89981.0,-310.21119035487936,-14.898446494017563,-0.17734241040022952
62865.98744540661,7.102633153299394,PPG_2,PPG_3,89992.0,89992.0,-299.3194223307655,-12.870926218670112,-0.15326258178549304
62865.99753437416,7.112722120851686,PPG_2,PPG_3,89977.0,89977.0,-314.4276543066662,-10.8769888096742,-0.12958159981903392
62866.007623341706,7.122811088396702,PPG_2,PPG_3,89962.0,89962.0,-329.5358862825524,-8.934683532932832,-0.10651382646548975
62866.01771230925,7.132900055941718,PPG_2,PPG_3,89981.0,89981.0,-310.64411825843854,-7.060087198200302,-0.08425019782955072
62866.0278012768,7.142989023486734,PPG_2,PPG_3,89973.0,89973.0,-318.7523502343247,-5.268572174709372,-0.0629732837335896
62866.03789024435,7.1530779910390265,PPG_2,PPG_3,90000.0,90000.0,-291.86058221021085,-3.5734950259211944,-0.04284171329857594
62866.04797921189,7.163166958584043,PPG_2,PPG_3,89988.0,89988.0,-303.968814186097,-1.9818789230691052,-0.023938897162463425
62866.05806817944,7.173255926129059,PPG_2,PPG_3,89993.0,89993.0,-299.07704616198316,-0.4891020547641696,-0.0062099444186167856
62866.06815714699,7.183344893681351,PPG_2,PPG_3,89996.0,89996.0,-296.1852781378693,0.9251536783713046,0.010586452680531717
62866.078246114535,7.193433861226367,PPG_2,PPG_3,90006.0,90006.0,-286.2935101137555,2.2986132050842993,0.026898333954744086
62866.08833508208,7.2035228287713835,PPG_2,PPG_3,89989.0,89989.0,-303.4017420896562,3.685443570023194,0.043369013884057374
62866.09842404963,7.213611796323676,PPG_2,PPG_3,90023.0,90023.0,-269.50997406554234,5.15229170940804,0.060790024282673105
62866.10851301718,7.223700763868692,PPG_2,PPG_3,90005.0,90005.0,-287.6182060414285,6.770950366967629,0.08001401110722653
62866.11860198472,7.233789731413708,PPG_2,PPG_3,89992.0,89992.0,-300.72643801731465,8.607229382237636,0.10182256439972635
62866.128690952275,7.243878698966,PPG_2,PPG_3,90003.0,90003.0,-289.8346699932008,10.706499138405942,0.126754525159512
62866.13877991982,7.253967666511016,PPG_2,PPG_3,89987.0,89987.0,-305.94290196908696,13.078750002543018,0.15492854390257596
62866.148868887365,7.264056634056033,PPG_2,PPG_3,89983.0,89983.0,-310.0511339449731,15.687855840721085,0.18591556888326066
62866.15895785492,7.274145601608325,PPG_2,PPG_3,90021.0,90021.0,-272.1593659208593,18.449629730445768,0.21871575477823427
62866.16904682246,7.284234569153341,PPG_2,PPG_3,90036.0,90036.0,-257.26759789676,21.241110329223805,0.2518687521697982
62866.17913579001,7.294323536698357,PPG_2,PPG_3,90010.0,90010.0,-283.37582987264614,23.9192028824772,0.2836750973298695
62866.18922475756,7.304412504250649,PPG_2,PPG_3,90051.0,90051.0,-242.4840618485323,26.343217160551635,0.3124638838517226
62866.199313725105,7.314501471795666,PPG_2,PPG_3,90024.0,90024.0,-269.59229382441845,28.396224408534017,0.3368464082966413
62866.20940269265,7.324590439340682,PPG_2,PPG_3,90031.0,90031.0,-262.7005258003046,30.00252900096831,0.3559236721638317
62866.219491660195,7.334679406885698,PPG_2,PPG_3,90058.0,90058.0,-235.80875777619076,31.14008438800512,0.36943383977728383
62866.22958062775,7.34476837443799,PPG_2,PPG_3,90062.0,90062.0,-231.91698975207692,31.846889242564735,0.37782820207728235
62866.23966959529,7.354857341983006,PPG_2,PPG_3,90027.0,90027.0,-267.02522172796307,32.21919746676512,0.38224991777581746
62866.24975856284,7.3649463095280225,PPG_2,PPG_3,90013.0,90013.0,-281.1334537038492,32.39945187718519,0.38439070786445023
62866.25984753039,7.375035277080315,PPG_2,PPG_3,90055.0,90055.0,-239.24168567974993,32.55591790479093,0.38624897541155484
62866.269936497934,7.385124244625331,PPG_2,PPG_3,90011.0,90011.0,-283.3499176556361,32.859821779130456,0.38985828738659595
62866.28002546548,7.395213212170347,PPG_2,PPG_3,90045.0,90045.0,-249.45814963152225,33.46476971360654,0.3970429467757735
62866.29011443303,7.405302179722639,PPG_2,PPG_3,90031.0,90031.0,-263.5663816074084,34.49036635567997,0.409223437234615
62866.30020340058,7.415391147267656,PPG_2,PPG_3,90040.0,90040.0,-254.67461358329456,36.010810841278186,0.42728098421778987
62866.31029236812,7.425480114812672,PPG_2,PPG_3,90076.0,90076.0,-218.7828455591807,38.048513812353434,0.451481747538306
62866.320381335674,7.435569082364964,PPG_2,PPG_3,90047.0,90047.0,-247.89107753506687,40.571065997442645,0.481440818738355
62866.33047030322,7.44565804990998,PPG_2,PPG_3,90026.0,90026.0,-268.999309510953,43.48873652532425,0.5160925098311195
62866.34055927077,7.455747017454996,PPG_2,PPG_3,90033.0,90033.0,-262.1075414868392,46.65194901405991,0.5536603780921142
62866.35064823832,7.465835985007288,PPG_2,PPG_3,90055.0,90055.0,-240.2157734627399,49.852909836785514,0.591676564145055
62866.36073720586,7.475924952552305,PPG_2,PPG_3,90063.0,90063.0,-232.32400543862605,52.83676306717262,0.6271142735839588
62866.37082617341,7.486013920097321,PPG_2,PPG_3,90082.0,90082.0,-213.4322374145122,55.32314974877182,0.6566438254660538
62866.38091514095,7.496102887642337,PPG_2,PPG_3,90060.0,90060.0,-235.54046939039836,57.03394413087754,0.6769620614990327
62866.391004108504,7.506191855194629,PPG_2,PPG_3,90081.0,90081.0,-214.6487013662845,57.72174316673976,0.6851307013426491
62866.40109307605,7.516280822739645,PPG_2,PPG_3,90096.0,90096.0,-199.75693334217067,57.19542353678908,0.6788798703941831
62866.411182043594,7.526369790284662,PPG_2,PPG_3,90065.0,90065.0,-230.86516531805682,55.34021001852128,0.656846441625647
62866.421271011146,7.536458757836954,PPG_2,PPG_3,90075.0,90075.0,-220.97339729394298,52.12965432046464,0.6187163021112486
62866.43135997869,7.54654772538197,PPG_2,PPG_3,90077.0,90077.0,-219.08162926982914,47.628085557014444,0.565253456072505
62866.44144894624,7.556636692926986,PPG_2,PPG_3,90064.0,90064.0,-232.18986124572984,41.98396008609464,0.49822104427749736
62866.45153791379,7.566725660479278,PPG_2,PPG_3,90037.0,90037.0,-259.298093221616,35.41501152643265,0.4202049783377504
62866.46162688133,7.5768146280242945,PPG_2,PPG_3,90036.0,90036.0,-260.40632519750216,28.186764491365434,0.3343587592366525
62866.47171584888,7.586903595569311,PPG_2,PPG_3,90035.0,90035.0,-261.5145571733883,20.588079184328343,0.24411303290998806
62866.48180481643,7.596992563121603,PPG_2,PPG_3,90039.0,90039.0,-257.62278914927447,12.908040890871092,0.15290111847950372
62866.491893783976,7.607081530666619,PPG_2,PPG_3,90017.0,90017.0,-279.7310211251606,5.416145111501182,0.06392367713885933
62866.50198275152,7.617170498211635,PPG_2,PPG_3,89984.0,89984.0,-312.8392531010468,-1.6544205332574928,-0.02004984016954633
62866.51207171907,7.627259465763927,PPG_2,PPG_3,90025.0,90025.0,-271.94748507693294,-8.11958177696567,-0.09683327686709105
62866.52216068662,7.637348433308944,PPG_2,PPG_3,89994.0,89994.0,-303.05571705283364,-13.850692775596807,-0.16489877159829394
62866.53224965416,7.64743740085396,PPG_2,PPG_3,89993.0,89993.0,-304.1639490287198,-18.773017843429233,-0.22335872657907163
62866.542338621715,7.657526368406252,PPG_2,PPG_3,90020.0,90020.0,-277.27218100460595,-22.857684097458144,-0.2718702332413458
62866.55242758926,7.667615335951268,PPG_2,PPG_3,90019.0,90019.0,-278.3804129804921,-26.10982141425502,-0.310494216523899
62866.562516556805,7.677704303496284,PPG_2,PPG_3,89981.0,89981.0,-316.48864495637827,-28.556821801137975,-0.33955599738635567
62866.57260552435,7.687793271041301,PPG_2,PPG_3,89998.0,89998.0,-299.5968769322644,-30.240721738497545,-0.3595548217576855
62866.5826944919,7.697882238593593,PPG_2,PPG_3,90022.0,90022.0,-275.7051089081506,-31.215793010503084,-0.37113524805602316
62866.59278345945,7.707971206138609,PPG_2,PPG_3,89974.0,89974.0,-323.81334088403673,-31.55019477979366,-0.3751067680407502
62866.60287242699,7.718060173683625,PPG_2,PPG_3,89966.0,89966.0,-331.9215728599229,-31.33090116713801,-0.3725023291735978
62866.612961394545,7.728149141235917,PPG_2,PPG_3,89999.0,89999.0,-299.0298048358236,-30.66978357365933,-0.364650571270745
62866.62305036209,7.738238108780933,PPG_2,PPG_3,89986.0,89986.0,-312.13803681170975,-29.706166097988707,-0.3532061758945571
62866.633139329635,7.74832707632595,PPG_2,PPG_3,89979.0,89979.0,-319.2462687875959,-28.60247853163088,-0.3400982391872126
62866.64322829719,7.758416043878242,PPG_2,PPG_3,90023.0,90023.0,-275.35450076348206,-27.53321692312192,-0.32739916209768716
62866.65331726473,7.768505011423258,PPG_2,PPG_3,89991.0,89991.0,-307.4627327393682,-26.66924196429069,-0.31713817028959546
62866.66340623228,7.778593978968274,PPG_2,PPG_3,90002.0,90002.0,-296.5709647152544,-26.160234650228826,-0.31109294892471584
62866.67349519983,7.7886829465205665,PPG_2,PPG_3,90031.0,90031.0,-267.67919669114053,-26.118359413395723,-0.31059561800358865
62866.683584167375,7.798771914065583,PPG_2,PPG_3,90007.0,90007.0,-291.7874286670267,-26.605676692740076,-0.31638323784162
62866.69367313492,7.808860881610599,PPG_2,PPG_3,90000.0,90000.0,-298.89566064291284,-27.627862977237207,-0.32852322521551053
62866.70376210247,7.818949849162891,PPG_2,PPG_3,89997.0,89997.0,-302.00389261881355,-29.135943109907842,-0.3464339270583194
62866.71385107002,7.829038816707907,PPG_2,PPG_3,90007.0,90007.0,-292.1121245946997,-31.034832996695236,-0.36898607787430127
62866.72394003756,7.8391277842529234,PPG_2,PPG_3,89979.0,89979.0,-320.22035657058586,-33.195640421747605,-0.39464889027492916
62866.73402900511,7.84921675179794,PPG_2,PPG_3,90000.0,90000.0,-299.328588546472,-35.46920637879095,-0.4216508784945149
62866.74411797266,7.859305719350232,PPG_2,PPG_3,89995.0,89995.0,-304.4368205223582,-37.6991315366689,-0.4481345671058105
62866.75420694021,7.869394686895248,PPG_2,PPG_3,89988.0,89988.0,-311.54505249824433,-39.733193190955035,-0.4722920843560999
62866.76429590775,7.879483654440264,PPG_2,PPG_3,90013.0,90013.0,-286.6532844741305,-41.433294811046316,-0.49248332788505467
62866.7743848753,7.889572621992556,PPG_2,PPG_3,89980.0,89980.0,-319.76151645001664,-42.68506303968893,-0.5073499434141747
62866.78447384285,7.899661589537573,PPG_2,PPG_3,89954.0,89954.0,-345.8697484259028,-43.40779953594346,-0.5159335177315473
62866.79456281039,7.909750557082589,PPG_2,PPG_3,89984.0,89984.0,-315.9779804018035,-43.562906907395266,-0.5177756492095181
62866.804651777944,7.919839524634881,PPG_2,PPG_3,89982.0,89982.0,-318.08621237768966,-43.15600971860121,-0.5129431379448405
62866.81474074549,7.929928492179897,PPG_2,PPG_3,90004.0,90004.0,-296.1944443535758,-42.22919708072851,-0.5019358549354895
62866.824829713034,7.940017459724913,PPG_2,PPG_3,90016.0,90016.0,-284.302676329462,-40.84499177800616,-0.4854963515369592
62866.834918680586,7.950106427277205,PPG_2,PPG_3,90011.0,90011.0,-289.41090830534813,-39.06790183039331,-0.46439075674128927
62866.84500764813,7.960195394822222,PPG_2,PPG_3,90017.0,90017.0,-283.5191402812343,-36.950146283286905,-0.4392392496307176
62866.85509661568,7.970284362367238,PPG_2,PPG_3,90004.0,90004.0,-296.62737225712044,-34.52602995560678,-0.41044925111752456
62866.86518558323,7.98037332991953,PPG_2,PPG_3,89981.0,89981.0,-319.7356042330066,-31.81576295170531,-0.3782607863472086
62866.87527455077,7.990462297464546,PPG_2,PPG_3,89991.0,89991.0,-309.8438362089073,-28.835424852994972,-0.3428648243420365
62866.88536351832,8.000551265009562,PPG_2,PPG_3,90034.0,90034.0,-266.95206818479346,-25.607093401812566,-0.30452357123534973
62866.89545248587,8.010640232561855,PPG_2,PPG_3,90015.0,90015.0,-286.0603001606796,-22.16470715083557,-0.2636400979812802
62866.905541453416,8.02072920010687,PPG_2,PPG_3,89997.0,89997.0,-304.1685321365658,-18.555993907614848,-0.22078124351108583
62866.91563042096,8.030818167651887,PPG_2,PPG_3,90027.0,90027.0,-274.27676411245193,-14.842641823324179,-0.17667964666733998
62866.925719388506,8.040907135196903,PPG_2,PPG_3,90038.0,90038.0,-263.3849960883381,-11.098471406845142,-0.1322120361435777
62866.93580835606,8.050996102749195,PPG_2,PPG_3,90026.0,90026.0,-275.49322806422424,-7.404541094106274,-0.08834110181702019
62866.9458973236,8.061085070294212,PPG_2,PPG_3,90030.0,90030.0,-271.6014600401104,-3.8422440319214046,-0.04603350875608714
62866.95598629115,8.071174037839228,PPG_2,PPG_3,90073.0,90073.0,-228.70969201599655,-0.48620106091970067,-0.006175490788023499
62866.9660752587,8.08126300539152,PPG_2,PPG_3,90029.0,90029.0,-272.81792399189726,2.6018093462108003,0.030499240541843175
62866.976164226246,8.091351972936536,PPG_2,PPG_3,90050.0,90050.0,-251.92615596778342,5.37630087110974,0.06345046733100877
62866.98625319379,8.101440940481552,PPG_2,PPG_3,90050.0,90050.0,-252.03438794366957,7.807996133920349,0.09233047700771183
62866.99634216134,8.111529908033845,PPG_2,PPG_3,90047.0,90047.0,-255.14261991955573,9.881415616911788,0.11695542720128431
62867.00643112889,8.12161887557886,PPG_2,PPG_3,90021.0,90021.0,-281.2508518954419,11.592267751303831,0.13727434912883774
62867.01652009643,8.131707843123877,PPG_2,PPG_3,90093.0,90093.0,-209.35908387132804,12.946691355014684,0.15336015041312925
62867.026609063985,8.14179681067617,PPG_2,PPG_3,90052.0,90052.0,-250.4673158472142,13.963571294021813,0.16543711701651337
62867.03669803153,8.151885778221185,PPG_2,PPG_3,90065.0,90065.0,-237.57554782310035,14.678295438961118,0.1739255327064641
62867.046786999075,8.161974745766202,PPG_2,PPG_3,90074.0,90074.0,-228.6837797989865,15.144260513865206,0.17945956325627968
62867.05687596663,8.172063713318494,PPG_2,PPG_3,90045.0,90045.0,-257.7920117748872,15.429971281140904,0.18285280493826714
62867.06696493417,8.18215268086351,PPG_2,PPG_3,90056.0,90056.0,-246.90024375077337,15.612270915500194,0.1850178851129394
62867.07705390172,8.192241648408526,PPG_2,PPG_3,90055.0,90055.0,-248.00847572665953,15.768003795636961,0.186867445439891
62867.08714286927,8.202330615960818,PPG_2,PPG_3,90070.0,90070.0,-233.11670770254568,15.966966867840739,0.18923042880315596
62867.097231836815,8.212419583505834,PPG_2,PPG_3,90053.0,90053.0,-250.22493967843184,16.267605729404934,0.19280096387963241
62867.10732080436,8.22250855105085,PPG_2,PPG_3,90066.0,90066.0,-237.333171654318,16.71492919533775,0.19811359750701563
62867.117409771905,8.232597518595867,PPG_2,PPG_3,90069.0,90069.0,-234.44140363020415,17.339734269121315,0.20553409005511
62867.12749873946,8.242686486148159,PPG_2,PPG_3,90054.0,90054.0,-249.5496356060903,18.158747475080485,0.2152610939585965
62867.137587707,8.252775453693175,PPG_2,PPG_3,90061.0,90061.0,-242.65786758197646,19.175606137025927,0.22733780786512472
62867.14767667455,8.262864421238191,PPG_2,PPG_3,90076.0,90076.0,-227.76609955787717,20.383152502498362,0.24167922278386886
62867.1577656421,8.272953388790484,PPG_2,PPG_3,90063.0,90063.0,-240.87433153376332,21.767656411717198,0.25812227258010784
62867.167854609645,8.2830423563355,PPG_2,PPG_3,90065.0,90065.0,-238.98256350964948,23.314643510773983,0.27649505270340996
62867.17794357719,8.293131323880516,PPG_2,PPG_3,90108.0,90108.0,-196.09079548553564,25.015288764216333,0.296692752689586
62867.18803254474,8.303220291432808,PPG_2,PPG_3,90078.0,90078.0,-226.1990274614218,26.871763263700338,0.3187411574916257
62867.19812151229,8.313309258977824,PPG_2,PPG_3,90074.0,90074.0,-230.30725943730795,28.898722738642206,0.3428143257647529
62867.20821047983,8.32339822652284,PPG_2,PPG_3,90106.0,90106.0,-198.4154914131941,31.11858565808815,0.3691785102803956
62867.218299447384,8.333487194075133,PPG_2,PPG_3,90057.0,90057.0,-247.52372338908026,33.5509549057211,0.39806652453254393
62867.22838841493,8.343576161620149,PPG_2,PPG_3,90093.0,90093.0,-211.63195536496642,36.1985067279182,0.429510152940262
62867.238477382474,8.353665129165165,PPG_2,PPG_3,90073.0,90073.0,-231.74018734086712,39.03240954279254,0.46316697744787355
62867.24856635003,8.363754096717457,PPG_2,PPG_3,90082.0,90082.0,-222.84841931675328,41.98074808071294,0.4981828969208266
62867.25865531757,8.373843064262473,PPG_2,PPG_3,90084.0,90084.0,-220.95665129263944,44.92292024068065,0.5331255814544895
62867.26874428512,8.38393203180749,PPG_2,PPG_3,90106.0,90106.0,-199.0648832685256,47.691721962724266,0.5660092333447633
62867.27883325266,8.394020999352506,PPG_2,PPG_3,90100.0,90100.0,-205.17311524441175,50.083113180089946,0.5944105723425119
62867.288922220214,8.404109966904798,PPG_2,PPG_3,90094.0,90094.0,-211.2813472202979,51.871692744110454,0.615652623477144
62867.29901118776,8.414198934449814,PPG_2,PPG_3,90090.0,90090.0,-215.38957919618406,52.829550142574874,0.6270286093416642
62867.309100155304,8.42428790199483,PPG_2,PPG_3,90120.0,90120.0,-185.49781117207021,52.74776198500752,0.6260572529311348
62867.319189122856,8.434376869547123,PPG_2,PPG_3,90134.0,90134.0,-171.60604314797092,51.460092185952384,0.610764252683181
62867.3292780904,8.444465837092139,PPG_2,PPG_3,90089.0,90089.0,-216.71427512385708,48.86567819144267,0.579951715268352
62867.339367057946,8.454554804637155,PPG_2,PPG_3,90123.0,90123.0,-182.82250709974323,44.94546589044458,0.5333933446867118
62867.3494560255,8.464643772189447,PPG_2,PPG_3,90101.0,90101.0,-204.9307390756294,39.76912676588017,0.47191659375759687
62867.35954499304,8.474732739734463,PPG_2,PPG_3,90093.0,90093.0,-213.03897105151555,33.49204100636001,0.3973668340698196
62867.36963396059,8.48482170727948,PPG_2,PPG_3,90068.0,90068.0,-238.1472030274017,26.34293740807104,0.3124605613735855
62867.37972292814,8.494910674831772,PPG_2,PPG_3,90065.0,90065.0,-241.25543500328786,18.60410065931302,0.22055032755085185
62867.389811895686,8.504999642376788,PPG_2,PPG_3,90059.0,90059.0,-247.363666979174,10.588201009844104,0.12534955836541917
62867.39990086323,8.515088609921804,PPG_2,PPG_3,90065.0,90065.0,-241.47189895506017,2.6160224841669026,0.030668042763069742
62867.40998983078,8.525177577474096,PPG_2,PPG_3,90041.0,90041.0,-265.5801309309609,-5.0028869234558835,-0.05981787493524805
62867.42007879833,8.535266545019113,PPG_2,PPG_3,90049.0,90049.0,-257.68836290684703,-11.986835159895778,-0.14276268127453087
62867.43016776587,8.545355512564129,PPG_2,PPG_3,90046.0,90046.0,-260.7965948827332,-18.096558922878767,-0.2153247675258269
62867.440256733425,8.555444480116421,PPG_2,PPG_3,90018.0,90018.0,-288.90482685861934,-23.148098339376407,-0.2753193357029584
62867.45034570097,8.565533447661437,PPG_2,PPG_3,89999.0,89999.0,-308.0130588345055,-27.02362269963283,-0.32134697030760795
62867.460434668516,8.575622415206453,PPG_2,PPG_3,90057.0,90057.0,-250.12129081039166,-29.678112497993304,-0.3528729975347008
62867.47052363606,8.58571138275147,PPG_2,PPG_3,90028.0,90028.0,-279.2295227862778,-31.13946816141642,-0.3702287765857255
62867.48061260361,8.595800350303762,PPG_2,PPG_3,89998.0,89998.0,-309.33775476216397,-31.502829374728,-0.37454423317975943
62867.49070157116,8.605889317848778,PPG_2,PPG_3,90024.0,90024.0,-283.4459867380501,-30.921767210549866,-0.3676432529537937
62867.5007905387,8.615978285393794,PPG_2,PPG_3,90035.0,90035.0,-272.55421871395083,-29.59628552764551,-0.3519011801644896
62867.510879506255,8.626067252946086,PPG_2,PPG_3,90018.0,90018.0,-289.662450689837,-27.755942262045895,-0.33004435783489344
62867.5209684738,8.636156220491102,PPG_2,PPG_3,90051.0,90051.0,-256.77068266572314,-25.6389119637577,-0.30490146413621105
62867.531057441345,8.646245188036119,PPG_2,PPG_3,90062.0,90062.0,-245.8789146416093,-23.470293811255523,-0.27914588769241444
62867.5411464089,8.65633415558841,PPG_2,PPG_3,90026.0,90026.0,-281.98714661749545,-21.443786172981948,-0.255078085653927
62867.55123537644,8.666423123133427,PPG_2,PPG_3,90054.0,90054.0,-254.0953785933816,-19.71049068187512,-0.23449261537674543
62867.56132434399,8.676512090678443,PPG_2,PPG_3,90037.0,90037.0,-271.20361056926777,-18.376086831198048,-0.21864457853201308
62867.57141331154,8.686601058230735,PPG_2,PPG_3,90018.0,90018.0,-290.3118425451539,-17.504515908716336,-0.20829337332132739
62867.581502279085,8.696690025775752,PPG_2,PPG_3,90049.0,90049.0,-259.4200745210401,-17.124864633809704,-0.20378444793879266
62867.59159124663,8.706778993320768,PPG_2,PPG_3,90035.0,90035.0,-273.5283064969408,-17.23804040055657,-0.20512857904304954
62867.60168021418,8.71686796087306,PPG_2,PPG_3,90039.0,90039.0,-269.63653847282694,-17.821184111339715,-0.2120542807409096
62867.61176918173,8.726956928418076,PPG_2,PPG_3,90038.0,90038.0,-270.7447704487131,-18.82988494414213,-0.22403410825373765
62867.62185814927,8.737045895963092,PPG_2,PPG_3,90058.0,90058.0,-250.85300242459925,-20.199161242502754,-0.24029630744930144
62867.631947116824,8.747134863515384,PPG_2,PPG_3,90026.0,90026.0,-282.9612344004854,-21.844366927338246,-0.25983557983464906
62867.64203608437,8.7572238310604,PPG_2,PPG_3,90045.0,90045.0,-264.06946637637157,-23.663475632381058,-0.28144021007268677
62867.652125051914,8.767312798605417,PPG_2,PPG_3,90052.0,90052.0,-257.1776983522577,-25.54164421682881,-0.3037462645042923
62867.66221401946,8.777401766150433,PPG_2,PPG_3,90021.0,90021.0,-288.2859303281439,-27.358268591404318,-0.32532138961106083
62867.67230298701,8.787490733702725,PPG_2,PPG_3,90014.0,90014.0,-295.3941623040446,-28.99650014427435,-0.3447778337729343
62867.68239195456,8.797579701247741,PPG_2,PPG_3,90035.0,90035.0,-274.50239427993074,-30.353641493809388,-0.3608959123441464
62867.6924809221,8.807668668792758,PPG_2,PPG_3,90020.0,90020.0,-289.6106262558169,-31.349047257148747,-0.37271784106899
62867.702569889654,8.81775763634505,PPG_2,PPG_3,90025.0,90025.0,-284.71885823170305,-31.927184175938322,-0.37958407964108964
62867.7126588572,8.827846603890066,PPG_2,PPG_3,90050.0,90050.0,-259.8270902075892,-32.05607561918401,-0.3811148578537663
62867.722747824744,8.837935571435082,PPG_2,PPG_3,90031.0,90031.0,-278.93532218347536,-31.723005790748864,-0.37715915665414035
62867.7328367923,8.848024538987374,PPG_2,PPG_3,90024.0,90024.0,-286.0435541593615,-30.93014808124592,-0.3677427882987454
62867.74292575984,8.85811350653239,PPG_2,PPG_3,90044.0,90044.0,-266.1517861352477,-29.692090378396653,-0.35303900572145114
62867.75301472739,8.868202474077407,PPG_2,PPG_3,90022.0,90022.0,-288.26001811113383,-28.03512774646757,-0.33336010204635097
62867.76310369494,8.878291441629699,PPG_2,PPG_3,90046.0,90046.0,-264.36825008703454,-25.997110777216054,-0.3091556095289623
62867.77319266248,8.888380409174715,PPG_2,PPG_3,90045.0,90045.0,-265.4764820629207,-23.62719893709401,-0.2810093701862292
62867.78328163003,8.898469376719731,PPG_2,PPG_3,90030.0,90030.0,-280.58471403880685,-20.985676034744532,-0.24963734419769673
62867.79337059758,8.908558344272024,PPG_2,PPG_3,90035.0,90035.0,-275.692946014693,-18.143979665506567,-0.21588795960293955
62867.803459565126,8.91864731181704,PPG_2,PPG_3,90044.0,90044.0,-266.80117799057916,-15.18382851297248,-0.18073174770536907
62867.81354853267,8.928736279362056,PPG_2,PPG_3,90045.0,90045.0,-265.9094099664653,-12.193304055215606,-0.1452148074870411
62867.823637500216,8.938825246907072,PPG_2,PPG_3,90076.0,90076.0,-235.01764194235147,-9.258928934214204,-0.11036472442538013
62867.83372646777,8.948914214459364,PPG_2,PPG_3,90054.0,90054.0,-257.12587391823763,-6.455392259897194,-0.07706854314743308
62867.84381543531,8.95900318200438,PPG_2,PPG_3,90074.0,90074.0,-237.2341058941238,-3.8362774390304506,-0.045962646562512546
62867.85390440286,8.969092149549397,PPG_2,PPG_3,90062.0,90062.0,-249.3423378700245,-1.4286828417850088,-0.01736886825097345
62867.86399337041,8.979181117101689,PPG_2,PPG_3,90058.0,90058.0,-253.45056984591065,0.767340615826665,0.008712187083562339
62867.87408233795,8.989270084646705,PPG_2,PPG_3,90089.0,90089.0,-222.5588018217968,2.775352327046532,0.03256032238976639
62867.8841713055,8.999359052191721,PPG_2,PPG_3,90062.0,90062.0,-249.66703379768296,4.6362285041262075,0.05466100368117576
62867.89426027305,9.009448019744012,PPG_2,PPG_3,90047.0,90047.0,-264.7752657735691,6.399591446882096,0.07560356981155028
62867.9043492406,9.01953698728903,PPG_2,PPG_3,90078.0,90078.0,-233.88349774945527,8.11427664715974,0.09596801511596782
62867.91443820814,9.029625954834046,PPG_2,PPG_3,90081.0,90081.0,-230.99172972534143,9.820796654482342,0.11623548657042967
62867.924527175695,9.039714922386338,PPG_2,PPG_3,90075.0,90075.0,-237.09996170122758,11.547701787527666,0.1367450618103192
62867.93461614324,9.049803889931354,PPG_2,PPG_3,90075.0,90075.0,-237.20819367711374,13.31068670856795,0.15768313836875944
62867.944705110785,9.05989285747637,PPG_2,PPG_3,90104.0,90104.0,-208.31642565301445,15.112485078866982,0.17908218255226435
62867.95479407834,9.069981825028664,PPG_2,PPG_3,90050.0,90050.0,-262.4246576289006,16.942720487652178,0.20081895899984745
62867.96488304588,9.08007079257368,PPG_2,PPG_3,90085.0,90085.0,-227.53288960478676,18.777891293580698,0.22261435065281315
62867.97497201343,9.090159760118697,PPG_2,PPG_3,90108.0,90108.0,-204.64112158067292,20.58287775237422,0.2440512581442659
62867.98506098098,9.100248727670987,PPG_2,PPG_3,90060.0,90060.0,-252.74935355655907,22.315349438617968,0.26462694450946583
62867.995149948525,9.110337695216003,PPG_2,PPG_3,90111.0,90111.0,-201.85758553244523,23.932465859019892,0.28383261496653756
62868.00523891607,9.12042666276102,PPG_2,PPG_3,90097.0,90097.0,-215.96581750833138,25.39832567715968,0.3012418875756541
62868.015327883615,9.130515630306036,PPG_2,PPG_3,90101.0,90101.0,-212.07404948421754,26.69085058499207,0.3165925494848419
62868.02541685117,9.140604597858328,PPG_2,PPG_3,90078.0,90078.0,-235.18228146011825,27.806419445279513,0.32984159428615967
62868.03550581871,9.150693565403344,PPG_2,PPG_3,90116.0,90116.0,-197.2905134360044,28.76134267234176,0.3411827324870832
62868.04559478626,9.16078253294836,PPG_2,PPG_3,90115.0,90115.0,-198.39874541189056,29.59083329860946,0.351034171390516
62868.05568375381,9.170871500500652,PPG_2,PPG_3,90087.0,90087.0,-226.50697738777671,30.345347650664277,0.3599951551625404
62868.065772721355,9.180960468045669,PPG_2,PPG_3,90102.0,90102.0,-211.61520936366287,31.082867624836197,0.36875430533920694
62868.0758616889,9.191049435590685,PPG_2,PPG_3,90093.0,90093.0,-220.72344133954903,31.857434366002657,0.37795344115291274
62868.08595065645,9.201138403142975,PPG_2,PPG_3,90104.0,90104.0,-209.83167331543518,32.70674348010951,0.38804025417140253
62868.096039624,9.211227370687991,PPG_2,PPG_3,90088.0,90088.0,-225.93990529132134,33.6415304846078,0.39914224468330717
62868.10612859154,9.22131633823301,PPG_2,PPG_3,90117.0,90117.0,-197.0481372672075,34.63811384945023,0.41097815918314645
62868.116217559094,9.231405305785302,PPG_2,PPG_3,90067.0,90067.0,-247.1563692431082,35.634840261794054,0.42281577258551184
62868.12630652664,9.241494273330318,PPG_2,PPG_3,90123.0,90123.0,-191.26460121899436,36.533321013378746,0.4334865721700395
62868.136395494184,9.251583240875334,PPG_2,PPG_3,90105.0,90105.0,-209.3728331948805,37.20541232036962,0.4414686592951712
62868.14648446174,9.261672208427626,PPG_2,PPG_3,90103.0,90103.0,-211.48106517076667,37.50557450487346,0.4450335331202869
62868.15657342928,9.271761175972642,PPG_2,PPG_3,90116.0,90116.0,-198.58929714665283,37.28632674120074,0.4424296387782199
62868.16666239683,9.28185014351766,PPG_2,PPG_3,90107.0,90107.0,-207.69752912253898,36.41431719390529,0.4320732242433813
62868.17675136438,9.29193911106995,PPG_2,PPG_3,90122.0,90122.0,-192.80576109842514,34.78530646537202,0.41272629112927167
62868.18684033192,9.302028078614969,PPG_2,PPG_3,90102.0,90102.0,-212.9139930743113,32.33629494028808,0.3836406249997777
62868.19692929947,9.312117046159983,PPG_2,PPG_3,90100.0,90100.0,-215.02222505019745,29.053028182926457,0.34464693316102113
62868.207018267014,9.322206013705,PPG_2,PPG_3,90091.0,90091.0,-224.13045702609816,24.972409315783676,0.2961834952572894
62868.217107234566,9.332294981257292,PPG_2,PPG_3,90107.0,90107.0,-208.2386890019843,20.180944020661602,0.23927769533860532
62868.22719620211,9.342383948802308,PPG_2,PPG_3,90095.0,90095.0,-220.34692097787047,14.810301087972796,0.1754932967594443
62868.23728516966,9.352472916347324,PPG_2,PPG_3,90088.0,90088.0,-227.45515295375662,9.029388980214641,0.10683633954710943
62868.24737413721,9.362561883899616,PPG_2,PPG_3,90034.0,90034.0,-281.5633849296428,3.0318511164806377,0.035606628246511625
62868.257463104754,9.372650851444632,PPG_2,PPG_3,90066.0,90066.0,-249.67161690552894,-2.9793021753331463,-0.03578478657866436
62868.2675520723,9.382739818989648,PPG_2,PPG_3,90083.0,90083.0,-232.7798488814151,-8.804942746290106,-0.10497296103263357
62868.27764103985,9.39282878654194,PPG_2,PPG_3,90086.0,90086.0,-229.88808085730125,-14.257789860972798,-0.16973365693315587
62868.28773000739,9.402917754086957,PPG_2,PPG_3,90042.0,90042.0,-273.9963128331874,-19.168046540053727,-0.22805028178977868
62868.29781897494,9.413006721631971,PPG_2,PPG_3,90054.0,90054.0,-262.1045448090881,-23.392117982804162,-0.2782174330802399
62868.30790794249,9.423095689184263,PPG_2,PPG_3,90024.0,90024.0,-292.21277678497427,-26.82549367164207,-0.31899389246388365
62868.31799691004,9.43318465672928,PPG_2,PPG_3,90014.0,90014.0,-302.3210087608604,-29.415509576109297,-0.34975419599689017
62868.32808587758,9.443273624274298,PPG_2,PPG_3,90050.0,90050.0,-266.4292407367466,-31.167999081962662,-0.3705676238393523
62868.338174845136,9.45336259182659,PPG_2,PPG_3,90048.0,90048.0,-268.53747271263273,-32.143845449660084,-0.3821572555555828
62868.34826381268,9.463451559371606,PPG_2,PPG_3,90047.0,90047.0,-269.6457046885189,-32.44611364180068,-0.385747141363844
62868.358352780226,9.473540526916622,PPG_2,PPG_3,90068.0,90068.0,-248.75393666440505,-32.202719346035344,-0.38285647092316033
62868.36844174777,9.483629494461638,PPG_2,PPG_3,90020.0,90020.0,-296.8621686402912,-31.550147012878533,-0.3751062007373582
62868.37853071532,9.49371846201393,PPG_2,PPG_3,90059.0,90059.0,-257.9704006161919,-30.621068508472337,-0.36407200718193095
62868.38861968287,9.503807429558949,PPG_2,PPG_3,90076.0,90076.0,-241.07863259207807,-29.535872046883902,-0.35118367993504807
62868.39870865041,9.513896397103965,PPG_2,PPG_3,90015.0,90015.0,-302.1868645679642,-28.397768109246282,-0.33766699746469686
62868.408797617965,9.523985364656255,PPG_2,PPG_3,90047.0,90047.0,-270.2950965438504,-27.29195009071708,-0.32453375845888344
62868.41888658551,9.534074332201271,PPG_2,PPG_3,90057.0,90057.0,-260.40332851973653,-26.2875618715178,-0.3126051496676177
62868.428975553055,9.544163299746288,PPG_2,PPG_3,90036.0,90036.0,-281.5115604956227,-25.439245621945023,-0.3025301283969634
62868.43906452061,9.55425226729858,PPG_2,PPG_3,90051.0,90051.0,-266.61979247150884,-24.786548735991545,-0.2947783789608506
62868.44915348815,9.564341234843596,PPG_2,PPG_3,90076.0,90076.0,-241.728024447395,-24.351649468525675,-0.28961330122891127
62868.4592424557,9.574430202388612,PPG_2,PPG_3,90051.0,90051.0,-266.83625642328116,-24.13676369211688,-0.28706121199430096
62868.46933142325,9.584519169940904,PPG_2,PPG_3,90064.0,90064.0,-253.94448839918186,-24.123650158157297,-0.2869054692112966
62868.479420390795,9.59460813748592,PPG_2,PPG_3,90036.0,90036.0,-282.052720375068,-24.2773713350188,-0.28873113756011065
62868.48950935834,9.604697105030937,PPG_2,PPG_3,90036.0,90036.0,-282.1609523509542,-24.55360466519644,-0.29201182053489155
62868.49959832589,9.614786072583229,PPG_2,PPG_3,90056.0,90056.0,-262.26918432684033,-24.90589541302428,-0.2961957988326169
62868.50968729344,9.624875040128243,PPG_2,PPG_3,90079.0,90079.0,-239.3774163027265,-25.28937164745837,-0.30075015131691696
62868.51977626098,9.63496400767326,PPG_2,PPG_3,90058.0,90058.0,-260.48564827861264,-25.66120536448228,-0.3051662315347001
62868.529865228535,9.645052975225552,PPG_2,PPG_3,90032.0,90032.0,-286.5938802544988,-25.981741823401983,-0.3089730802697828
62868.53995419608,9.65514194277057,PPG_2,PPG_3,90045.0,90045.0,-273.70211223038496,-26.218753826372716,-0.31178795146025345
62868.550043163625,9.665230910315586,PPG_2,PPG_3,90063.0,90063.0,-255.8103442062711,-26.352490621884016,-0.31337627546103036
62868.56013213117,9.675319877860602,PPG_2,PPG_3,90034.0,90034.0,-284.9185761821718,-26.37775512126482,-0.3136763290893585
62868.57022109872,9.685408845412894,PPG_2,PPG_3,90060.0,90060.0,-259.026808158058,-26.301923548417633,-0.3127757160104421
62868.58031006627,9.69549781295791,PPG_2,PPG_3,90049.0,90049.0,-270.13504013394413,-26.13973912168871,-0.31084953394109505
62868.59039903381,9.705586780502928,PPG_2,PPG_3,90045.0,90045.0,-274.2432721098303,-25.905604530968727,-0.30806883631460524
62868.60048800136,9.71567574805522,PPG_2,PPG_3,90082.0,90082.0,-237.35150408571644,-25.604114852478208,-0.30448819651759035
62868.61057696891,9.725764715600237,PPG_2,PPG_3,90079.0,90079.0,-240.4597360616026,-25.22067484222577,-0.299934274249499
62868.620665936454,9.735853683145251,PPG_2,PPG_3,90060.0,90060.0,-259.56796803748875,-24.71600068021811,-0.2939405155309344
62868.63075490401,9.745942650697543,PPG_2,PPG_3,90045.0,90045.0,-274.6762000133749,-24.028633194250617,-0.285777000986251
62868.64084387155,9.75603161824256,PPG_2,PPG_3,90045.0,90045.0,-274.78443198926107,-23.08574459530986,-0.2745787919516253
62868.6509328391,9.766120585787576,PPG_2,PPG_3,90060.0,90060.0,-259.8926639651618,-21.817573411588544,-0.2595173668554331
62868.66102180665,9.776209553339868,PPG_2,PPG_3,90056.0,90056.0,-264.00089594104793,-20.169962241294044,-0.23994952574093767
62868.671110774194,9.786298520884884,PPG_2,PPG_3,90075.0,90075.0,-245.10912791693409,-18.11258419206875,-0.2155150915094101
62868.68119974174,9.7963874884299,PPG_2,PPG_3,90051.0,90051.0,-269.21735989282024,-15.643518063872543,-0.1861912470436737
62868.69128870929,9.806476455982192,PPG_2,PPG_3,90049.0,90049.0,-271.3255918687064,-12.791240965870747,-0.15231620050691283
62868.70137767683,9.816565423527209,PPG_2,PPG_3,90093.0,90093.0,-227.43382384459255,-9.613368605117861,-0.11457422439112576
62868.71146664438,9.826654391072225,PPG_2,PPG_3,90082.0,90082.0,-238.5420558204787,-6.190859983496542,-0.07392682764586937
