timestamp,time_from_segment_start_sec,selected_channel_name,backup_channel_name,selected_channel_raw,selected_channel_clipped,selected_channel_detrended,selected_channel_filtered,selected_channel_filtered_z
63856.46174539584,0.0,PPG_2,PPG_3,95582.0,95582.0,999.7157751663326,25.40359599126589,0.2065836506456026
63856.471834363394,0.0100889675522921,PPG_2,PPG_3,95603.0,95603.0,1020.6563453132694,30.812227162824556,0.2506759453932333
63856.48192333094,0.0201779350973083,PPG_2,PPG_3,95635.0,95635.0,1052.5969154602208,36.01578499203976,0.2930964392787461
63856.49201229848,0.0302669026423245,PPG_2,PPG_3,95588.0,95588.0,1005.5374856071721,40.84928109919707,0.3325001124556118
63856.50210126603,0.0403558701946167,PPG_2,PPG_3,95583.0,95583.0,1000.4780557541089,45.17653873540357,0.3677768235295466
63856.51219023358,0.0504448377396329,PPG_2,PPG_3,95613.0,95613.0,1030.4186259010603,48.89551483192385,0.39809469601999226
63856.52227920113,0.0605338052846491,PPG_2,PPG_3,95641.0,95641.0,1058.3591960480117,51.94182372185183,0.4229288444776184
63856.53236816868,0.0706227728369413,PPG_2,PPG_3,95614.0,95614.0,1031.2997661949485,54.293568963406614,0.4421007645203912
63856.542457136224,0.0807117403819575,PPG_2,PPG_3,95633.0,95633.0,1050.2403363418998,55.97529122705189,0.4558105168366933
63856.55254610377,0.0908007079269737,PPG_2,PPG_3,95626.0,95626.0,1043.1809064888512,57.05775577845925,0.4646349947019054
63856.56263507132,0.1008896754792658,PPG_2,PPG_3,95622.0,95622.0,1039.121476635788,57.65311894666774,0.46948852001392377
63856.572724038866,0.110978643024282,PPG_2,PPG_3,95634.0,95634.0,1051.0620467827393,57.906966547745654,0.47155793885441777
63856.58281300641,0.1210676105692982,PPG_2,PPG_3,95638.0,95638.0,1055.0026169296907,57.98879084382483,0.4722249876632203
63856.59290197395,0.1311565781143144,PPG_2,PPG_3,95632.0,95632.0,1048.9431870766275,58.08162614233746,0.4729818004713348
63856.60299094151,0.1412455456666066,PPG_2,PPG_3,95650.0,95650.0,1066.8837572235789,58.37053422128869,0.47533703967475394
63856.61307990905,0.1513345132116228,PPG_2,PPG_3,95658.0,95658.0,1074.8243273705302,59.02910072434552,0.4807058118173975
63856.6231688766,0.161423480756639,PPG_2,PPG_3,95613.0,95613.0,1029.764897517467,60.202999178422765,0.4902756780181364
63856.63325784415,0.1715124483089312,PPG_2,PPG_3,95641.0,95641.0,1057.7054676644184,61.9908255866689,0.5048504135564943
63856.643346811696,0.1816014158539474,PPG_2,PPG_3,95636.0,95636.0,1052.6460378113698,64.42541533253004,0.5246976993593332
63856.65343577924,0.1916903833989636,PPG_2,PPG_3,95638.0,95638.0,1054.5866079583066,67.46066325037881,0.5494416764546235
63856.66352474679,0.2017793509512557,PPG_2,PPG_3,95639.0,95639.0,1055.527178105258,70.96740334252715,0.5780293565610818
63856.67361371434,0.2118683184962719,PPG_2,PPG_3,95673.0,95673.0,1089.4677482522093,74.73969558889733,0.608781873478079
63856.68370268188,0.2219572860412881,PPG_2,PPG_3,95668.0,95668.0,1084.408318399146,78.51112581339329,0.6395273630121115
63856.693791649435,0.2320462535935803,PPG_2,PPG_3,95688.0,95688.0,1104.3488885460974,81.97829793760819,0.6677924767520813
63856.70388061698,0.2421352211385965,PPG_2,PPG_3,95703.0,95703.0,1119.2894586930488,84.82659242772938,0.6910123703264262
63856.713969584525,0.2522241886836127,PPG_2,PPG_3,95675.0,95675.0,1091.2300288399856,86.75300533859765,0.7067168920764583
63856.72405855208,0.2623131562359049,PPG_2,PPG_3,95656.0,95656.0,1072.170598986937,87.48276042258264,0.7126660084491644
63856.73414751962,0.2724021237809211,PPG_2,PPG_3,95660.0,95660.0,1076.1111691338883,86.78074185400226,0.7069430059625231
63856.74423648717,0.2824910913259373,PPG_2,PPG_3,95716.0,95716.0,1132.0517392808251,84.4629474881441,0.6880478605732019
63856.75432545471,0.2925800588709535,PPG_2,PPG_3,95689.0,95689.0,1104.9923094277765,80.41154966920128,0.655020016539005
63856.764414422265,0.3026690264232456,PPG_2,PPG_3,95691.0,95691.0,1106.9328795747133,74.59045291383279,0.6075652159155382
63856.77450338981,0.3127579939682618,PPG_2,PPG_3,95651.0,95651.0,1066.8734497216647,67.05476902425701,0.5461327416637591
63856.784592357355,0.3228469615132781,PPG_2,PPG_3,95671.0,95671.0,1086.814019868616,57.951257848789886,0.4719190108222509
63856.79468132491,0.3329359290655702,PPG_2,PPG_3,95667.0,95667.0,1082.7545900155528,47.51173338783733,0.3868138197014502
63856.80477029245,0.3430248966105864,PPG_2,PPG_3,95658.0,95658.0,1073.6951601625042,36.04169925927382,0.2933076978158528
63856.81485926,0.3531138641556026,PPG_2,PPG_3,95631.0,95631.0,1046.6357303094555,23.903595993655028,0.1943553363238768
63856.82494822755,0.3632028317078948,PPG_2,PPG_3,95614.0,95614.0,1029.5763004563923,11.4933454368681,0.09318437308289367
63856.835037195095,0.373291799252911,PPG_2,PPG_3,95611.0,95611.0,1026.5168706033437,-0.7883806572772494,-0.00693883180494589
63856.84512616264,0.3833807667979272,PPG_2,PPG_3,95574.0,95574.0,989.4574407502951,-12.566029038567127,-0.102952689542658
63856.85521513019,0.3934697343502193,PPG_2,PPG_3,95566.0,95566.0,981.3980108972319,-23.51534055941101,-0.1922137716070778
63856.86530409774,0.4035587018952355,PPG_2,PPG_3,95591.0,95591.0,1006.3385810441832,-33.38125699826353,-0.2726427899259621
63856.87539306528,0.4136476694402518,PPG_2,PPG_3,95588.0,95588.0,1003.2791511911346,-41.984710428844906,-0.34277994523865984
63856.885482032834,0.4237366369925439,PPG_2,PPG_3,95557.0,95557.0,972.2197213380714,-49.219658363923905,-0.40176075696691343
63856.89557100038,0.4338256045375601,PPG_2,PPG_3,95600.0,95600.0,1015.1602914850228,-55.04507961830971,-0.44925081181261484
63856.90565996792,0.4439145720825763,PPG_2,PPG_3,95554.0,95554.0,969.1008616319741,-59.47627654894268,-0.4853748577963161
63856.91574893548,0.4540035396348685,PPG_2,PPG_3,95571.0,95571.0,986.0414317789109,-62.57806062234387,-0.5106612515750398
63856.92583790302,0.4640925071798847,PPG_2,PPG_3,95542.0,95542.0,956.9820019258623,-64.46077656472322,-0.5260095464807786
63856.93592687057,0.4741814747249009,PPG_2,PPG_3,95552.0,95552.0,966.9225720728136,-65.27775504708637,-0.5326697262756688
63856.94601583811,0.4842704422699171,PPG_2,PPG_3,95554.0,95554.0,968.8631422197504,-65.2208505193096,-0.532205828640274
63856.956104805664,0.4943594098222093,PPG_2,PPG_3,95565.0,95565.0,979.8037123667018,-64.51110496581511,-0.5264198341533397
63856.96619377321,0.5044483773672255,PPG_2,PPG_3,95583.0,95583.0,997.7442825136532,-63.38406304017042,-0.5172319521916747
63856.976282740754,0.5145373449122417,PPG_2,PPG_3,95569.0,95569.0,983.68485266059,-62.072216748218715,-0.5065375063081238
63856.986371708306,0.5246263124645338,PPG_2,PPG_3,95561.0,95561.0,975.6254228075413,-60.78833084563327,-0.49607099937808813
63856.99646067585,0.53471528000955,PPG_2,PPG_3,95592.0,95592.0,1006.5659929544927,-59.71191010299652,-0.48729579190851957
63857.00654964339,0.5448042475545662,PPG_2,PPG_3,95579.0,95579.0,993.5065631014295,-58.97897396694148,-0.4813207429327146
63857.01663861095,0.5548932151068584,PPG_2,PPG_3,95582.0,95582.0,996.4471332483809,-58.67540809268713,-0.4788460103102851
63857.02672757849,0.5649821826518746,PPG_2,PPG_3,95577.0,95577.0,991.3877033953322,-58.83510469581321,-0.48014789048511713
63857.03681654604,0.5750711501968908,PPG_2,PPG_3,95574.0,95574.0,988.328273542269,-59.44321286370565,-0.4851053157054115
63857.04690551359,0.585160117749183,PPG_2,PPG_3,95589.0,95589.0,1003.2688436892204,-60.44314343510205,-0.49325695926968716
63857.056994481136,0.5952490852941992,PPG_2,PPG_3,95562.0,95562.0,976.2094138361717,-61.74563066323921,-0.503875108103729
63857.06708344868,0.6053380528392154,PPG_2,PPG_3,95599.0,95599.0,1013.1499839831085,-63.238801476073185,-0.5160477494800242
63857.07717241623,0.6154270203915075,PPG_2,PPG_3,95573.0,95573.0,987.0905541300599,-64.79883135847037,-0.528765440002439
63857.08726138378,0.6255159879365237,PPG_2,PPG_3,95573.0,95573.0,987.0311242770113,-66.30129928471794,-0.5410138733955924
63857.09735035132,0.63560495548154,PPG_2,PPG_3,95567.0,95567.0,980.9716944239481,-67.63313359027616,-0.5518712657547677
63857.10743931888,0.6456939230338321,PPG_2,PPG_3,95567.0,95567.0,980.9122645708994,-68.70352850799371,-0.5605973494368183
63857.11752828642,0.6557828905788483,PPG_2,PPG_3,95563.0,95563.0,976.8528347178508,-69.45100632968708,-0.5666909452813143
63857.127617253966,0.6658718581238645,PPG_2,PPG_3,95580.0,95580.0,993.7934048647876,-69.84430730707855,-0.5698972172694776
63857.13770622151,0.6759608256688807,PPG_2,PPG_3,95605.0,95605.0,1018.733975011739,-69.87673100799267,-0.5701615420740663
63857.14779518906,0.6860497932211729,PPG_2,PPG_3,95573.0,95573.0,986.6745451586903,-69.55643944809287,-0.5675504581572071
63857.15788415661,0.6961387607661891,PPG_2,PPG_3,95595.0,95595.0,1008.6151153056271,-68.89722018472608,-0.5621763645757236
63857.16797312415,0.7062277283112053,PPG_2,PPG_3,95586.0,95586.0,999.5556854525785,-67.91306299265841,-0.5541533089052179
63857.178062091705,0.7163166958634974,PPG_2,PPG_3,95569.0,95569.0,982.4962555995298,-66.61701913480003,-0.5435876877759664
63857.18815105925,0.7264056634085136,PPG_2,PPG_3,95562.0,95562.0,975.4368257464666,-65.0225536215067,-0.530589270774128
63857.198240026795,0.7364946309535298,PPG_2,PPG_3,95633.0,95633.0,1046.377395893418,-63.14418803540747,-0.5152764408844488
63857.20832899435,0.746583598505822,PPG_2,PPG_3,95604.0,95604.0,1017.3179660403694,-60.995527132610306,-0.4977601069297449
63857.21841796189,0.7566725660508382,PPG_2,PPG_3,95569.0,95569.0,982.2585361873062,-58.58726797516717,-0.4781274736015488
63857.22850692944,0.7667615335958544,PPG_2,PPG_3,95614.0,95614.0,1027.1991063342575,-55.9291938744882,-0.45645829650467423
63857.23859589699,0.7768505011481466,PPG_2,PPG_3,95594.0,95594.0,1007.1396764812089,-53.035819383687624,-0.43287090131779
63857.248684864535,0.7869394686931628,PPG_2,PPG_3,95609.0,95609.0,1022.0802466281457,-49.932409360949755,-0.4075712524593385
63857.25877383208,0.797028436238179,PPG_2,PPG_3,95586.0,95586.0,999.020816775097,-46.65957748394695,-0.3808904411407396
63857.26886279963,0.8071174037904711,PPG_2,PPG_3,95618.0,95618.0,1030.9613869220484,-43.275657554624395,-0.35330401673992884
63857.27895176718,0.8172063713354873,PPG_2,PPG_3,95623.0,95623.0,1035.9019570689852,-39.85547353094172,-0.3254219598423617
63857.28904073472,0.8272953388805036,PPG_2,PPG_3,95620.0,95620.0,1032.8425272159366,-36.48523143953824,-0.2979470400426059
63857.29912970227,0.8373843064255198,PPG_2,PPG_3,95600.0,95600.0,1012.7830973628879,-33.25523741516406,-0.2716154518757703
63857.30921866982,0.8474732739778119,PPG_2,PPG_3,95648.0,95648.0,1060.7236675098247,-30.25172956127063,-0.24713022643331728
63857.319307637365,0.8575622415228281,PPG_2,PPG_3,95614.0,95614.0,1026.664237656776,-27.547444742295035,-0.22508432987693353
63857.32939660491,0.8676512090678443,PPG_2,PPG_3,95633.0,95633.0,1045.6048078037275,-25.1908510908131,-0.2058728845803979
63857.33948557246,0.8777401766201365,PPG_2,PPG_3,95658.0,95658.0,1070.5453779506643,-23.195313732758976,-0.18960484585113208
63857.34957454001,0.8878291441651527,PPG_2,PPG_3,95647.0,95647.0,1059.4859480976156,-21.530256060040017,-0.17603094677230632
63857.35966350755,0.8979181117101689,PPG_2,PPG_3,95614.0,95614.0,1026.426518244567,-20.11715821497313,-0.16451107700940376
63857.369752475104,0.908007079262461,PPG_2,PPG_3,95653.0,95653.0,1065.3670883915038,-18.832263521699048,-0.1540363462062714
63857.37984144265,0.9180960468074773,PPG_2,PPG_3,95660.0,95660.0,1072.3076585384551,-17.514882574349116,-0.14329678065206727
63857.389930410194,0.9281850143524936,PPG_2,PPG_3,95649.0,95649.0,1061.248228685392,-15.97988359305179,-0.13078314728091434
63857.40001937775,0.9382739819047856,PPG_2,PPG_3,95636.0,95636.0,1048.1887988323433,-14.03556956648364,-0.11493269188432459
63857.41010834529,0.9483629494498018,PPG_2,PPG_3,95630.0,95630.0,1042.1293689792947,-11.507836820872768,-0.0943260848284041
63857.42019731284,0.958451916994818,PPG_2,PPG_3,95633.0,95633.0,1045.0699391262315,-8.26746967764102,-0.06790993282284252
63857.43028628039,0.9685408845471102,PPG_2,PPG_3,95616.0,95616.0,1028.0105092731828,-4.2544814598677805,-0.0351952119065269
63857.440375247934,0.9786298520921264,PPG_2,PPG_3,95656.0,95656.0,1067.9510794201342,0.506366787738362,0.0036162206951339624
63857.45046421548,0.9887188196371426,PPG_2,PPG_3,95663.0,95663.0,1074.891649567071,5.902311130882479,0.04760508975886733
63857.46055318303,0.9988077871894347,PPG_2,PPG_3,95663.0,95663.0,1074.8322197140224,11.741035338058369,0.09520359306349101
63857.470642150576,1.008896754734451,PPG_2,PPG_3,95667.0,95667.0,1078.7727898609737,17.766793120719658,0.14432683327037768
63857.48073111812,1.0189857222794672,PPG_2,PPG_3,95688.0,95688.0,1099.7133600079105,23.679916197269776,0.19253185174922677
63857.490820085666,1.0290746898244834,PPG_2,PPG_3,95652.0,95652.0,1063.6539301548619,29.15730642271223,0.23718468471332058
63857.50090905322,1.0391636573767755,PPG_2,PPG_3,95680.0,95680.0,1091.5945003018132,33.87321163568051,0.2756297322783153
63857.51099802076,1.0492526249217915,PPG_2,PPG_3,95681.0,95681.0,1092.53507044875,37.521002071286546,0.30536728434326377
63857.52108698831,1.059341592466808,PPG_2,PPG_3,95695.0,95695.0,1106.4756405957014,39.83682138323701,0.3242463286792356
63857.53117595586,1.0694305600191,PPG_2,PPG_3,95696.0,95696.0,1107.4162107426528,40.623713830279705,0.33066124080933973
63857.541264923406,1.0795195275641165,PPG_2,PPG_3,95692.0,95692.0,1103.3567808895896,39.7723076307607,0.323720399049495
63857.55135389095,1.0896084951091325,PPG_2,PPG_3,95710.0,95710.0,1121.297351036541,37.27367920204442,0.3033510564840232
63857.5614428585,1.0996974626614249,PPG_2,PPG_3,95647.0,95647.0,1058.2379211834923,33.22115796900499,0.2703140541426873
63857.57153182605,1.1097864302064409,PPG_2,PPG_3,95671.0,95671.0,1082.178491330429,27.80019339601882,0.226121214922022
63857.58162079359,1.119875397751457,PPG_2,PPG_3,95665.0,95665.0,1076.1190614773805,21.268778404041765,0.17287575117886303
63857.591709761145,1.1299643653037492,PPG_2,PPG_3,95620.0,95620.0,1031.0596316243318,13.932662725717016,0.1130701988068767
63857.60179872869,1.1400533328487654,PPG_2,PPG_3,95613.0,95613.0,1024.0002017712686,6.118975954596401,0.04937138680623738
63857.611887696235,1.1501423003937816,PPG_2,PPG_3,95622.0,95622.0,1032.94077191822,-1.8478560467095475,-0.015575897204109984
63857.62197666379,1.1602312679460738,PPG_2,PPG_3,95616.0,95616.0,1026.8813420651713,-9.663460697666087,-0.0792903441630842
63857.63206563133,1.17032023549109,PPG_2,PPG_3,95593.0,95593.0,1003.8219122121081,-17.05229715698199,-0.13952568738991955
63857.64215459888,1.1804092030361062,PPG_2,PPG_3,95613.0,95613.0,1023.7624823590595,-23.76966008590527,-0.1942870376824629
63857.65224356642,1.1904981705811224,PPG_2,PPG_3,95609.0,95609.0,1019.7030525060109,-29.600002717695013,-0.24181721262808903
63857.662332533975,1.2005871381334146,PPG_2,PPG_3,95600.0,95600.0,1010.6436226529477,-34.35525467434151,-0.2805830230930836
63857.67242150152,1.2106761056784308,PPG_2,PPG_3,95562.0,95562.0,972.584192799899,-37.87745018529424,-0.3092966990124853
63857.682510469065,1.220765073223447,PPG_2,PPG_3,95554.0,95554.0,964.5247629468504,-40.04776425465832,-0.3269895541186976
63857.69259943662,1.2308540407757391,PPG_2,PPG_3,95553.0,95553.0,963.4653330937872,-40.79900831754878,-0.3331138531506888
63857.70268840416,1.240943008320755,PPG_2,PPG_3,95566.0,95566.0,976.4059032407386,-40.125576901391675,-0.3276238991213486
63857.71277737171,1.2510319758657715,PPG_2,PPG_3,95561.0,95561.0,971.3464733876899,-38.086728095596946,-0.31100277639371965
63857.72286633926,1.2611209434180637,PPG_2,PPG_3,95572.0,95572.0,982.2870435346267,-34.803340137931286,-0.28423590969341644
63857.732955306805,1.27120991096308,PPG_2,PPG_3,95543.0,95543.0,953.2276136815781,-30.450715484233204,-0.24875240137695775
63857.74304427435,1.281298878508096,PPG_2,PPG_3,95546.0,95546.0,956.1681838285294,-25.249085779623268,-0.20634762596728645
63857.7531332419,1.2913878460603885,PPG_2,PPG_3,95566.0,95566.0,976.1087539754662,-19.450737951855917,-0.15907827936890764
63857.76322220945,1.3014768136054045,PPG_2,PPG_3,95599.0,95599.0,1009.0493241224176,-13.321795024884405,-0.10911385224204247
63857.77331117699,1.3115657811504209,PPG_2,PPG_3,95576.0,95576.0,985.989894269369,-7.1200336138730265,-0.0585557935733844
63857.783400144544,1.3216547487027128,PPG_2,PPG_3,95571.0,95571.0,980.9304644163058,-1.0742264609441936,-0.0092691066985146
63857.79348911209,1.331743716247729,PPG_2,PPG_3,95577.0,95577.0,986.8710345632571,4.6301798464515525,0.03723440893933457
63857.803578079634,1.3418326837927452,PPG_2,PPG_3,95566.0,95566.0,975.8116047102085,9.858713852809952,0.07985851385494638
63857.81366704719,1.3519216513450374,PPG_2,PPG_3,95572.0,95572.0,981.7521748571453,14.531404052615839,0.11795126357646839
63857.82375601473,1.3620106188900536,PPG_2,PPG_3,95577.0,95577.0,986.6927450040967,18.624563027863253,0.1513195533083617
63857.83384498228,1.3720995864350698,PPG_2,PPG_3,95587.0,95587.0,996.633315151048,22.171792098327767,0.18023730805095625
63857.84393394982,1.382188553980086,PPG_2,PPG_3,95584.0,95584.0,993.5738852979848,25.263290458118135,0.2054398505368421
63857.854022917374,1.3922775215323782,PPG_2,PPG_3,95589.0,95589.0,998.5144554449362,28.0409094240517,0.22808358242718987
63857.86411188492,1.4023664890773944,PPG_2,PPG_3,95567.0,95567.0,976.4550255918875,30.68626430573939,0.24964906978539772
63857.874200852464,1.4124554566224106,PPG_2,PPG_3,95539.0,95539.0,948.3955957388243,33.4012167899126,0.271781931383997
63857.88428982002,1.4225444241747027,PPG_2,PPG_3,95539.0,95539.0,948.3361658857757,36.38390008946006,0.29609739069541136
63857.89437878756,1.432633391719719,PPG_2,PPG_3,95583.0,95583.0,992.2767360327271,39.80682516351667,0.3240017932100435
63857.90446775511,1.4427223592647351,PPG_2,PPG_3,95553.0,95553.0,962.2173061796639,43.80240603424392,0.35657460578534267
63857.91455672266,1.4528113268170273,PPG_2,PPG_3,95546.0,95546.0,955.1578763266152,48.45603508924078,0.39451196505991265
63857.92464569021,1.4629002943620435,PPG_2,PPG_3,95569.0,95569.0,978.0984464735666,53.80401369093934,0.43810980734764265
63857.93473465775,1.4729892619070597,PPG_2,PPG_3,95569.0,95569.0,978.0390166205034,59.835015466651775,0.4872757976848176
63857.9448236253,1.483078229459352,PPG_2,PPG_3,95565.0,95565.0,973.9795867674547,66.49433035430566,0.5415639281803387
63857.954912592846,1.493167197004368,PPG_2,PPG_3,95533.0,95533.0,941.9201569144061,73.6890348750619,0.600216667161591
63857.96500156039,1.5032561645493845,PPG_2,PPG_3,95567.0,95567.0,975.8607270613429,81.29347771330949,0.6622096787721231
63857.97509052794,1.5133451321016764,PPG_2,PPG_3,95565.0,95565.0,973.8012972082943,89.15724049609717,0.7263167209138416
63857.98517949549,1.5234340996466926,PPG_2,PPG_3,95558.0,95558.0,966.7418673552311,97.11748404185573,0.7912102944538846
63857.99526846303,1.5335230671917088,PPG_2,PPG_3,95576.0,95576.0,984.6824375021824,105.01480602401669,0.8555909182215866
63858.005357430586,1.543612034744001,PPG_2,PPG_3,95620.0,95620.0,1028.6230076491338,112.70986481453556,0.9183226500645858
63858.01544639813,1.5537010022890172,PPG_2,PPG_3,95542.0,95542.0,950.5635777960706,120.09675665014954,0.9785421403114862
63858.02553536568,1.5637899698340334,PPG_2,PPG_3,95588.0,95588.0,996.504147943022,127.10870479231141,1.035705010995864
63858.03562433322,1.5738789373790496,PPG_2,PPG_3,95567.0,95567.0,975.4447180899733,133.71471027766856,1.089558552072301
63858.04571330077,1.5839679049313418,PPG_2,PPG_3,95541.0,95541.0,949.3852882369101,139.9100448472424,1.1400642177827462
63858.05580226832,1.594056872476358,PPG_2,PPG_3,95544.0,95544.0,952.3258583838615,145.70506086382107,1.187306402758098
63858.06589123586,1.6041458400213742,PPG_2,PPG_3,95584.0,95584.0,992.2664285308128,151.11701328537166,1.2314257730316667
63858.075980203415,1.6142348075736663,PPG_2,PPG_3,95564.0,95564.0,972.2069986777497,156.16809580207624,1.272603256216744
63858.08606917096,1.6243237751186823,PPG_2,PPG_3,95555.0,95555.0,963.147568824701,160.88842289532798,1.311084351876462
63858.096158138505,1.6344127426636987,PPG_2,PPG_3,95554.0,95554.0,962.0881389716524,165.3198944350405,1.3472106365309273
63858.10624710606,1.644501710215991,PPG_2,PPG_3,95564.0,95564.0,972.0287091185892,169.51875869270032,1.3814406578767302
63858.1163360736,1.654590677761007,PPG_2,PPG_3,95556.0,95556.0,963.9692792655405,173.55679159770025,1.4143595483317026
63858.12642504115,1.6646796453060233,PPG_2,PPG_3,95545.0,95545.0,952.9098494124919,177.52035619191935,1.4466713575115506
63858.1365140087,1.6747686128583157,PPG_2,PPG_3,95573.0,95573.0,980.8504195594287,181.50566601310558,1.4791604383385821
63858.146602976245,1.6848575804033317,PPG_2,PPG_3,95527.0,95527.0,934.7909897063801,185.6088116877409,1.5126101417367064
63858.15669194379,1.694946547948348,PPG_2,PPG_3,95517.0,95517.0,924.7315598533314,189.90999294359636,1.5476742726934323
63858.16678091134,1.70503551550064,PPG_2,PPG_3,95525.0,95525.0,932.6721300002682,194.45377201351394,1.584716111869385
63858.17686987889,1.7151244830456562,PPG_2,PPG_3,95551.0,95551.0,958.6127001472196,199.22973394068518,1.6236507543540954
63858.18695884643,1.7252134505906724,PPG_2,PPG_3,95487.0,95487.0,894.5532702941709,204.15685253830486,1.6638176576928145
63858.197047813985,1.7353024181429646,PPG_2,PPG_3,95510.0,95510.0,917.4938404411077,209.0720141954841,1.703887085547357
63858.20713678153,1.7453913856879808,PPG_2,PPG_3,95519.0,95519.0,926.4344105880591,213.7236389150966,1.7418081050598435
63858.217225749075,1.755480353232997,PPG_2,PPG_3,95500.0,95500.0,907.3749807350105,217.77281501949173,1.7748178372114634
63858.22731471662,1.7655693207780132,PPG_2,PPG_3,95511.0,95511.0,918.3155508819473,220.80244649931544,1.7995160279269882
63858.23740368417,1.7756582883303054,PPG_2,PPG_3,95496.0,95496.0,903.2561210288986,222.33222073093674,1.8119870680438794
63858.24749265172,1.7857472558753216,PPG_2,PPG_3,95484.0,95484.0,891.19669117585,221.83688926744924,1.8079490221514707
63858.25758161926,1.7958362234203378,PPG_2,PPG_3,95434.0,95434.0,841.1372613227868,218.76657907836275,1.7829192100733728
63858.267670586814,1.80592519097263,PPG_2,PPG_3,95449.0,95449.0,856.0778314697382,212.5701269144342,1.732404433499544
63858.27775955436,1.816014158517646,PPG_2,PPG_3,95459.0,95459.0,866.0184016166895,202.72427570980733,1.6521389911749538
63858.287848521904,1.8261031260626623,PPG_2,PPG_3,95385.0,95385.0,791.9589717636263,188.76956325547238,1.5383772508864857
63858.29793748946,1.8361920936149545,PPG_2,PPG_3,95355.0,95355.0,761.8995419105777,170.34987882559727,1.3882161233703076
63858.308026457,1.8462810611599707,PPG_2,PPG_3,95370.0,95370.0,776.840112057529,147.2529488790103,1.1999251102345738
63858.31811542455,1.856370028704987,PPG_2,PPG_3,95340.0,95340.0,746.7806822044658,119.45107523556601,0.9732784101102864
63858.3282043921,1.866458996257279,PPG_2,PPG_3,95296.0,95296.0,702.7212523514172,87.13836919659673,0.7098584590040258
63858.33829335965,1.8765479638022953,PPG_2,PPG_3,95273.0,95273.0,679.6618224983686,50.75537221096944,0.41325664312717536
63858.34838232719,1.8866369313473117,PPG_2,PPG_3,95181.0,95181.0,587.6023926453054,10.991579476580398,0.0890938718241514
63858.35847129474,1.8967258988996036,PPG_2,PPG_3,95137.0,95137.0,543.5429627922567,-31.23900456046493,-0.2551786991208896
63858.368560262286,1.90681486644462,PPG_2,PPG_3,95061.0,95061.0,467.4835329392081,-74.84810924385711,-0.610689259258842
63858.37864922983,1.916903833989636,PPG_2,PPG_3,94998.0,94998.0,404.4241030861449,-118.64293278803949,-0.9677138384693493
63858.38873819738,1.926992801534652,PPG_2,PPG_3,94912.0,94912.0,318.36467323309625,-161.4060775997821,-1.3163279564535855
63858.39882716493,1.9370817690869444,PPG_2,PPG_3,94902.0,94902.0,308.3052433800476,-201.975124931975,-1.6470553319877055
63858.408916132474,1.9471707366319608,PPG_2,PPG_3,94826.0,94826.0,232.24581352698442,-239.3118841571809,-1.9514324175127806
63858.41900510002,1.9572597041769768,PPG_2,PPG_3,94814.0,94814.0,220.18638367393578,-272.55491333131965,-2.2224365577762044
63858.42909406757,1.967348671729269,PPG_2,PPG_3,94762.0,94762.0,168.12695382088714,-301.05369016260636,-2.4547645587313744
63858.43918303512,1.9774376392742852,PPG_2,PPG_3,94731.0,94731.0,137.06752396782394,-324.3858499274446,-2.6449732146404417
63858.44927200266,1.9875266068193016,PPG_2,PPG_3,94695.0,94695.0,101.0080941147753,-342.35966698131296,-2.791499537871088
63858.45936097021,1.9976155743715935,PPG_2,PPG_3,94682.0,94682.0,87.94866426172666,-355.00336863508954,-2.89457364337693
63858.46944993776,2.0077045419166097,PPG_2,PPG_3,94652.0,94652.0,57.88923440866347,-362.54226795540956,-2.956032330493964
63858.4795389053,2.017793509461626,PPG_2,PPG_3,94658.0,94658.0,63.82980455561483,-365.36512145901474,-2.979044823814797
63858.489627872856,2.027882477013918,PPG_2,PPG_3,94674.0,94674.0,79.77037470256619,-363.9825787790784,-2.967774046161203
63858.4997168404,2.0379714445589343,PPG_2,PPG_3,94625.0,94625.0,30.710944849502994,-358.98281800931494,-2.9270149486122166
63858.509805807946,2.0480604121039505,PPG_2,PPG_3,94613.0,94613.0,18.651514996454353,-350.990442299445,-2.8618594269366957
63858.5198947755,2.0581493796562427,PPG_2,PPG_3,94644.0,94644.0,49.59208514340571,-340.6317593337986,-2.777413272626839
63858.52998374304,2.068238347201259,PPG_2,PPG_3,94632.0,94632.0,37.53265529034252,-328.50562951710697,-2.6785585211996827
63858.54007271059,2.078327314746275,PPG_2,PPG_3,94629.0,94629.0,34.47322543729388,-315.15940134466376,-2.56975727229165
63858.55016167814,2.0884162822985672,PPG_2,PPG_3,94626.0,94626.0,31.413795584245236,-301.07182714766805,-2.454912415234398
63858.560250645685,2.098505249843583,PPG_2,PPG_3,94611.0,94611.0,16.354365731182043,-286.64414121680653,-2.3372948960485846
63858.57033961323,2.1085942173885996,PPG_2,PPG_3,94636.0,94636.0,41.2949358781334,-272.197675092589,-2.2195242767909407
63858.580428580775,2.118683184933616,PPG_2,PPG_3,94617.0,94617.0,22.23550602508476,-257.97515738241674,-2.1035793319354026
63858.59051754833,2.128772152485908,PPG_2,PPG_3,94651.0,94651.0,56.17607617202157,-244.14397720815137,-1.9908246526815854
63858.60060651587,2.138861120030924,PPG_2,PPG_3,94619.0,94619.0,24.116646318972926,-230.80163591453385,-1.8820550904242772
63858.61069548342,2.1489500875759404,PPG_2,PPG_3,94640.0,94640.0,45.05721646590973,-217.98461226686868,-1.7775680277027597
63858.62078445097,2.159039055128233,PPG_2,PPG_3,94627.0,94627.0,31.99778661286109,-205.68131829213013,-1.677268996932542
63858.630873418515,2.169128022673249,PPG_2,PPG_3,94612.0,94612.0,16.93835675981245,-193.84855959100537,-1.580805868318573
63858.64096238606,2.179216990218265,PPG_2,PPG_3,94586.0,94586.0,-9.121073093250743,-182.42943899714882,-1.487714804237388
63858.65105135361,2.189305957770557,PPG_2,PPG_3,94617.0,94617.0,21.819497053700616,-171.36858541252147,-1.397544407894161
63858.66114032116,2.1993949253155733,PPG_2,PPG_3,94632.0,94632.0,36.760067200651974,-160.6198804240235,-1.309918712320691
63858.6712292887,2.2094838928605895,PPG_2,PPG_3,94620.0,94620.0,24.70063734758878,-150.14549664185537,-1.2245293407081936
63858.681318256255,2.2195728604128817,PPG_2,PPG_3,94617.0,94617.0,21.64120749454014,-139.9105356618818,-1.1410917939528205
63858.6914072238,2.229661827957898,PPG_2,PPG_3,94597.0,94597.0,1.5817776414914988,-129.8789128558417,-1.059311902603064
63858.701496191345,2.239750795502914,PPG_2,PPG_3,94623.0,94623.0,27.522347788428306,-120.01302720732987,-0.9788831352934895
63858.7115851589,2.2498397630552063,PPG_2,PPG_3,94577.0,94577.0,-18.537082064620336,-110.27696109118598,-0.8995126840168637
63858.72167412644,2.2599287306002225,PPG_2,PPG_3,94588.0,94588.0,-7.596511917668977,-100.64232532105072,-0.8209691141767248
63858.73176309399,2.2700176981452387,PPG_2,PPG_3,94593.0,94593.0,-2.65594177073217,-91.09540636161651,-0.7431406301594262
63858.74185206153,2.280106665690255,PPG_2,PPG_3,94565.0,94565.0,-30.71537162378081,-81.6438268335523,-0.6660893731660634
63858.75194102909,2.290195633242547,PPG_2,PPG_3,94567.0,94567.0,-28.774801476829452,-72.32160565814557,-0.5900926725720045
63858.76202999663,2.3002846007875632,PPG_2,PPG_3,94560.0,94560.0,-35.834231329892646,-63.19191736304302,-0.51566554036553
63858.772118964174,2.3103735683325795,PPG_2,PPG_3,94569.0,94569.0,-26.893661182941287,-54.346489588848975,-0.4435557594953643
63858.78220793173,2.3204625358848716,PPG_2,PPG_3,94550.0,94550.0,-45.95309103598993,-45.901411797473585,-0.3747097155827997
63858.79229689927,2.330551503429888,PPG_2,PPG_3,94549.0,94549.0,-47.01252088905312,-37.99086248480237,-0.310221259844848
63858.80238586682,2.340640470974904,PPG_2,PPG_3,94503.0,94503.0,-93.07195074210176,-30.76037313374557,-0.25127679542788783
63858.81247483437,2.350729438527196,PPG_2,PPG_3,94539.0,94539.0,-57.131380595150404,-24.359252312424843,-0.19909351706847012
63858.822563801914,2.3608184060722124,PPG_2,PPG_3,94528.0,94528.0,-68.1908104482136,-18.930419724052577,-0.15483653613754983
63858.83265276946,2.3709073736172286,PPG_2,PPG_3,94491.0,94491.0,-105.25024030126224,-14.597728556931312,-0.11951552978094275
63858.84274173701,2.3809963411695207,PPG_2,PPG_3,94490.0,94490.0,-106.30967015431088,-11.453472730854145,-0.09388289737398998
63858.85283070456,2.391085308714537,PPG_2,PPG_3,94478.0,94478.0,-118.36910000737407,-9.54810401842096,-0.07834993233963973
63858.8629196721,2.401174276259553,PPG_2,PPG_3,94449.0,94449.0,-147.4285298604227,-8.881945205078422,-0.07291926609249637
63858.87300863965,2.4112632438118453,PPG_2,PPG_3,94438.0,94438.0,-158.48795971347135,-9.398292909358434,-0.0771286407840259
63858.8830976072,2.4213522113568615,PPG_2,PPG_3,94422.0,94422.0,-174.54738956653455,-10.977721276573442,-0.09000447181983753
63858.89318657474,2.4314411789018777,PPG_2,PPG_3,94430.0,94430.0,-166.6068194195832,-13.43369435565822,-0.11002607903622406
63858.903275542296,2.44153014645417,PPG_2,PPG_3,94403.0,94403.0,-193.66624927263183,-16.51126383539041,-0.13511507037292836
63858.91336450984,2.451619113999186,PPG_2,PPG_3,94385.0,94385.0,-211.72567912569502,-19.893068566631786,-0.16268425123571878
63858.923453477386,2.4617080815442023,PPG_2,PPG_3,94341.0,94341.0,-255.78510897874366,-23.217033808260144,-0.18978191245829404
63858.93354244493,2.4717970490892185,PPG_2,PPG_3,94327.0,94327.0,-269.8445388317923,-26.10693889763249,-0.2133410243576848
63858.94363141248,2.4818860166415107,PPG_2,PPG_3,94240.0,94240.0,-356.9039686848555,-28.21224966069212,-0.23050395888875824
63858.95372038003,2.491974984186527,PPG_2,PPG_3,94268.0,94268.0,-328.96339853790414,-29.249221814789678,-0.2389575731976775
63858.96380934757,2.502063951731543,PPG_2,PPG_3,94264.0,94264.0,-333.0228283909528,-29.03319678934869,-0.23719649191990505
63858.973898315126,2.512152919283835,PPG_2,PPG_3,94240.0,94240.0,-357.082258244016,-27.495247160391703,-0.22465880425069046
63858.98398728267,2.5222418868288514,PPG_2,PPG_3,94224.0,94224.0,-373.1416880970646,-24.683393532634827,-0.2017359842229159
63858.994076250216,2.5323308543738676,PPG_2,PPG_3,94217.0,94217.0,-380.20111795011326,-20.752626580849377,-0.16969154829728714
63859.00416521777,2.54241982192616,PPG_2,PPG_3,94209.0,94209.0,-388.26054780317645,-15.94708897820245,-0.1305157987081967
63859.01425418531,2.552508789471176,PPG_2,PPG_3,94167.0,94167.0,-430.3199776562251,-10.57644609825388,-0.08673319247462838
63859.02434315286,2.562597757016192,PPG_2,PPG_3,94174.0,94174.0,-423.37940750927373,-4.988006305676119,-0.04117506016761123
63859.03443212041,2.5726867245684844,PPG_2,PPG_3,94162.0,94162.0,-435.4388373623369,0.4648664820600919,0.003277901506407376
63859.044521087955,2.582775692113501,PPG_2,PPG_3,94175.0,94175.0,-422.49826721538557,5.457436816234035,0.04397838111763518
63859.0546100555,2.5928646596585168,PPG_2,PPG_3,94137.0,94137.0,-460.5576970684342,9.728109580298694,0.07879380045589855
63859.06469902305,2.602953627210809,PPG_2,PPG_3,94124.0,94124.0,-473.6171269214974,13.107188577857222,0.10634076056649945
63859.0747879906,2.613042594755825,PPG_2,PPG_3,94141.0,94141.0,-456.67655677454604,15.53521684445658,0.12613455581536753
63859.08487695814,2.6231315623008413,PPG_2,PPG_3,94057.0,94057.0,-540.7359866275947,17.06853928040796,0.13863452163752216
63859.09496592569,2.6332205298458575,PPG_2,PPG_3,94081.0,94081.0,-516.7954164806579,17.87141569169771,0.1451797383937806
63859.10505489324,2.6433094973981497,PPG_2,PPG_3,94041.0,94041.0,-556.8548463337065,18.19618492161213,0.14782732521494313
63859.115143860785,2.653398464943166,PPG_2,PPG_3,94017.0,94017.0,-580.9142761867552,18.354944478280107,0.14912156639068047
63859.12523282833,2.663487432488182,PPG_2,PPG_3,93994.0,93994.0,-603.9737060398184,18.686269060027243,0.1518225938137281
63859.13532179588,2.6735764000404743,PPG_2,PPG_3,93960.0,93960.0,-638.033135892867,19.5204007412162,0.15862261008008433
63859.14541076343,2.6836653675854905,PPG_2,PPG_3,93956.0,93956.0,-642.0925657459156,21.147243043812928,0.17188496945323004
63859.15549973097,2.6937543351305067,PPG_2,PPG_3,93952.0,93952.0,-646.1519955989788,23.791360273408902,0.19344036721222285
63859.165588698525,2.703843302682799,PPG_2,PPG_3,93915.0,93915.0,-683.2114254520275,27.595865021791326,0.22445548719610156
63859.17567766607,2.713932270227815,PPG_2,PPG_3,93896.0,93896.0,-702.2708553050761,32.61454068420352,0.26536878291378113
63859.185766633615,2.7240212377728312,PPG_2,PPG_3,93889.0,93889.0,-709.3302851581393,38.81153156437622,0.315887951215326
63859.19585560117,2.7341102053251234,PPG_2,PPG_3,93914.0,93914.0,-684.389715011188,46.06916041709582,0.3750536625372171
63859.20594456871,2.7441991728701396,PPG_2,PPG_3,93874.0,93874.0,-724.4491448642366,54.2028594870117,0.4413612818596693
63859.21603353626,2.754288140415156,PPG_2,PPG_3,93898.0,93898.0,-700.5085747172998,62.97834628585302,0.5129008892418727
63859.22612250381,2.764377107967448,PPG_2,PPG_3,93830.0,93830.0,-768.5680045703484,72.12476361872324,0.5874644000699797
63859.236211471354,2.774466075512464,PPG_2,PPG_3,93804.0,93804.0,-794.6274344234116,81.34066877477515,0.6625943901945879
63859.2463004389,2.7845550430574804,PPG_2,PPG_3,93805.0,93805.0,-793.6868642764603,90.29570664603511,0.7355977355460147
63859.25638940645,2.7946440106097725,PPG_2,PPG_3,93823.0,93823.0,-775.7462941295089,98.63499796163289,0.8035813859393416
63859.266478374,2.8047329781547887,PPG_2,PPG_3,93783.0,93783.0,-815.8057239825721,105.99111858785894,0.8635500228388722
63859.27656734154,2.814821945699805,PPG_2,PPG_3,93762.0,93762.0,-836.8651538356207,112.00258020529641,0.9125567177109385
63859.28665630909,2.824910913244821,PPG_2,PPG_3,93723.0,93723.0,-875.9245836886694,116.33580230184226,0.9478820523154768
63859.29674527664,2.8349998807971133,PPG_2,PPG_3,93734.0,93734.0,-864.9840135417326,118.71091533206959,0.9672444714684808
63859.306834244184,2.8450888483421295,PPG_2,PPG_3,93718.0,93718.0,-881.0434433947812,118.93382852050648,0.9690617064944848
63859.31692321173,2.8551778158871457,PPG_2,PPG_3,93698.0,93698.0,-901.1028732478298,116.93403401305278,0.952758962591182
63859.32701217928,2.865266783439438,PPG_2,PPG_3,93735.0,93735.0,-864.162303100893,112.80243469583776,0.9190772991359799
63859.337101146826,2.875355750984454,PPG_2,PPG_3,93693.0,93693.0,-906.2217329539417,106.81928932927156,0.8703014442749925
63859.34719011437,2.8854447185294703,PPG_2,PPG_3,93615.0,93615.0,-984.2811628069903,99.46029361778034,0.8103093690778749
63859.35727908192,2.8955336860817624,PPG_2,PPG_3,93583.0,93583.0,-1016.3405926600535,91.37212702643723,0.7443729400625706
63859.36736804947,2.905622653626778,PPG_2,PPG_3,93512.0,93512.0,-1087.4000225131022,83.31884877890786,0.6787209281372654
63859.37745701701,2.915711621171795,PPG_2,PPG_3,93492.0,93492.0,-1107.4594523661508,76.11061827657419,0.6199579225196782
63859.387545984566,2.925800588724087,PPG_2,PPG_3,93453.0,93453.0,-1146.518882219214,70.52966763044486,0.5744608433039403
63859.39763495211,2.935889556269103,PPG_2,PPG_3,93456.0,93456.0,-1143.5783120722626,67.26586059955675,0.5478536044221223
63859.407723919656,2.9459785238141194,PPG_2,PPG_3,93421.0,93421.0,-1178.6377419253113,66.86876134136554,0.5446163680529087
63859.41781288721,2.9560674913664116,PPG_2,PPG_3,93398.0,93398.0,-1201.6971717783745,69.7177443881899,0.5678418748857922
63859.42790185475,2.966156458911428,PPG_2,PPG_3,93399.0,93399.0,-1200.756601631423,76.00893012909818,0.6191289394316041
63859.4379908223,2.976245426456444,PPG_2,PPG_3,93393.0,93393.0,-1206.8160314844718,85.75735592935249,0.6986001494432033
63859.44807978985,2.986334394008736,PPG_2,PPG_3,93370.0,93370.0,-1229.875461337535,98.81203733621632,0.805024648021459
63859.458168757395,2.9964233615537523,PPG_2,PPG_3,93357.0,93357.0,-1242.9348911905836,114.88042737064787,0.9360175308868427
63859.46825772494,3.0065123290987685,PPG_2,PPG_3,93367.0,93367.0,-1232.9943210436322,133.55955190155714,1.088293668475127
63859.478346692486,3.0166012966437847,PPG_2,PPG_3,93380.0,93380.0,-1220.0537508966954,154.37262975514702,1.2579662407428729
63859.48843566004,3.026690264196077,PPG_2,PPG_3,93396.0,93396.0,-1204.113180749744,176.80884677403878,1.4408709836325042
63859.49852462758,3.036779231741093,PPG_2,PPG_3,93351.0,93351.0,-1249.1726106027927,200.36085674026722,1.6328719044552888
63859.50861359513,3.0468681992861093,PPG_2,PPG_3,93362.0,93362.0,-1238.232040455856,224.5543208890395,1.8301020941978237
63859.51870256268,3.0569571668384015,PPG_2,PPG_3,93391.0,93391.0,-1209.2914703089045,248.96787109936056,2.0291264716355157
63859.528791530225,3.0670461343834177,PPG_2,PPG_3,93365.0,93365.0,-1235.3509001619532,273.24515994584254,2.227040017880151
63859.53888049777,3.077135101928434,PPG_2,PPG_3,93391.0,93391.0,-1209.4103300150164,297.09953566012774,2.4215058876451026
63859.54896946532,3.087224069480726,PPG_2,PPG_3,93338.0,93338.0,-1262.469759868065,320.31024594928846,2.610724461977397
63859.55905843287,3.0973130370257422,PPG_2,PPG_3,93364.0,93364.0,-1236.5291897211137,342.71095030133984,2.793339698164883
63859.56914740041,3.1074020045707584,PPG_2,PPG_3,93364.0,93364.0,-1236.5886195741768,364.17464864708217,2.968316265029207
63859.579236367965,3.1174909721230506,PPG_2,PPG_3,93360.0,93360.0,-1240.6480494272255,384.599732298327,3.1348258272510603
63859.58932533551,3.127579939668067,PPG_2,PPG_3,93387.0,93387.0,-1213.7074792802741,403.89898278901126,3.2921573616175235
63859.599414303055,3.137668907213083,PPG_2,PPG_3,93359.0,93359.0,-1241.7669091333373,421.98990766320634,3.4396383723406823
63859.60950327061,3.147757874765375,PPG_2,PPG_3,93346.0,93346.0,-1254.826338986386,438.78351874951125,3.5765434091988424
63859.61959223815,3.1578468423103914,PPG_2,PPG_3,93319.0,93319.0,-1281.8857688394346,454.1705067257747,3.7019813596908784
63859.6296812057,3.1679358098554076,PPG_2,PPG_3,93315.0,93315.0,-1285.9451986924978,468.007884109286,3.8147865598931605
63859.63977017325,3.1780247774076997,PPG_2,PPG_3,93328.0,93328.0,-1273.0046285455464,480.11199226750136,3.913461786145542
63859.649859140794,3.188113744952716,PPG_2,PPG_3,93339.0,93339.0,-1262.064058398595,490.2619044321345,3.9962059971353616
63859.65994810834,3.198202712497732,PPG_2,PPG_3,93279.0,93279.0,-1322.1234882516583,498.21187242541265,4.061015802218232
63859.670037075884,3.2082916800427483,PPG_2,PPG_3,93307.0,93307.0,-1294.182918104707,503.7078953046301,4.105820532480573
63859.68012604344,3.2183806475950405,PPG_2,PPG_3,93277.0,93277.0,-1324.2423479577556,506.50450666500336,4.128619094350454
63859.69021501098,3.2284696151400567,PPG_2,PPG_3,93268.0,93268.0,-1333.3017778108187,506.37965077066497,4.127601242934906
63859.70030397853,3.238558582685073,PPG_2,PPG_3,93210.0,93210.0,-1391.3612076638674,503.14517153496723,4.101233090385437
63859.71039294608,3.248647550237365,PPG_2,PPG_3,93179.0,93179.0,-1422.420637516916,496.65121049495053,4.048292959107539
63859.720481913624,3.2587365177823813,PPG_2,PPG_3,93160.0,93160.0,-1441.4800673699792,486.7864868308921,3.9678736645387347
63859.73057088117,3.2688254853273975,PPG_2,PPG_3,93124.0,93124.0,-1477.5394972230279,473.4791071708666,3.859389116845057
63859.74065984872,3.2789144528796896,PPG_2,PPG_3,93113.0,93113.0,-1488.5989270760765,456.701001956573,3.7226104871049555
63859.75074881627,3.289003420424706,PPG_2,PPG_3,93015.0,93015.0,-1586.6583569291397,436.475501575205,3.5577279695239685
63859.76083778381,3.299092387969722,PPG_2,PPG_3,93022.0,93022.0,-1579.7177867821883,412.8863321596904,3.3654241170834394
63859.77092675136,3.309181355522014,PPG_2,PPG_3,92971.0,92971.0,-1630.777216635237,386.0877950270698,3.1469568264553898
63859.78101571891,3.3192703230670304,PPG_2,PPG_3,92946.0,92946.0,-1655.8366464883002,356.31576078805017,2.904248964287538
63859.791104686454,3.3293592906120466,PPG_2,PPG_3,92862.0,92862.0,-1739.8960763413488,323.8959080242304,2.6399555306265428
63859.801193654006,3.3394482581643388,PPG_2,PPG_3,92835.0,92835.0,-1766.9555061943975,289.24399237384847,2.357465852561405
63859.81128262155,3.349537225709355,PPG_2,PPG_3,92758.0,92758.0,-1844.0149360474607,252.8553335680828,2.060817880340291
63859.821371589096,3.359626193254371,PPG_2,PPG_3,92682.0,92682.0,-1920.0743659005093,215.28413848207214,1.7545296245493684
63859.83146055664,3.3697151607993874,PPG_2,PPG_3,92640.0,92640.0,-1962.1337957535725,177.1158631480693,1.4433738454521985
63859.84154952419,3.3798041283516795,PPG_2,PPG_3,92600.0,92600.0,-2002.1932256066211,138.9375855205749,1.1321365255623967
63859.85163849174,3.3898930958966957,PPG_2,PPG_3,92548.0,92548.0,-2054.2526554596698,101.3104044652769,0.8253918604173793
63859.86172745928,3.399982063441712,PPG_2,PPG_3,92466.0,92466.0,-2136.312085312733,64.74425847875095,0.5272969755043514
63859.87181642683,3.410071030994004,PPG_2,PPG_3,92430.0,92430.0,-2172.3715151657816,29.673916870079033,0.24139620134155426
63859.88190539438,3.4201599985390203,PPG_2,PPG_3,92358.0,92358.0,-2244.4309450188302,-3.562760277409965,-0.02955615586948523
63859.891994361926,3.4302489660840365,PPG_2,PPG_3,92319.0,92319.0,-2283.4903748718934,-34.74050435320922,-0.2837236592084447
63859.90208332948,3.4403379336363287,PPG_2,PPG_3,92281.0,92281.0,-2321.549804724942,-63.75225180703429,-0.5202335041770821
63859.91217229702,3.450426901181345,PPG_2,PPG_3,92247.0,92247.0,-2355.6092345779907,-90.6024562882004,-0.7391219978579254
63859.92226126457,3.460515868726361,PPG_2,PPG_3,92229.0,92229.0,-2373.668664431054,-115.38885509972496,-0.9411859152270802
63859.93235023212,3.4706048362786532,PPG_2,PPG_3,92188.0,92188.0,-2414.7280942841026,-138.2768314072085,-1.1277734945083504
63859.942439199665,3.4806938038236694,PPG_2,PPG_3,92139.0,92139.0,-2463.787524137151,-159.47255127984036,-1.3005654447020947
63859.95252816721,3.4907827713686856,PPG_2,PPG_3,92120.0,92120.0,-2482.8469539902144,-179.20020653119386,-1.4613894244543788
63859.96261713476,3.500871738920978,PPG_2,PPG_3,92067.0,92067.0,-2535.906383843263,-197.6856640226273,-1.612086747751836
63859.97270610231,3.510960706465994,PPG_2,PPG_3,92025.0,92025.0,-2577.9658136963117,-215.1459683290806,-1.754426807453412
63859.98279506985,3.52104967401101,PPG_2,PPG_3,92026.0,92026.0,-2577.025243549375,-231.78237981985313,-1.8900503202659191
63859.992884037405,3.5311386415633024,PPG_2,PPG_3,92014.0,92014.0,-2589.0846734024235,-247.7744679738042,-2.0204211742117426
63860.00297300495,3.5412276091083186,PPG_2,PPG_3,91955.0,91955.0,-2648.144103255472,-263.2754580869509,-2.14678849401403
63860.013061972495,3.5513165766533348,PPG_2,PPG_3,91914.0,91914.0,-2689.2035331085353,-278.41171941254004,-2.270182468307291
63860.02315094004,3.561405544198351,PPG_2,PPG_3,91891.0,91891.0,-2712.262962961584,-293.28703739491317,-2.391449177783159
63860.03323990759,3.571494511750643,PPG_2,PPG_3,91876.0,91876.0,-2727.3223928146326,-307.9873190129787,-2.5112889541364303
63860.04332887514,3.5815834792956593,PPG_2,PPG_3,91853.0,91853.0,-2750.381822667696,-322.5803056473225,-2.6302540392975797
63860.05341784268,3.5916724468406755,PPG_2,PPG_3,91832.0,91832.0,-2771.4412525207445,-337.1083699297502,-2.7486898638407284
63860.063506810235,3.6017614143929677,PPG_2,PPG_3,91836.0,91836.0,-2767.500682373793,-351.5761259748402,-2.8666340429948574
63860.07359577778,3.611850381937984,PPG_2,PPG_3,91816.0,91816.0,-2787.5601122268563,-365.93671594848854,-2.9837045818767867
63860.083684745325,3.621939349483,PPG_2,PPG_3,91786.0,91786.0,-2817.619542079905,-380.08226196226394,-3.099022037333047
63860.09377371288,3.632028317035292,PPG_2,PPG_3,91739.0,91739.0,-2864.6789719329536,-393.8439298178905,-3.2112100375982635
63860.10386268042,3.642117284580309,PPG_2,PPG_3,91711.0,91711.0,-2892.7384017860168,-407.0032668620446,-3.3184877108634288
63860.11395164797,3.6522062521253247,PPG_2,PPG_3,91721.0,91721.0,-2882.7978316390654,-419.3109773682417,-3.4188227461236287
63860.12404061552,3.662295219677617,PPG_2,PPG_3,91697.0,91697.0,-2906.857261492114,-430.50726670455686,-3.510097243096639
63860.134129583064,3.672384187222633,PPG_2,PPG_3,91662.0,91662.0,-2941.9166913451772,-440.3406797905073,-3.590261287271237
63860.14421855061,3.6824731547676497,PPG_2,PPG_3,91679.0,91679.0,-2924.976121198226,-448.58529342824215,-3.657473105393895
63860.15430751816,3.6925621223199414,PPG_2,PPG_3,91666.0,91666.0,-2938.0355510512745,-455.05622563744225,-3.7102255008170357
63860.16439648571,3.7026510898649576,PPG_2,PPG_3,91611.0,91611.0,-2993.0949809043377,-459.62311901320066,-3.7474557726580557
63860.17448545325,3.712740057409974,PPG_2,PPG_3,91634.0,91634.0,-2970.1544107573864,-462.2209158650693,-3.7686335569908795
63860.1845744208,3.72282902495499,PPG_2,PPG_3,91635.0,91635.0,-2969.213840610435,-462.85517047274254,-3.773804133467536
63860.19466338835,3.732917992507282,PPG_2,PPG_3,91633.0,91633.0,-2971.273270463498,-461.5984695913039,-3.763559244526804
63860.204752355894,3.7430069600522984,PPG_2,PPG_3,91636.0,91636.0,-2968.332700316547,-458.5776454687858,-3.738932853233712
63860.21484132344,3.7530959275973146,PPG_2,PPG_3,91664.0,91664.0,-2940.3921301695955,-453.9545951819453,-3.7012447784852633
63860.22493029099,3.7631848951496063,PPG_2,PPG_3,91650.0,91650.0,-2954.4515600226587,-447.90443612432125,-3.6519226139713297
63860.235019258536,3.773273862694623,PPG_2,PPG_3,91685.0,91685.0,-2919.5109898757073,-440.59510399178896,-3.5923354066774245
63860.24510822608,3.783362830239639,PPG_2,PPG_3,91677.0,91677.0,-2927.570419728756,-432.17259040848575,-3.523673310917638
63860.255197193634,3.7934517977919313,PPG_2,PPG_3,91684.0,91684.0,-2920.629849581819,-422.7550773156198,-3.446899770643001
63860.26528616118,3.803540765336947,PPG_2,PPG_3,91694.0,91694.0,-2910.689279434868,-412.4373102280716,-3.3627871711457655
63860.27537512872,3.813629732881964,PPG_2,PPG_3,91695.0,91695.0,-2909.7487092879164,-401.3040200059586,-3.2720262561538753
63860.28546409627,3.823718700434256,PPG_2,PPG_3,91708.0,91708.0,-2896.8081391409796,-389.4490482921626,-3.175382042405634
63860.29555306382,3.833807667979272,PPG_2,PPG_3,91714.0,91714.0,-2890.8675689940283,-376.9957595519322,-3.0738602228741034
63860.305642031366,3.843896635524288,PPG_2,PPG_3,91727.0,91727.0,-2877.926998847077,-364.11399144863105,-2.9688453497823413
63860.31573099892,3.853985603076581,PPG_2,PPG_3,91765.0,91765.0,-2839.98642870014,-351.02915871806545,-2.862175051294733
63860.32581996646,3.8640745706215966,PPG_2,PPG_3,91780.0,91780.0,-2825.0458585531887,-338.02086587898043,-2.7561287220422357
63860.33590893401,3.874163538166613,PPG_2,PPG_3,91792.0,91792.0,-2813.1052884062374,-325.41134205835203,-2.6533332413945523
63860.34599790156,3.884252505718905,PPG_2,PPG_3,91805.0,91805.0,-2800.1647182593006,-313.5460326044869,-2.556604752222882
63860.356086869106,3.894341473263921,PPG_2,PPG_3,91828.0,91828.0,-2777.224148112349,-302.76816816621937,-2.4687413427042126
63860.36617583665,3.9044304408089374,PPG_2,PPG_3,91828.0,91828.0,-2777.283577965398,-293.38768033179133,-2.392269640095404
63860.37626480419,3.9145194083539536,PPG_2,PPG_3,92067.0,92067.0,-2538.343007818461,-285.6462870760978,-2.3291601799824133
63860.38635377175,3.924608375906246,PPG_2,PPG_3,91853.0,91853.0,-2752.4024376715097,-279.6882511200377,-2.28058902229782
63860.39644273929,3.934697343451262,PPG_2,PPG_3,91852.0,91852.0,-2753.4618675245583,-275.55330384676154,-2.246880065603207
63860.40653170684,3.944786310996278,PPG_2,PPG_3,91904.0,91904.0,-2701.5212973776215,-273.1991157829523,-2.227688231161496
63860.41662067439,3.9548752785485703,PPG_2,PPG_3,91875.0,91875.0,-2730.58072723067,-272.54067438285443,-2.2223204788843907
63860.426709641935,3.9649642460935866,PPG_2,PPG_3,91891.0,91891.0,-2714.640157083719,-273.48696113732575,-2.2300348068114517
63860.43679860948,3.975053213638603,PPG_2,PPG_3,91904.0,91904.0,-2701.699586936782,-275.9634891747103,-2.2502239823554113
63860.44688757703,3.985142181190895,PPG_2,PPG_3,91935.0,91935.0,-2670.7590167898306,-279.91669810305274,-2.2824513699768914
63860.45697654458,3.995231148735911,PPG_2,PPG_3,91931.0,91931.0,-2674.818446642894,-285.3000289948237,-2.326337411541746
63860.46706551212,4.005320116280927,PPG_2,PPG_3,91958.0,91958.0,-2647.8778764959425,-292.04555085219306,-2.3813283193199895
63860.477154479675,4.0154090838332195,PPG_2,PPG_3,91960.0,91960.0,-2645.937306348991,-300.02764634826997,-2.44640003453834
63860.48724344722,4.025498051378236,PPG_2,PPG_3,91998.0,91998.0,-2607.9967362020543,-309.0258318322293,-2.5197551282705404
63860.497332414765,4.035587018923252,PPG_2,PPG_3,91990.0,91990.0,-2616.056166055103,-318.69434345317575,-2.598574861145542
63860.50742138232,4.045675986475544,PPG_2,PPG_3,92005.0,92005.0,-2601.1155959081516,-328.54676164190016,-2.6788938389006782
63860.51751034986,4.05576495402056,PPG_2,PPG_3,91972.0,91972.0,-2634.175025761215,-337.96256405159295,-2.7556534333275953
63860.52759931741,4.0658539215655765,PPG_2,PPG_3,91967.0,91967.0,-2639.2344556142634,-346.2178111070296,-2.822951937299706
63860.53768828496,4.075942889117869,PPG_2,PPG_3,91982.0,91982.0,-2624.293885467312,-352.53570362600914,-2.8744567210970486
63860.547777252505,4.086031856662885,PPG_2,PPG_3,91970.0,91970.0,-2636.3533153203753,-356.14818593557186,-2.903906433919293
63860.55786622005,4.096120824207901,PPG_2,PPG_3,91983.0,91983.0,-2623.412745173424,-356.3591232578635,-2.9056260391748086
63860.567955187595,4.106209791752917,PPG_2,PPG_3,92035.0,92035.0,-2571.4721750264725,-352.6011646282296,-2.8749903729052098
63860.57804415515,4.116298759305209,PPG_2,PPG_3,92030.0,92030.0,-2576.5316048795357,-344.4807954470357,-2.8087914216290417
63860.58813312269,4.126387726850226,PPG_2,PPG_3,92069.0,92069.0,-2537.5910347325844,-331.8092323106675,-2.705490183478438
63860.59822209024,4.136476694395242,PPG_2,PPG_3,92079.0,92079.0,-2527.650464585633,-314.61854870887987,-2.5653481282632282
63860.60831105779,4.146565661947534,PPG_2,PPG_3,92147.0,92147.0,-2459.709894438696,-293.1614858552708,-2.3904256553213132
63860.618400025334,4.15665462949255,PPG_2,PPG_3,92188.0,92188.0,-2418.769324291745,-267.8929557873401,-2.1844313029141227
63860.62848899288,4.166743597037566,PPG_2,PPG_3,92248.0,92248.0,-2358.8287541447935,-239.433869827314,-1.9524268702591203
63860.63857796043,4.1768325645898585,PPG_2,PPG_3,92290.0,92290.0,-2316.8881839978567,-208.52172031271834,-1.7004245494413017
63860.64866692798,4.186921532134875,PPG_2,PPG_3,92340.0,92340.0,-2266.9476138509053,-175.95407608943162,-1.4349262888314351
63860.65875589552,4.197010499679891,PPG_2,PPG_3,92392.0,92392.0,-2215.007043703954,-142.53018255488607,-1.1624477043998944
63860.668844863074,4.207099467232183,PPG_2,PPG_3,92488.0,92488.0,-2119.066473557017,-108.99436738221887,-0.8890567113199979
63860.67893383062,4.217188434777199,PPG_2,PPG_3,92508.0,92508.0,-2099.125903410066,-75.98548041340806,-0.6199613473814354
63860.68902279816,4.2272774023222155,PPG_2,PPG_3,92586.0,92586.0,-2021.1853332631144,-43.99858160952826,-0.35919744513204965
63860.69911176571,4.237366369874508,PPG_2,PPG_3,92626.0,92626.0,-1981.2447631161776,-13.365211896674534,-0.10946779567935006
63860.70920073326,4.247455337419524,PPG_2,PPG_3,92662.0,92662.0,-1945.3041929692263,15.744020221475912,0.12783676470183222
63860.719289700806,4.25754430496454,PPG_2,PPG_3,92661.0,92661.0,-1946.363622822275,43.29458705756852,0.3524347590685329
63860.72937866836,4.267633272516832,PPG_2,PPG_3,92707.0,92707.0,-1900.423052675338,69.34625526435056,0.5648134176986953
63860.7394676359,4.277722240061848,PPG_2,PPG_3,92782.0,92782.0,-1825.4824825283868,94.00532358760803,0.7658393102440174
63860.74955660345,4.287811207606865,PPG_2,PPG_3,92821.0,92821.0,-1786.5419123814354,117.38248763173817,0.9564148504690051
63860.75964557099,4.297900175151881,PPG_2,PPG_3,92838.0,92838.0,-1769.6013422344986,139.56227857364001,1.1372291542421604
63860.769734538546,4.307989142704173,PPG_2,PPG_3,92916.0,92916.0,-1691.6607720875472,160.58473463894472,1.3086086215692714
63860.77982350609,4.318078110249189,PPG_2,PPG_3,92957.0,92957.0,-1650.7202019405959,180.43901072985153,1.4704648409403587
63860.78991247363,4.328167077794205,PPG_2,PPG_3,92993.0,92993.0,-1614.779631793659,199.0680174201606,1.6223324073893353
63860.80000144119,4.338256045346498,PPG_2,PPG_3,93032.0,93032.0,-1575.8390616467077,216.38095858422264,1.7634711318725993
63860.81009040873,4.348345012891514,PPG_2,PPG_3,93110.0,93110.0,-1497.8984914997563,232.2697436101157,1.892999837070208
63860.82017937628,4.35843398043653,PPG_2,PPG_3,93076.0,93076.0,-1531.9579213528195,246.62571463770772,2.0100327213359357
63860.83026834383,4.368522947988822,PPG_2,PPG_3,93143.0,93143.0,-1465.0173512058682,259.3538924497298,2.1137954941866863
63860.840357311376,4.378611915533838,PPG_2,PPG_3,93159.0,93159.0,-1449.0767810589168,270.38459080054247,2.203720058744501
63860.85044627892,4.3887008830788545,PPG_2,PPG_3,93237.0,93237.0,-1371.13621091198,279.6848576899992,2.279537783398738
63860.86053524647,4.398789850631147,PPG_2,PPG_3,93238.0,93238.0,-1370.1956407650287,287.27039868511645,2.341376703222986
63860.87062421402,4.408878818176163,PPG_2,PPG_3,93269.0,93269.0,-1339.2550706180773,293.2145183853836,2.3898344126740536
63860.88071318156,4.418967785721179,PPG_2,PPG_3,93302.0,93302.0,-1306.3145004711405,297.6498616283763,2.425992260265016
63860.890802149115,4.429056753273471,PPG_2,PPG_3,93306.0,93306.0,-1302.3739303241891,300.7615443234343,2.451359349681849
63860.90089111666,4.4391457208184875,PPG_2,PPG_3,93329.0,93329.0,-1279.4333601772378,302.7729873642346,2.4677570548700696
63860.910980084205,4.449234688363504,PPG_2,PPG_3,93347.0,93347.0,-1261.492790030301,303.92740586825204,2.4771681164356867
63860.92106905175,4.45932365590852,PPG_2,PPG_3,93403.0,93403.0,-1205.5522198833496,304.468757067605,2.4815813248588032
63860.9311580193,4.469412623460812,PPG_2,PPG_3,93373.0,93373.0,-1235.6116497363982,304.62488266430154,2.4828540934408787
63860.94124698685,4.479501591005828,PPG_2,PPG_3,93424.0,93424.0,-1184.6710795894614,304.59367123519553,2.4825996513301143
63860.95133595439,4.489590558550844,PPG_2,PPG_3,93468.0,93468.0,-1140.73050944251,304.5329090156002,2.482104304982594
63860.961424921945,4.499679526103137,PPG_2,PPG_3,93441.0,93441.0,-1167.7899392955587,304.5545809197623,2.482280978886905
63860.97151388949,4.509768493648153,PPG_2,PPG_3,93474.0,93474.0,-1134.849369148622,304.7233075965175,2.483656474114311
63860.981602857035,4.519857461193169,PPG_2,PPG_3,93528.0,93528.0,-1080.9087990016706,305.0591159900034,2.4863940545102845
63860.99169182459,4.529946428745461,PPG_2,PPG_3,93531.0,93531.0,-1077.9682288547192,305.54585031063294,2.4903620146924905
63861.00178079213,4.540035396290477,PPG_2,PPG_3,93563.0,93563.0,-1046.0276587077824,306.1444125800457,2.4952416197479326
63861.01186975968,4.550124363835494,PPG_2,PPG_3,93583.0,93583.0,-1026.087088560831,306.80731818567153,2.5006457651640246
63861.02195872723,4.560213331387786,PPG_2,PPG_3,93614.0,93614.0,-995.1465184138797,307.491391467637,2.5062224739135526
63861.032047694775,4.570302298932802,PPG_2,PPG_3,93608.0,93608.0,-1001.2059482669429,308.1668629348054,2.5117290588662513
63861.04213666232,4.580391266477818,PPG_2,PPG_3,93651.0,93651.0,-958.2653781199915,308.82217062051404,2.5170712644469524
63861.05222562987,4.59048023403011,PPG_2,PPG_3,93671.0,93671.0,-938.3248079730547,309.465014465398,2.5223118621853176
63861.06231459742,4.6005692015751265,PPG_2,PPG_3,93690.0,93690.0,-919.3842378261033,310.12053110387507,2.527655771192775
63861.07240356496,4.610658169120143,PPG_2,PPG_3,93702.0,93702.0,-907.443667679152,310.82645592505025,2.5334106182691665
63861.082492532514,4.620747136672435,PPG_2,PPG_3,93736.0,93736.0,-873.5030975322152,311.6249550289094,2.539920150297939
63861.09258150006,4.630836104217451,PPG_2,PPG_3,93734.0,93734.0,-875.5625273852638,312.5519392917682,2.547477120268329
63861.1026704676,4.640925071762467,PPG_2,PPG_3,93756.0,93756.0,-853.6219572383125,313.62568145890884,2.5562304914291287
63861.11275943515,4.6510140393074835,PPG_2,PPG_3,93816.0,93816.0,-793.6813870913757,314.8370120718843,2.5661055124335195
63861.1228484027,4.661103006859776,PPG_2,PPG_3,93802.0,93802.0,-807.7408169444243,316.1425481779506,2.5767485163593644
63861.13293737025,4.671191974404792,PPG_2,PPG_3,93799.0,93799.0,-810.8002467974729,317.46045391751926,2.587492360129712
63861.14302633779,4.681280941949808,PPG_2,PPG_3,93841.0,93841.0,-768.8596766505361,318.66871744797044,2.597342377634624
63861.153115305344,4.6913699095021,PPG_2,PPG_3,93879.0,93879.0,-730.9191065035848,319.6090053222618,2.6050078014333278
63861.16320427289,4.701458877047116,PPG_2,PPG_3,93887.0,93887.0,-722.9785363566334,320.098895429492,2.6090014882492323
63861.173293240434,4.711547844592133,PPG_2,PPG_3,93921.0,93921.0,-689.0379662096966,319.9507336347749,2.607793642249794
63861.183382207986,4.721636812144425,PPG_2,PPG_3,93939.0,93939.0,-671.0973960627452,318.99227953179,2.599980123547851
63861.19347117553,4.731725779689441,PPG_2,PPG_3,93972.0,93972.0,-638.1568259157939,317.0844392862411,2.584427010057605
63861.20356014307,4.741814747234457,PPG_2,PPG_3,93974.0,93974.0,-636.2162557688571,314.13184783886686,2.5603568658311793
63861.21364911063,4.751903714786749,PPG_2,PPG_3,93968.0,93968.0,-642.2756856219057,310.0826056043086,2.527346594572611
63861.22373807817,4.7619926823317655,PPG_2,PPG_3,93987.0,93987.0,-623.3351154749544,304.91607154197925,2.485227926193482
63861.23382704572,4.772081649876782,PPG_2,PPG_3,93954.0,93954.0,-656.3945453280176,298.62184563600664,2.4339160775849664
63861.24391601327,4.782170617429074,PPG_2,PPG_3,93985.0,93985.0,-625.4539751810662,291.1765452734017,2.373220428785898
63861.254004980816,4.79225958497409,PPG_2,PPG_3,93990.0,93990.0,-620.5134050341148,282.52621056475095,2.3027010874699005
63861.26409394836,4.802348552519106,PPG_2,PPG_3,94024.0,94024.0,-586.572834887178,272.5802989773696,2.2216199319363614
63861.274182915906,4.8124375200641225,PPG_2,PPG_3,93970.0,93970.0,-640.6322647402267,261.21881504192453,2.1289987339729315
63861.28427188346,4.822526487616415,PPG_2,PPG_3,94013.0,94013.0,-597.6916945932753,248.3111756539303,2.023772952746744
63861.294360851,4.832615455161431,PPG_2,PPG_3,94047.0,94047.0,-563.7511244463385,233.7458426366833,1.9050333056672824
63861.30444981855,4.842704422706447,PPG_2,PPG_3,94045.0,94045.0,-565.8105542993871,217.46863950359185,1.7723381346625826
63861.3145387861,4.852793390258739,PPG_2,PPG_3,94038.0,94038.0,-572.8699841524358,199.52250671999525,1.6260374994047293
63861.324627753645,4.862882357803755,PPG_2,PPG_3,94043.0,94043.0,-567.929414005499,180.07832355259944,1.4675244434855057
63861.33471672119,4.872971325348772,PPG_2,PPG_3,94043.0,94043.0,-567.9888438585476,159.44900054254327,1.299349879210059
63861.34480568874,4.883060292901064,PPG_2,PPG_3,93993.0,93993.0,-618.0482737115963,138.08320608045,1.125171445322058
63861.35489465629,4.89314926044608,PPG_2,PPG_3,93978.0,93978.0,-633.1077035646595,116.5386965475566,0.9495360887252209
63861.36498362383,4.903238227991096,PPG_2,PPG_3,93968.0,93968.0,-643.1671334177081,95.44006543425503,0.7775356264435355
63861.375072591385,4.913327195543388,PPG_2,PPG_3,93978.0,93978.0,-633.2265632707567,75.42978281464009,0.6144076091575662
63861.38516155893,4.923416163088405,PPG_2,PPG_3,93944.0,93944.0,-667.2859931238199,57.120739902002256,0.46514845447603137
63861.395250526475,4.933505130633421,PPG_2,PPG_3,93989.0,93989.0,-622.3454229768686,41.054665979602646,0.3341744530412982
63861.40533949403,4.943594098185713,PPG_2,PPG_3,93963.0,93963.0,-648.4048528299172,27.66757481121195,0.22504008042701945
63861.41542846157,4.953683065730729,PPG_2,PPG_3,93948.0,93948.0,-663.4642826829804,17.261575328654178,0.14020819195561435
63861.42551742912,4.963772033275745,PPG_2,PPG_3,93947.0,93947.0,-664.523712536029,9.982642364429305,0.0808688050522256
63861.43560639667,4.9738610008280375,PPG_2,PPG_3,93964.0,93964.0,-647.5831423890777,5.806882566349913,0.04682713610271136
63861.445695364215,4.983949968373054,PPG_2,PPG_3,93975.0,93975.0,-636.6425722421409,4.5398497520456695,0.036498019080090816
63861.45578433176,4.99403893591807,PPG_2,PPG_3,93991.0,93991.0,-620.7020020951895,5.8314435272229845,0.047027362202763295
63861.465873299305,5.004127903463086,PPG_2,PPG_3,94017.0,94017.0,-594.7614319482382,9.205178479784037,0.0745307565386424
63861.47596226686,5.014216871015378,PPG_2,PPG_3,94034.0,94034.0,-577.8208618013014,14.098079666677032,0.11441871237448951
63861.4860512344,5.0243058385603945,PPG_2,PPG_3,94029.0,94029.0,-582.88029165435,19.906380464685128,0.1617691976720233
63861.49614020195,5.034394806105411,PPG_2,PPG_3,94067.0,94067.0,-544.9397215073986,26.03262632456543,0.21171163774276142
63861.5062291695,5.044483773657703,PPG_2,PPG_3,94127.0,94127.0,-484.99915136046184,31.930906618359487,0.2597956547461176
63861.51631813704,5.054572741202719,PPG_2,PPG_3,94094.0,94094.0,-518.0585812135105,37.14585749165065,0.3023090271144731
63861.52640710459,5.064661708747735,PPG_2,PPG_3,94113.0,94113.0,-499.1180110665591,41.338696675277504,0.33648993079413997
63861.53649607214,5.074750676300027,PPG_2,PPG_3,94129.0,94129.0,-483.1774409196223,44.29520256887821,0.36059198640651824
63861.54658503969,5.084839643845044,PPG_2,PPG_3,94091.0,94091.0,-521.236870772671,45.91612800257646,0.37380611022445975
63861.55667400723,5.09492861139006,PPG_2,PPG_3,94096.0,94096.0,-516.2963006257196,46.19519397323883,0.37608111449858794
63861.566762974784,5.105017578942352,PPG_2,PPG_3,94138.0,94138.0,-474.3557304787828,45.19251253859446,0.3679070453206417
63861.57685194233,5.115106546487368,PPG_2,PPG_3,94129.0,94129.0,-483.41516033183143,43.01137469923139,0.35012595257315976
63861.586940909874,5.125195514032384,PPG_2,PPG_3,94140.0,94140.0,-472.47459018488007,39.78208732979535,0.3238001252054671
63861.59702987743,5.1352844815846765,PPG_2,PPG_3,94150.0,94150.0,-462.53402003794326,35.65161065943264,0.29012761380266777
63861.60711884497,5.145373449129693,PPG_2,PPG_3,94174.0,94174.0,-438.5934498909919,30.776167432948846,0.2503819789185806
63861.61720781252,5.155462416674709,PPG_2,PPG_3,94128.0,94128.0,-484.65287974404055,25.31396766500784,0.20585298174736308
63861.62729678006,5.165551384219725,PPG_2,PPG_3,94126.0,94126.0,-486.71230959710374,19.415902028922066,0.1577707146786286
63861.637385747614,5.175640351772017,PPG_2,PPG_3,94154.0,94154.0,-458.7717394501524,13.215332646899641,0.10722237368009105
63861.64747471516,5.1857293193170335,PPG_2,PPG_3,94149.0,94149.0,-463.831169303201,6.8209511288326725,0.055094035533091765
63861.657563682704,5.19581828686205,PPG_2,PPG_3,94141.0,94141.0,-471.8905991562642,0.3147131957763818,0.002053820450379518
63861.667652650256,5.205907254414342,PPG_2,PPG_3,94103.0,94103.0,-509.95002900931286,-6.246446700809984,-0.051434129988520615
63861.6777416178,5.215996221959358,PPG_2,PPG_3,94159.0,94159.0,-454.00945886237605,-12.82556388136202,-0.10506847196945171
63861.687830585346,5.226085189504374,PPG_2,PPG_3,94115.0,94115.0,-498.0688887154247,-19.39528136036324,-0.15862618561353153
63861.6979195529,5.2361741570566664,PPG_2,PPG_3,94132.0,94132.0,-481.12831856847333,-25.921166556275715,-0.21182656930034358
63861.70800852044,5.246263124601683,PPG_2,PPG_3,94163.0,94163.0,-450.1877484215365,-32.34047141084463,-0.2641580877094611
63861.71809748799,5.256352092146699,PPG_2,PPG_3,94142.0,94142.0,-471.24717827458517,-38.5400238351203,-0.3146981382553326
63861.72818645554,5.266441059698991,PPG_2,PPG_3,94166.0,94166.0,-447.3066081276338,-44.33884167616759,-0.3619713165004659
63861.738275423086,5.276530027244007,PPG_2,PPG_3,94154.0,94154.0,-459.366037980697,-49.4821387339257,-0.40390055194876484
63861.74836439063,5.286618994789023,PPG_2,PPG_3,94149.0,94149.0,-464.42546783374564,-53.651907883088775,-0.43789338387290805
63861.75845335818,5.296707962341316,PPG_2,PPG_3,94119.0,94119.0,-494.4848976867943,-56.49596997478437,-0.46107877404834263
63861.76854232573,5.306796929886332,PPG_2,PPG_3,94121.0,94121.0,-492.5443275398575,-57.67295388463326,-0.4706737935311225
63861.77863129327,5.316885897431348,PPG_2,PPG_3,94116.0,94116.0,-497.6037573929061,-56.9060551013146,-0.4644218739375849
63861.788720260825,5.32697486498364,PPG_2,PPG_3,94115.0,94115.0,-498.66318724595476,-54.036166422253444,-0.44102594000970596
63861.79880922837,5.337063832528656,PPG_2,PPG_3,94114.0,94114.0,-499.72261709901795,-49.065796153589794,-0.4005064399847816
63861.808898195915,5.3471528000736726,PPG_2,PPG_3,94138.0,94138.0,-475.7820469520666,-42.18712577310617,-0.34443007754339944
63861.81898716346,5.357241767618689,PPG_2,PPG_3,94133.0,94133.0,-480.84147680511524,-33.78959371357189,-0.27597163640052524
63861.82907613101,5.367330735170981,PPG_2,PPG_3,94152.0,94152.0,-461.9009066581784,-24.444778765160212,-0.19979074663416085
63861.83916509856,5.377419702715997,PPG_2,PPG_3,94181.0,94181.0,-432.96033651122707,-14.868629408739974,-0.12172397029508665
63861.8492540661,5.387508670261013,PPG_2,PPG_3,94220.0,94220.0,-394.0197663642757,-5.863519393277449,-0.048312426330961826
63861.859343033655,5.3975976378133055,PPG_2,PPG_3,94217.0,94217.0,-397.0791962173389,1.7535817972090477,0.013783778819716283
63861.8694320012,5.407686605358322,PPG_2,PPG_3,94236.0,94236.0,-378.13862607038755,7.226938054440732,0.058403726029594275
63861.879520968745,5.417775572903338,PPG_2,PPG_3,94267.0,94267.0,-347.1980559234362,9.931566372277263,0.08045242286067629
63861.8896099363,5.42786454045563,PPG_2,PPG_3,94257.0,94257.0,-357.2574857764994,9.427779024727847,0.07634544282937301
63861.89969890384,5.437953508000646,PPG_2,PPG_3,94230.0,94230.0,-384.316915629548,5.493393145826928,0.04427150465151369
63861.90978787139,5.4480424755456625,PPG_2,PPG_3,94235.0,94235.0,-379.37634548259666,-1.871034796780508,-0.0157648552320459
63861.91987683894,5.458131443097955,PPG_2,PPG_3,94203.0,94203.0,-411.43577533565986,-12.463299928981414,-0.10211522031332071
63861.929965806485,5.468220410642971,PPG_2,PPG_3,94159.0,94159.0,-455.4952051887085,-25.921492695066274,-0.2118292280521101
63861.94005477403,5.478309378187987,PPG_2,PPG_3,94146.0,94146.0,-468.55463504175714,-41.77829497672464,-0.34109720321638776
63861.95014374158,5.488398345740279,PPG_2,PPG_3,94146.0,94146.0,-468.61406489482033,-59.51699015934071,-0.4857067636802577
63861.96023270913,5.498487313285295,PPG_2,PPG_3,94101.0,94101.0,-513.673494747869,-78.6190921498981,-0.641431102159089
63861.97032167667,5.508576280830312,PPG_2,PPG_3,94093.0,94093.0,-521.7329246009176,-98.5972625821885,-0.804297334164533
63861.980410644224,5.518665248382604,PPG_2,PPG_3,94104.0,94104.0,-510.7923544539808,-119.01073251359082,-0.9707122189084492
63861.99049961177,5.52875421592762,PPG_2,PPG_3,94099.0,94099.0,-515.8517843070294,-139.4633121547359,-1.1374459342020504
63862.000588579314,5.538843183472636,PPG_2,PPG_3,94100.0,94100.0,-514.9112141600781,-159.588814605858,-1.3015132477000264
63862.01067754686,5.548932151017652,PPG_2,PPG_3,94065.0,94065.0,-549.9706440131413,-179.0335334543825,-1.4600306706040689
63862.02076651441,5.5590211185699445,PPG_2,PPG_3,94061.0,94061.0,-554.0300738661899,-197.44601175404247,-1.6101330522366109
63862.03085548196,5.569110086114961,PPG_2,PPG_3,94007.0,94007.0,-608.0895037192386,-214.48045035798475,-1.7490013654865588
63862.0409444495,5.579199053659977,PPG_2,PPG_3,93944.0,93944.0,-671.1489335723018,-229.81408338327884,-1.8740043552371863
63862.051033417054,5.589288021212269,PPG_2,PPG_3,93938.0,93938.0,-677.2083634253504,-243.17176750233412,-1.9828989954227179
63862.0611223846,5.599376988757285,PPG_2,PPG_3,93996.0,93996.0,-619.267793278399,-254.34566533157073,-2.073990952137642
63862.071211352144,5.6094659563023015,PPG_2,PPG_3,93978.0,93978.0,-637.3272231314622,-263.20057977424557,-2.146178070317297
63862.081300319696,5.619554923854594,PPG_2,PPG_3,93967.0,93967.0,-648.3866529845109,-269.66614659897306,-2.1988867260018425
63862.09138928724,5.62964389139961,PPG_2,PPG_3,93992.0,93992.0,-623.4460828375595,-273.72510908570723,-2.231976238793133
63862.101478254786,5.639732858944626,PPG_2,PPG_3,93935.0,93935.0,-680.5055126906227,-275.4058951719351,-2.2456783591949416
63862.11156722234,5.649821826496918,PPG_2,PPG_3,93955.0,93955.0,-660.5649425436713,-274.78227627127546,-2.2405944872306875
63862.12165618989,5.659910794041934,PPG_2,PPG_3,93933.0,93933.0,-682.62437239672,-271.9777729107803,-2.2177315881219584
63862.13174515743,5.669999761586951,PPG_2,PPG_3,93957.0,93957.0,-658.6838022497832,-267.1691962730376,-2.1785310636819046
63862.14183412498,5.680088729139243,PPG_2,PPG_3,93975.0,93975.0,-640.7432321028318,-260.58395039243936,-2.124846759253862
63862.151923092526,5.690177696684259,PPG_2,PPG_3,93992.0,93992.0,-623.8026619558805,-252.48931443278516,-2.0588575905923596
63862.16201206007,5.700266664229275,PPG_2,PPG_3,94012.0,94012.0,-603.8620918089437,-243.17629357990148,-1.9829358929555354
63862.17210102762,5.710355631781567,PPG_2,PPG_3,94003.0,94003.0,-612.9215216619923,-232.9431484199745,-1.899513149145707
63862.18218999517,5.720444599326584,PPG_2,PPG_3,93989.0,93989.0,-626.9809515150409,-222.08276175890506,-1.8109770011733333
63862.19227896271,5.7305335668716,PPG_2,PPG_3,94022.0,94022.0,-594.0403813681041,-210.87387766841667,-1.7195998291249357
63862.20236793026,5.740622534416616,PPG_2,PPG_3,94082.0,94082.0,-534.0998112211528,-199.57273402832354,-1.627470537894175
63862.21245689781,5.750711501968908,PPG_2,PPG_3,94018.0,94018.0,-598.1592410742014,-188.4031924777256,-1.5364140944756186
63862.22254586536,5.760800469513924,PPG_2,PPG_3,94092.0,94092.0,-524.2186709272646,-177.547676743184,-1.4479176553170552
63862.2326348329,5.7708894370589405,PPG_2,PPG_3,94078.0,94078.0,-538.2781007803133,-167.14170135294106,-1.3630859632512493
63862.24272380045,5.780978404611233,PPG_2,PPG_3,94071.0,94071.0,-545.3375306333619,-157.27244316310893,-1.2826297022780793
63862.252812768,5.791067372156249,PPG_2,PPG_3,94108.0,94108.0,-508.3969604864251,-147.98064269121895,-1.206880997634076
63862.26290173554,5.801156339701265,PPG_2,PPG_3,94144.0,94144.0,-472.4563903394737,-139.26482838341127,-1.1358278529037937
63862.272990703095,5.811245307253557,PPG_2,PPG_3,94124.0,94124.0,-492.5158201925369,-131.0880803293807,-1.069169289241459
63862.28307967064,5.8213342747985735,PPG_2,PPG_3,94100.0,94100.0,-516.5752500455856,-123.38981168350773,-1.0064113899849534
63862.293168638185,5.83142324234359,PPG_2,PPG_3,94147.0,94147.0,-469.6346798986342,-116.10329852278684,-0.9470102077312171
63862.30325760574,5.841512209895882,PPG_2,PPG_3,94119.0,94119.0,-497.6941097516974,-109.17458314722056,-0.8905258680024518
63862.31334657328,5.851601177440898,PPG_2,PPG_3,94139.0,94139.0,-477.75353960474604,-102.57658651400811,-0.8367376167670398
63862.32343554083,5.861690144985914,PPG_2,PPG_3,94151.0,94151.0,-465.8129694577947,-96.31427317069671,-0.7856859260569605
63862.33352450838,5.871779112538206,PPG_2,PPG_3,94189.0,94189.0,-427.8723993108579,-90.41896946848406,-0.7376261748519528
63862.343613475925,5.881868080083223,PPG_2,PPG_3,94167.0,94167.0,-449.9318291639065,-84.93272549626296,-0.6929011642887212
63862.35370244347,5.891957047628239,PPG_2,PPG_3,94195.0,94195.0,-421.99125901695515,-79.88660066337518,-0.6517640971810545
63862.363791411015,5.902046015173255,PPG_2,PPG_3,94208.0,94208.0,-409.05068887001835,-75.27723440181869,-0.6141875774743568
63862.37388037857,5.912134982725547,PPG_2,PPG_3,94251.0,94251.0,-366.110118723067,-71.045292162696,-0.5796878974918203
63862.38396934611,5.922223950270563,PPG_2,PPG_3,94232.0,94232.0,-385.16954857611563,-67.0607193410082,-0.5472048248391463
63862.39405831366,5.93231291781558,PPG_2,PPG_3,94237.0,94237.0,-380.2289784291788,-63.12147630190722,-0.5150912900734658
63862.40414728121,5.942401885367872,PPG_2,PPG_3,94230.0,94230.0,-387.28840828222746,-58.97023093758734,-0.4812494679252234
63862.414236248755,5.952490852912888,PPG_2,PPG_3,94199.0,94199.0,-418.3478381352761,-54.32758880176655,-0.4434016763182043
63862.4243252163,5.962579820457904,PPG_2,PPG_3,94236.0,94236.0,-381.4072679883393,-48.93472120694831,-0.3994378895515893
63862.43441418385,5.972668788010196,PPG_2,PPG_3,94237.0,94237.0,-380.46669784138794,-42.59569045668059,-0.3477607824630408
63862.4445031514,5.9827577555552125,PPG_2,PPG_3,94244.0,94244.0,-373.5261276944366,-35.21147489720906,-0.2875631097800962
63862.45459211894,5.992846723100229,PPG_2,PPG_3,94264.0,94264.0,-353.5855575474998,-26.801705135143113,-0.21900490432164113
63862.464681086494,6.002935690652521,PPG_2,PPG_3,94276.0,94276.0,-341.6449874005484,-17.512852021896343,-0.14328022716294808
63862.47477005404,6.013024658197537,PPG_2,PPG_3,94307.0,94307.0,-310.70441725359706,-7.612808825215572,-0.06257300036261718
63862.484859021584,6.023113625742553,PPG_2,PPG_3,94295.0,94295.0,-322.76384710666025,2.526781170090862,0.020087062139729293
63862.49494798914,6.033202593294845,PPG_2,PPG_3,94316.0,94316.0,-301.8232769597089,12.458196303810146,0.10105003954512642
63862.50503695668,6.043291560839862,PPG_2,PPG_3,94357.0,94357.0,-260.88270681275753,21.69368042160369,0.1763396414688353
63862.51512592423,6.053380528384878,PPG_2,PPG_3,94343.0,94343.0,-274.9421366658207,29.74843678883178,0.24200370333568055
63862.52521489178,6.06346949593717,PPG_2,PPG_3,94396.0,94396.0,-222.00156651886937,36.18733334415115,0.29449493739496835
63862.53530385933,6.073558463482186,PPG_2,PPG_3,94388.0,94388.0,-230.060996371918,40.67002479666269,0.331038777512257
63862.54539282687,6.083647431027202,PPG_2,PPG_3,94387.0,94387.0,-231.1204262249812,42.98864638348742,0.34994066658025086
63862.555481794414,6.093736398572219,PPG_2,PPG_3,94363.0,94363.0,-255.17985607802984,43.09375924376069,0.35079756864473377
63862.565570761966,6.103825366124511,PPG_2,PPG_3,94439.0,94439.0,-179.23928593107848,41.107804435642606,0.33460764887067346
63862.57565972951,6.113914333669527,PPG_2,PPG_3,94414.0,94414.0,-204.29871578414168,37.327189093880826,0.30378728033584945
63862.585748697056,6.124003301214543,PPG_2,PPG_3,94434.0,94434.0,-184.35814563719032,32.210982038595944,0.26207888826471487
63862.59583766461,6.134092268766835,PPG_2,PPG_3,94363.0,94363.0,-255.41757549023896,26.351104579757713,0.2143079392196474
63862.60592663215,6.1441812363118515,PPG_2,PPG_3,94389.0,94389.0,-229.47700534330215,20.422651619305853,0.1659779483146885
63862.6160155997,6.154270203856868,PPG_2,PPG_3,94374.0,94374.0,-244.5364351963508,15.120924335720758,0.12275715646468284
63862.62610456725,6.16435917140916,PPG_2,PPG_3,94381.0,94381.0,-237.59586504939944,11.09580270890405,0.08994352145515794
63862.6361935348,6.174448138954176,PPG_2,PPG_3,94368.0,94368.0,-250.65529490246263,8.89212801690811,0.07197870356217187
63862.64628250234,6.184537106499192,PPG_2,PPG_3,94398.0,94398.0,-220.71472475551127,8.901451247237008,0.07205470848959666
63862.65637146989,6.1946260740514845,PPG_2,PPG_3,94379.0,94379.0,-239.7741546085599,11.328703575287102,0.09184217812480486
63862.66646043744,6.204715041596501,PPG_2,PPG_3,94420.0,94420.0,-198.8335844616231,16.17596757774776,0.13135809006939458
63862.67654940498,6.214804009141517,PPG_2,PPG_3,94412.0,94412.0,-206.89301431467175,23.243959880761828,0.18897784449769878
63862.686638372536,6.224892976693809,PPG_2,PPG_3,94441.0,94441.0,-177.9524441677204,32.15050816743851,0.26158589259408654
63862.69672734008,6.234981944238825,PPG_2,PPG_3,94468.0,94468.0,-151.01187402078358,42.36421233923302,0.34485014939459
63862.706816307626,6.245070911783841,PPG_2,PPG_3,94493.0,94493.0,-126.07130387383222,53.250173245779905,0.4335947839754552
63862.71690527517,6.255159879328858,PPG_2,PPG_3,94498.0,94498.0,-121.13073372688086,64.12292275923852,0.5222317165112746
63862.72699424272,6.26524884688115,PPG_2,PPG_3,94519.0,94519.0,-100.19016357994406,74.30083187047342,0.6052041644768545
63862.73708321027,6.275337814426166,PPG_2,PPG_3,94552.0,94552.0,-67.2495934329927,83.15742796074494,0.6774049918001251
63862.74717217781,6.285426781971182,PPG_2,PPG_3,94569.0,94569.0,-50.30902328604134,90.16622505395576,0.7345421744731175
63862.757261145365,6.295515749523474,PPG_2,PPG_3,94547.0,94547.0,-72.36845313910453,94.9352175054327,0.7734200003314391
63862.76735011291,6.305604717068491,PPG_2,PPG_3,94567.0,94567.0,-52.42788299215317,97.22767227764842,0.7921085720432016
63862.777439080455,6.315693684613507,PPG_2,PPG_3,94574.0,94574.0,-45.487312845201814,96.96916456234845,0.7900011629749922
63862.78752804801,6.325782652165799,PPG_2,PPG_3,94607.0,94607.0,-12.546742698265007,94.24338590192804,0.7677800441188836
63862.79761701555,6.335871619710815,PPG_2,PPG_3,94558.0,94558.0,-61.60617255131365,89.2780041631393,0.7273012116348998
63862.8077059831,6.345960587255831,PPG_2,PPG_3,94551.0,94551.0,-68.66560240436229,82.42040240528554,0.6713966050203538
63862.81779495065,6.3560495548081235,PPG_2,PPG_3,94586.0,94586.0,-33.72503225742548,74.10575812762933,0.6036138824453796
63862.827883918195,6.36613852235314,PPG_2,PPG_3,94573.0,94573.0,-46.784462110474124,64.82303232619653,0.5279391564166384
63862.83797288574,6.376227489898156,PPG_2,PPG_3,94570.0,94570.0,-49.843891963522765,55.0825459972901,0.4485326706392691
63862.84806185329,6.386316457450448,PPG_2,PPG_3,94557.0,94557.0,-62.90332181658596,45.38497138199414,0.3694760101438655
63862.85815082084,6.396405424995464,PPG_2,PPG_3,94560.0,94560.0,-59.9627516696346,36.19142816705007,0.29452831924935474
63862.86823978838,6.4064943925404805,PPG_2,PPG_3,94555.0,94555.0,-65.02218152268324,27.89661880269454,0.22690729504422802
63862.878328755934,6.416583360092773,PPG_2,PPG_3,94549.0,94549.0,-71.08161137574643,20.807762625386676,0.16911745394043057
63862.88841772348,6.426672327637789,PPG_2,PPG_3,94555.0,94555.0,-65.14104122879507,15.131508516864015,0.12284344092739215
63862.898506691025,6.436761295182805,PPG_2,PPG_3,94581.0,94581.0,-39.20047108185827,10.970188259758844,0.08891948614186156
63862.90859565857,6.446850262727821,PPG_2,PPG_3,94573.0,94573.0,-47.25990093490691,8.327131898159498,0.06737273680109358
63862.91868462612,6.456939230280113,PPG_2,PPG_3,94579.0,94579.0,-41.31933078795555,7.118459438927925,0.057519385623068235
63862.92877359367,6.46702819782513,PPG_2,PPG_3,94586.0,94586.0,-34.378760641018744,7.188081968855743,0.058086963077193
63862.93886256121,6.477117165370146,PPG_2,PPG_3,94607.0,94607.0,-13.438190494067385,8.324078672082477,0.0673478462622772
63862.94895152877,6.487206132922438,PPG_2,PPG_3,94621.0,94621.0,0.5023796528839739,10.275456909320125,0.08325589058462635
63862.95904049631,6.497295100467454,PPG_2,PPG_3,94593.0,94593.0,-27.55705020017922,12.767537915980926,0.10357185719341887
63862.969129463854,6.50738406801247,PPG_2,PPG_3,94617.0,94617.0,-3.6164800532278605,15.514575056214914,0.1259662796319118
63862.97921843141,6.5174730355647625,PPG_2,PPG_3,94642.0,94642.0,21.3240900937235,18.23084711205957,0.1481098986553071
63862.98930739895,6.527562003109779,PPG_2,PPG_3,94629.0,94629.0,8.264660240660305,20.642856169608393,0.16777310195499692
63862.9993963665,6.537650970654795,PPG_2,PPG_3,94660.0,94660.0,39.205230387611664,22.50346820805025,0.1829412012037254
63863.00948533405,6.547739938207087,PPG_2,PPG_3,94674.0,94674.0,53.14580053456302,23.606778188719336,0.19193561537666387
63863.019574301594,6.557828905752103,PPG_2,PPG_3,94665.0,94665.0,44.08637068149983,23.801718774666686,0.19352481188521214
63863.02966326914,6.5679178732971195,PPG_2,PPG_3,94682.0,94682.0,61.02694082845119,23.002154205875666,0.1870065939630357
63863.03975223669,6.578006840849412,PPG_2,PPG_3,94684.0,94684.0,62.96751097540255,21.191913724564568,0.17224913420394108
63863.04984120424,6.588095808394428,PPG_2,PPG_3,94685.0,94685.0,63.908081122339354,18.424623403082833,0.14968960358764363
63863.05993017178,6.598184775939444,PPG_2,PPG_3,94694.0,94694.0,72.84865126929071,14.81881758852799,0.12029431895183525
63863.07001913933,6.608273743491736,PPG_2,PPG_3,94676.0,94676.0,54.78922141624207,10.548982046001575,0.08548572481900045
63863.08010810688,6.618362711036752,PPG_2,PPG_3,94687.0,94687.0,65.72979156317888,5.83392410775019,0.047047584415053516
63863.09019707442,6.628451678581769,PPG_2,PPG_3,94724.0,94724.0,102.67036171013024,0.9245879022697785,0.0070256468635461235
63863.10028604197,6.638540646126785,PPG_2,PPG_3,94686.0,94686.0,64.6109318570816,-3.907611844943371,-0.03236745811538852
63863.11037500952,6.648629613679077,PPG_2,PPG_3,94733.0,94733.0,111.5515020040184,-8.383351143097242,-0.06885462281345443
63863.120463977066,6.658718581224093,PPG_2,PPG_3,94688.0,94688.0,66.49207215096976,-12.231178924887963,-0.1002229212444872
63863.13055294461,6.668807548769109,PPG_2,PPG_3,94684.0,94684.0,62.43264229792112,-15.206887493615115,-0.12448152108862424
63863.14064191216,6.678896516321402,PPG_2,PPG_3,94713.0,94713.0,91.37321244485793,-17.113444935554455,-0.14002417689501978
63863.15073087971,6.688985483866418,PPG_2,PPG_3,94714.0,94714.0,92.31378259180929,-17.816286756650925,-0.1457538907086937
63863.16081984725,6.699074451411434,PPG_2,PPG_3,94726.0,94726.0,104.25435273876064,-17.250406379560207,-0.14114071528830469
63863.170908814805,6.709163418963726,PPG_2,PPG_3,94750.0,94750.0,128.19492288569745,-15.419638348700747,-0.12621591064352208
63863.18099778235,6.719252386508742,PPG_2,PPG_3,94733.0,94733.0,111.13549303264881,-12.390791485769642,-0.10152411628933085
63863.191086749895,6.7293413540537586,PPG_2,PPG_3,94778.0,94778.0,156.07606317960017,-8.28516607505247,-0.06805419756301188
63863.20117571745,6.739430321606051,PPG_2,PPG_3,94769.0,94769.0,147.01663332653698,-3.2691787866568283,-0.02716281803369309
63863.21126468499,6.749519289151067,PPG_2,PPG_3,94779.0,94779.0,156.95720347348833,2.454610114134488,0.019498708567348585
63863.22135365254,6.759608256696083,PPG_2,PPG_3,94772.0,94772.0,149.8977736204397,8.655448190258753,0.0700492400165121
63863.23144262009,6.769697224248375,PPG_2,PPG_3,94801.0,94801.0,178.8383437673765,15.082716310391445,0.12244567663529386
63863.241531587635,6.7797861917933915,PPG_2,PPG_3,94814.0,94814.0,191.77891391432786,21.477736986661817,0.1745792253339098
63863.25162055518,6.789875159338408,PPG_2,PPG_3,94851.0,94851.0,228.71948406127922,27.590888755499694,0.2244149196304618
63863.261709522725,6.799964126883424,PPG_2,PPG_3,94857.0,94857.0,234.66005420821602,33.20213701477948,0.2701589913377945
63863.27179849028,6.810053094435716,PPG_2,PPG_3,94848.0,94848.0,225.60062435516738,38.140227138425686,0.3104153368558836
63863.28188745782,6.820142061980732,PPG_2,PPG_3,94889.0,94889.0,266.54119450211874,42.296224093972214,0.3442958949715528
63863.29197642537,6.8302310295257485,PPG_2,PPG_3,94873.0,94873.0,250.48176464905555,45.62971016563857,0.37147117199579055
63863.30206539292,6.840319997078041,PPG_2,PPG_3,94885.0,94885.0,262.4223347960069,48.16768688561851,0.39216129007750317
63863.312154360465,6.850408964623057,PPG_2,PPG_3,94912.0,94912.0,289.36290494295827,49.99664631659068,0.40707135063699296
63863.32224332801,6.860497932168073,PPG_2,PPG_3,94888.0,94888.0,265.3034750898951,51.24858433526571,0.4172774117223667
63863.33233229556,6.870586899720365,PPG_2,PPG_3,94911.0,94911.0,288.24404523684643,52.08194135614715,0.4240711127955576
63863.34242126311,6.880675867265381,PPG_2,PPG_3,94914.0,94914.0,291.1846153837978,52.658942216246004,0.4287749447238463
63863.35251023065,6.890764834810398,PPG_2,PPG_3,94871.0,94871.0,248.1251855307346,53.12190969869167,0.43254915266058014
63863.362599198204,6.90085380236269,PPG_2,PPG_3,94912.0,94912.0,289.06575567768596,53.57265674757883,0.4362237370620212
63863.37268816575,6.910942769907706,PPG_2,PPG_3,94937.0,94937.0,314.0063258246373,54.06036138333264,0.44019960745646075
63863.382777133294,6.921031737452722,PPG_2,PPG_3,94930.0,94930.0,306.9468959715741,54.58149644348628,0.4444480096763142
63863.39286610085,6.931120705005014,PPG_2,PPG_3,94955.0,94955.0,331.8874661185255,55.090126037259736,0.4485944647135809
63863.40295506839,6.9412096725500305,PPG_2,PPG_3,94940.0,94940.0,316.82803626547684,55.513511513040484,0.4520459918371453
63863.41304403594,6.951298640095047,PPG_2,PPG_3,94981.0,94981.0,357.76860641241365,55.76876938129901,0.4541269074712323
63863.42313300349,6.961387607647339,PPG_2,PPG_3,94965.0,94965.0,341.709176559365,55.77775055180274,0.45420012385527997
63863.433221971034,6.971476575192355,PPG_2,PPG_3,94956.0,94956.0,332.64974670631636,55.477534690515775,0.4517527012405921
63863.44331093858,6.981565542737371,PPG_2,PPG_3,94950.0,94950.0,326.59031685325317,54.82519238672384,0.44643467007470405
63863.45339990613,6.9916545102823875,PPG_2,PPG_3,94983.0,94983.0,359.53088700020453,53.79864839014854,0.4380660682912393
63863.46348887368,7.00174347783468,PPG_2,PPG_3,94983.0,94983.0,359.4714571471559,52.39699194382949,0.4266394712085978
63863.47357784122,7.011832445379696,PPG_2,PPG_3,94968.0,94968.0,344.4120272940927,50.64114751477198,0.41232545946675475
63863.48366680877,7.021921412924712,PPG_2,PPG_3,94987.0,94987.0,363.35259744104405,48.573248676955224,0.3954675147903342
63863.49375577632,7.032010380477004,PPG_2,PPG_3,94968.0,94968.0,344.29316758798086,46.25381388576525,0.37655899630993916
63863.503844743864,7.04209934802202,PPG_2,PPG_3,94999.0,94999.0,375.2337377349322,43.75767164065533,0.3562099216342331
63863.51393371141,7.052188315567037,PPG_2,PPG_3,94978.0,94978.0,354.1743078818836,41.169645980008326,0.3351117940999064
63863.52402267896,7.062277283119329,PPG_2,PPG_3,94995.0,94995.0,371.1148780288204,38.57992165160714,0.3139998186700734
63863.534111646506,7.072366250664345,PPG_2,PPG_3,94961.0,94961.0,337.05544817577174,36.078730188359124,0.29360958170998736
63863.54420061405,7.082455218209361,PPG_2,PPG_3,95002.0,95002.0,377.9960183227231,33.75120515322,0.27463510986552087
63863.5542895816,7.092544185761653,PPG_2,PPG_3,95013.0,95013.0,388.9365884696599,31.674097278897463,0.25770209119365217
63863.56437854915,7.1026331533066696,PPG_2,PPG_3,94974.0,94974.0,349.87715861661127,29.914327055682985,0.24335607555514893
63863.57446751669,7.112722120851686,PPG_2,PPG_3,95004.0,95004.0,379.8177287635626,28.527278517199157,0.232048565198425
63863.584556484246,7.122811088403978,PPG_2,PPG_3,94986.0,94986.0,361.75829891049943,27.553965701935063,0.22411391516017823
63863.59464545179,7.132900055948994,PPG_2,PPG_3,95003.0,95003.0,378.6988690574508,27.01876758331131,0.21975086794061058
63863.604734419336,7.14298902349401,PPG_2,PPG_3,95009.0,95009.0,384.63943920440215,26.929528291019132,0.21902337052878712
63863.61482338689,7.1530779910463025,PPG_2,PPG_3,95048.0,95048.0,423.58000935133896,27.27979347480478,0.22187880570886045
63863.62491235443,7.163166958591319,PPG_2,PPG_3,94976.0,94976.0,351.5205794982903,28.05070082110293,0.22816340394784448
63863.63500132198,7.173255926136335,PPG_2,PPG_3,95029.0,95029.0,404.4611496452417,29.209924476898784,0.23761363811773098
63863.64509028952,7.183344893681351,PPG_2,PPG_3,94997.0,94997.0,372.4017197921785,30.708466185560287,0.2498300641623414
63863.655179257075,7.193433861233643,PPG_2,PPG_3,95018.0,95018.0,393.34228993912984,32.47937858733299,0.2642669131754152
63863.66526822462,7.2035228287786595,PPG_2,PPG_3,95063.0,95063.0,438.2828600860812,34.44179311318355,0.2802649276353103
63863.675357192165,7.213611796323676,PPG_2,PPG_3,95037.0,95037.0,412.223430233018,36.50986783790705,0.2971243061786536
63863.68544615972,7.223700763875968,PPG_2,PPG_3,95039.0,95039.0,414.16400037996937,38.60270711559523,0.3141855705474445
63863.69553512726,7.233789731420984,PPG_2,PPG_3,95068.0,95068.0,443.1045705269207,40.651136945306035,0.3308847997898443
63863.70562409481,7.243878698966,PPG_2,PPG_3,95013.0,95013.0,388.04514067385753,42.60030511681047,0.34677482719319314
63863.71571306236,7.253967666518292,PPG_2,PPG_3,95069.0,95069.0,443.9857108208089,44.40988246583227,0.3615268809588989
63863.725802029905,7.264056634063309,PPG_2,PPG_3,95083.0,95083.0,457.92628096776025,46.054389603956174,0.37493324777311926
63863.73589099745,7.274145601608325,PPG_2,PPG_3,95053.0,95053.0,427.86685111469706,47.52438016654858,0.3869169188917734
63863.745979965,7.284234569160617,PPG_2,PPG_3,95082.0,95082.0,456.8074212616484,48.82626494586356,0.3975301564367671
63863.75606893255,7.294323536705633,PPG_2,PPG_3,95059.0,95059.0,433.7479914085998,49.97858459359397,0.40692410768609466
63863.76615790009,7.304412504250649,PPG_2,PPG_3,95056.0,95056.0,430.6885615555366,51.005540708696586,0.41529606914615796
63863.776246867645,7.314501471802941,PPG_2,PPG_3,95079.0,95079.0,453.62913170248794,51.93085496170286,0.42283942484626186
63863.78633583519,7.324590439347958,PPG_2,PPG_3,95102.0,95102.0,476.5697018494393,52.774925362497285,0.42972046363760785
63863.796424802735,7.334679406892974,PPG_2,PPG_3,95074.0,95074.0,448.5102719963761,53.555586196738815,0.4360845743542551
63863.80651377028,7.34476837443799,PPG_2,PPG_3,95092.0,95092.0,466.45084214332746,54.28978060941473,0.44206988106475886
63863.81660273783,7.354857341990282,PPG_2,PPG_3,95079.0,95079.0,453.3914122902788,54.99386748300202,0.44780974480725216
63863.82669170538,7.364946309535299,PPG_2,PPG_3,95106.0,95106.0,480.33198243721563,55.68293088767453,0.453427134082822
63863.83678067292,7.375035277080315,PPG_2,PPG_3,95094.0,95094.0,468.272552584167,56.370191355482156,0.45902982543924437
63863.846869640474,7.385124244632607,PPG_2,PPG_3,95088.0,95088.0,462.21312273111835,57.0663725743349,0.4647052406276263
63863.85695860802,7.395213212177623,PPG_2,PPG_3,95114.0,95114.0,488.15369287805515,57.77846575008887,0.47051037342318947
63863.86704757557,7.405302179722639,PPG_2,PPG_3,95079.0,95079.0,453.0942630250065,58.50821054305673,0.4764594059013673
63863.87713654312,7.415391147274931,PPG_2,PPG_3,95107.0,95107.0,481.03483317195787,59.25130162720227,0.4825172401420851
63863.88722551066,7.425480114819948,PPG_2,PPG_3,95118.0,95118.0,491.9754033188947,59.99843049066669,0.48860799120597065
63863.89731447821,7.435569082364964,PPG_2,PPG_3,95122.0,95122.0,495.91597346584604,60.73833484995803,0.49463984659786436
63863.90740344576,7.445658049917256,PPG_2,PPG_3,95106.0,95106.0,479.8565436127974,61.460911466768316,0.500530442601837
63863.917492413304,7.455747017462272,PPG_2,PPG_3,95127.0,95127.0,500.7971137597342,62.15769601276082,0.506210776239496
63863.92758138085,7.465835985007288,PPG_2,PPG_3,95103.0,95103.0,476.73768390668556,62.818906929967326,0.5116011062004533
63863.9376703484,7.475924952559581,PPG_2,PPG_3,95123.0,95123.0,496.6782540536369,63.42830995299107,0.5165690873511289
63863.947759315946,7.486013920104597,PPG_2,PPG_3,95094.0,95094.0,467.6188242005737,63.957950573321945,0.5208868286799792
63863.95784828349,7.496102887649613,PPG_2,PPG_3,95123.0,95123.0,496.5593943475251,64.36519795884477,0.5242067947098499
63863.96793725104,7.506191855201905,PPG_2,PPG_3,95118.0,95118.0,491.49996449447644,64.5944920483819,0.5260760481788097
63863.97802621859,7.516280822746921,PPG_2,PPG_3,95136.0,95136.0,509.44053464141325,64.58466259464667,0.525995916412092
63863.988115186134,7.5263697902919375,PPG_2,PPG_3,95123.0,95123.0,496.3811047883646,64.28016851342255,0.5235136168519291
63863.99820415368,7.536458757836954,PPG_2,PPG_3,95133.0,95133.0,506.32167493531597,63.64319193621031,0.5183208503091727
63864.00829312123,7.546547725389246,PPG_2,PPG_3,95152.0,95152.0,525.2622450822528,62.66392352369635,0.5103376489940854
63864.018382088776,7.556636692934262,PPG_2,PPG_3,95118.0,95118.0,491.20281522920413,61.36694914135526,0.4997644420342495
63864.02847105632,7.566725660479278,PPG_2,PPG_3,95157.0,95157.0,530.1433853761555,59.811755899734976,0.4870861808210184
63864.03856002387,7.576814628031571,PPG_2,PPG_3,95129.0,95129.0,502.0839555230923,58.086039365669265,0.47301777799277434
63864.04864899142,7.586903595576587,PPG_2,PPG_3,95117.0,95117.0,490.02452567004366,56.29166334484617,0.458389648640147
63864.05873795896,7.596992563121603,PPG_2,PPG_3,95103.0,95103.0,475.965095816995,54.52486911886762,0.44398637185915535
63864.068826926516,7.607081530673895,PPG_2,PPG_3,95125.0,95125.0,497.9056659639318,52.85510513729202,0.43037410596427245
63864.07891589406,7.617170498218911,PPG_2,PPG_3,95110.0,95110.0,482.8462361108832,51.308216761981754,0.41776354776157504
63864.089004861606,7.627259465763927,PPG_2,PPG_3,95107.0,95107.0,479.78680625783454,49.857746290175754,0.4059390085136576
63864.09909382916,7.63734843331622,PPG_2,PPG_3,95139.0,95139.0,511.72737640477135,48.42532040409643,0.3942615725100219
63864.1091827967,7.647437400861236,PPG_2,PPG_3,95119.0,95119.0,491.6679465517227,46.889425908463444,0.38174063871833996
63864.11927176425,7.657526368406252,PPG_2,PPG_3,95136.0,95136.0,508.6085166986595,45.10016539745494,0.36715421207373145
63864.1293607318,7.667615335958544,PPG_2,PPG_3,95127.0,95127.0,499.5490868456109,42.89631178374308,0.34918793557342226
63864.139449699345,7.67770430350356,PPG_2,PPG_3,95146.0,95146.0,518.4896569925622,40.121278956541666,0.3265652864279723
63864.14953866689,7.687793271048577,PPG_2,PPG_3,95096.0,95096.0,468.43022713949904,36.63552079955772,0.2981486554539652
63864.159627634435,7.697882238593593,PPG_2,PPG_3,95134.0,95134.0,506.3707972864504,32.324154188218806,0.2630014913448868
63864.16971660199,7.707971206145885,PPG_2,PPG_3,95111.0,95111.0,483.31136743340176,27.100561778147302,0.22041767135777066
63864.17980556953,7.718060173690901,PPG_2,PPG_3,95092.0,95092.0,464.25193758033856,20.907623248538783,0.1699315386672388
63864.18989453708,7.728149141235917,PPG_2,PPG_3,95095.0,95095.0,467.1925077272899,13.717907736704344,0.11131947113221773
63864.19998350463,7.7382381087882095,PPG_2,PPG_3,95095.0,95095.0,467.1330778742413,5.53454943831461,0.044607019372618927
63864.210072472175,7.748327076333226,PPG_2,PPG_3,95098.0,95098.0,470.0736480211781,-3.605532532273671,-0.02990484425452218
63864.22016143972,7.758416043878242,PPG_2,PPG_3,95076.0,95076.0,448.01421816812945,-13.626611060510955,-0.1115987764419629
63864.23025040727,7.768505011430534,PPG_2,PPG_3,95097.0,95097.0,468.9547883150808,-24.41004467883217,-0.19950758708351166
63864.24033937482,7.77859397897555,PPG_2,PPG_3,95075.0,95075.0,446.8953584620176,-35.794227911782244,-0.29231383447708575
63864.25042834236,7.7886829465205665,PPG_2,PPG_3,95047.0,95047.0,418.83592860896897,-47.58139556271463,-0.3884052952957894
63864.260517309915,7.798771914072859,PPG_2,PPG_3,95020.0,95020.0,391.77649875592033,-59.552535928870945,-0.4859965402424682
63864.27060627746,7.808860881617875,PPG_2,PPG_3,95039.0,95039.0,410.71706890285714,-71.48802386309515,-0.5832971390926842
63864.280695245005,7.818949849162891,PPG_2,PPG_3,95002.0,95002.0,373.6576390498085,-83.18886349831985,-0.6786848358363706
63864.29078421256,7.829038816715183,PPG_2,PPG_3,94999.0,94999.0,370.59820919675985,-94.4943839417203,-0.770849807684899
63864.3008731801,7.839127784260199,PPG_2,PPG_3,94992.0,94992.0,363.53877934369666,-105.2942835523346,-0.8588928525462476
63864.31096214765,7.849216751805216,PPG_2,PPG_3,94991.0,94991.0,362.479349490648,-115.5336187870159,-0.9423660591426702
63864.3210511152,7.859305719357508,PPG_2,PPG_3,94986.0,94986.0,357.4199196375994,-125.21025412957131,-1.0212520182986422
63864.331140082744,7.869394686902524,PPG_2,PPG_3,94979.0,94979.0,350.3604897845362,-134.36618153307398,-1.095893057215483
63864.34122905029,7.87948365444754,PPG_2,PPG_3,94964.0,94964.0,335.30105993148754,-143.07522987552534,-1.1668910443782992
63864.351318017834,7.889572621992556,PPG_2,PPG_3,94981.0,94981.0,352.2416300784389,-151.42930123136983,-1.2349951847570344
63864.36140698539,7.899661589544848,PPG_2,PPG_3,94949.0,94949.0,320.1822002253757,-159.5246264850084,-1.3009899726875465
63864.37149595293,7.909750557089865,PPG_2,PPG_3,94954.0,94954.0,325.12277037232707,-167.44937875645542,-1.3655942139218218
63864.38158492048,7.919839524634881,PPG_2,PPG_3,94970.0,94970.0,341.0633405192784,-175.27369820398496,-1.4293797057287387
63864.39167388803,7.929928492187173,PPG_2,PPG_3,94934.0,94934.0,305.00391066621523,-183.04304726686073,-1.4927170674403205
63864.401762855574,7.940017459732189,PPG_2,PPG_3,94906.0,94906.0,276.9444808131666,-190.77595525206578,-1.555757353850109
63864.41185182312,7.950106427277205,PPG_2,PPG_3,94928.0,94928.0,298.88505096011795,-198.46541090413865,-1.6184434077342982
63864.42194079067,7.960195394829498,PPG_2,PPG_3,94928.0,94928.0,298.82562110705476,-206.0802487033918,-1.680521161245324
63864.432029758216,7.970284362374514,PPG_2,PPG_3,94919.0,94919.0,289.7661912540061,-213.56366384405123,-1.741527529702456
63864.44211872576,7.98037332991953,PPG_2,PPG_3,94932.0,94932.0,302.7067614009575,-220.83014870045102,-1.8007654370222193
63864.45220769331,7.990462297471822,PPG_2,PPG_3,94907.0,94907.0,277.6473315478943,-227.76452350534498,-1.8572959136048584
63864.46229666086,8.000551265016838,PPG_2,PPG_3,94892.0,94892.0,262.58790169484564,-234.22575021805105,-1.909969187786688
63864.4723856284,8.010640232561855,PPG_2,PPG_3,94888.0,94888.0,258.528471841797,-240.0553950368181,-1.957493674014319
63864.48247459595,8.020729200114147,PPG_2,PPG_3,94905.0,94905.0,275.4690419887338,-245.0877839453625,-1.998518762988227
63864.4925635635,8.030818167659163,PPG_2,PPG_3,94891.0,94891.0,261.40961213568517,-249.15864055224426,-2.0317052391395016
63864.502652531046,8.04090713520418,PPG_2,PPG_3,94909.0,94909.0,279.3501822826365,-252.11157359816679,-2.0557781681488785
63864.5127414986,8.050996102756471,PPG_2,PPG_3,94901.0,94901.0,271.29075242957333,-253.80414923541005,-2.069576399441193
63864.52283046614,8.061085070301488,PPG_2,PPG_3,94865.0,94865.0,235.2313225765247,-254.11533589866414,-2.0721132583325668
63864.53291943369,8.071174037846504,PPG_2,PPG_3,94922.0,94922.0,292.17189272347605,-252.95403311099673,-2.062646074643959
63864.54300840123,8.08126300539152,PPG_2,PPG_3,94893.0,94893.0,263.11246287041286,-250.26625121184728,-2.040734713348363
63864.553097368786,8.091351972943812,PPG_2,PPG_3,94914.0,94914.0,284.0530330173642,-246.03900676881474,-2.0062733307840275
63864.56318633633,8.101440940488828,PPG_2,PPG_3,94908.0,94908.0,277.9936031643156,-240.3009508481425,-1.959495496447108
63864.573275303876,8.111529908033845,PPG_2,PPG_3,94937.0,94937.0,306.9341733112524,-233.11995541038766,-1.9009545167833697
63864.58336427143,8.121618875586137,PPG_2,PPG_3,94956.0,94956.0,325.87474345820374,-224.5974653174885,-1.8314773915661995
63864.59345323897,8.131707843131153,PPG_2,PPG_3,94963.0,94963.0,332.8153136051551,-214.86083421094037,-1.7521023343693982
63864.60354220652,8.14179681067617,PPG_2,PPG_3,94932.0,94932.0,301.7558837520919,-204.05632246763489,-1.664021690435829
63864.61363117407,8.151885778228461,PPG_2,PPG_3,94994.0,94994.0,363.69645389904326,-192.34371946321787,-1.5685380962413458
63864.623720141615,8.161974745773477,PPG_2,PPG_3,95010.0,95010.0,379.6370240459946,-179.89042659377742,-1.4670162430476297
63864.63380910916,8.172063713318494,PPG_2,PPG_3,95007.0,95007.0,376.57759419293143,-166.86343736218893,-1.360817496885413
63864.64389807671,8.182152680870786,PPG_2,PPG_3,95018.0,95018.0,387.5181643398828,-153.4209219372886,-1.251231294117316
63864.65398704426,8.192241648415802,PPG_2,PPG_3,95069.0,95069.0,438.45873448683415,-139.70537553884412,-1.1394192856362975
63864.6640760118,8.202330615960818,PPG_2,PPG_3,95063.0,95063.0,432.39930463377095,-125.83849888285597,-1.026373601182893
63864.674164979355,8.21241958351311,PPG_2,PPG_3,95065.0,95065.0,434.3398747807223,-111.91833366000901,-0.9128934971652605
63864.6842539469,8.222508551058127,PPG_2,PPG_3,95111.0,95111.0,480.28044492767367,-98.0196627064317,-0.7995886189350705
63864.694342914445,8.232597518603143,PPG_2,PPG_3,95101.0,95101.0,470.2210150746105,-84.19712880308185,-0.6869044258936761
63864.704431882,8.242686486155435,PPG_2,PPG_3,95114.0,95114.0,483.16158522156184,-70.48952273777446,-0.5751571486723737
63864.71452084954,8.252775453700451,PPG_2,PPG_3,95146.0,95146.0,515.1021553685132,-56.92377665342247,-0.46456634374411093
63864.72460981709,8.262864421245467,PPG_2,PPG_3,95181.0,95181.0,550.04272551545,-43.51720651829012,-0.3552731745109263
63864.73469878463,8.272953388790484,PPG_2,PPG_3,95164.0,95164.0,532.9832956624014,-30.277977546196162,-0.247344205506979
63864.744787752184,8.283042356342776,PPG_2,PPG_3,95196.0,95196.0,564.9238658093382,-17.205843444484515,-0.14077742890292325
63864.75487671973,8.293131323887792,PPG_2,PPG_3,95209.0,95209.0,577.8644359562895,-4.29460436022248,-0.035522302198405575
63864.764965687275,8.303220291432808,PPG_2,PPG_3,95224.0,95224.0,592.8050061032409,8.46433649613091,0.06849125743646209
63864.77505465483,8.3133092589851,PPG_2,PPG_3,95235.0,95235.0,603.7455762501777,21.078255688613325,0.1713225700765974
63864.78514362237,8.323398226530117,PPG_2,PPG_3,95258.0,95258.0,626.686146397129,33.549524625214815,0.2729909679368895
63864.79523258992,8.333487194075133,PPG_2,PPG_3,95288.0,95288.0,656.6267165440804,45.87221439735253,0.373448117312104
63864.80532155747,8.343576161627425,PPG_2,PPG_3,95283.0,95283.0,651.5672866910172,58.028224104859795,0.4725464558708431
63864.815410525014,8.353665129172441,PPG_2,PPG_3,95296.0,95296.0,664.5078568379686,69.98146326681798,0.569991766449508
63864.82549949256,8.363754096717457,PPG_2,PPG_3,95321.0,95321.0,689.4484269849199,81.66959660518746,0.6652758787984889
63864.83558846011,8.37384306426975,PPG_2,PPG_3,95292.0,95292.0,660.3889971318567,92.99501938096715,0.7576030986313215
63864.84567742766,8.383932031814766,PPG_2,PPG_3,95306.0,95306.0,674.3295672788081,103.81854131924366,0.8458387176580864
63864.8557663952,8.394020999359782,PPG_2,PPG_3,95379.0,95379.0,747.2701374257595,113.96060285484654,0.9285189286748674
63864.865855362754,8.404109966912074,PPG_2,PPG_3,95371.0,95371.0,739.2107075726963,123.21342409319081,1.0039498664384867
63864.8759443303,8.41419893445709,PPG_2,PPG_3,95374.0,95374.0,742.1512777196476,131.36175364326178,1.0703767565011382
63864.88603329784,8.424287902002106,PPG_2,PPG_3,95386.0,95386.0,754.091847866599,138.20573233766274,1.1261703050475569
63864.89612226539,8.434376869547123,PPG_2,PPG_3,95401.0,95401.0,769.0324180135358,143.5814713782863,1.1699944562509033
63864.90621123294,8.444465837099415,PPG_2,PPG_3,95400.0,95400.0,767.9729881604871,147.37848491503823,1.2009485063077059
63864.916300200486,8.454554804644431,PPG_2,PPG_3,95395.0,95395.0,762.9135583074385,149.55373550379514,1.2186816049545095
63864.92638916803,8.464643772189447,PPG_2,PPG_3,95442.0,95442.0,809.8541284543753,150.1416536460775,1.2234744368549926
63864.93647813558,8.47473273974174,PPG_2,PPG_3,95411.0,95411.0,778.7946986013267,149.2590925060913,1.216279613491605
63864.94656710313,8.484821707286756,PPG_2,PPG_3,95408.0,95408.0,775.735268748278,147.10307827312909,1.198703333648426
63864.95665607067,8.494910674831772,PPG_2,PPG_3,95414.0,95414.0,781.6758388952148,143.9395996103501,1.1729139926483267
63864.966745038226,8.504999642384064,PPG_2,PPG_3,95418.0,95418.0,785.6164090421662,140.08435634424427,1.1414852416351626
63864.97683400577,8.51508860992908,PPG_2,PPG_3,95389.0,95389.0,756.5569791891176,135.87793430331337,1.1071936076563187
63864.98692297331,8.525177577474096,PPG_2,PPG_3,95398.0,95398.0,765.4975493360544,131.6576288407684,1.072788793115056
63864.99701194087,8.535266545026388,PPG_2,PPG_3,95391.0,95391.0,758.4381194830057,127.72876559795668,1.0407598766239237
63865.00710090841,8.545355512571405,PPG_2,PPG_3,95383.0,95383.0,750.3786896299571,124.33936048047487,1.0131287358197583
63865.01718987596,8.555444480116421,PPG_2,PPG_3,95390.0,95390.0,757.3192597768939,121.66147994033174,0.9912980924777186
63865.02727884351,8.565533447668713,PPG_2,PPG_3,95385.0,95385.0,752.2598299238452,119.78145228493212,0.9759717130507982
63865.037367811055,8.57562241521373,PPG_2,PPG_3,95404.0,95404.0,771.2004000707966,118.69990357775357,0.9671547013396645
63865.0474567786,8.585711382758745,PPG_2,PPG_3,95391.0,95391.0,758.1409702177334,118.34104705077964,0.9642292277295115
63865.05754574615,8.595800350311038,PPG_2,PPG_3,95412.0,95412.0,779.0815403646848,118.56913851160608,0.9660886771171981
63865.0676347137,8.605889317856054,PPG_2,PPG_3,95402.0,95402.0,769.0221105116361,119.20933760479471,0.971307714285507
63865.07772368124,8.61597828540107,PPG_2,PPG_3,95434.0,95434.0,800.9626806585729,120.07011418900267,0.9783249453850014
63865.08781264879,8.626067252946086,PPG_2,PPG_3,95384.0,95384.0,750.9032508055243,120.96424420376847,0.9856140806399749
63865.09790161634,8.636156220498378,PPG_2,PPG_3,95420.0,95420.0,786.8438209524757,121.72620128481199,0.9918257144409784
63865.107990583885,8.646245188043395,PPG_2,PPG_3,95437.0,95437.0,803.7843910994125,122.22567499555848,0.995897528801095
63865.11807955143,8.65633415558841,PPG_2,PPG_3,95427.0,95427.0,793.7249612463638,122.37724875267162,0.9971331898329995
63865.12816851898,8.666423123140703,PPG_2,PPG_3,95424.0,95424.0,790.6655313933152,122.14397458324738,0.9952314899187311
63865.13825748653,8.67651209068572,PPG_2,PPG_3,95399.0,95399.0,765.606101540252,121.53205980683902,0.990243032428099
63865.14834645407,8.686601058230735,PPG_2,PPG_3,95389.0,95389.0,755.5466716872033,120.57766850960104,0.9824626345700096
63865.158435421625,8.696690025783028,PPG_2,PPG_3,95410.0,95410.0,776.4872418341547,119.33142120585914,0.9723029653853216
63865.16852438917,8.706778993328044,PPG_2,PPG_3,95419.0,95419.0,785.4278119810915,117.84705945426882,0.9602021373223185
63865.178613356715,8.71686796087306,PPG_2,PPG_3,95439.0,95439.0,805.3683821280429,116.17683256606901,0.946586097715628
63865.18870232427,8.726956928425352,PPG_2,PPG_3,95405.0,95405.0,771.3089522749942,114.37070903153412,0.9318622001694037
63865.19879129181,8.737045895970368,PPG_2,PPG_3,95413.0,95413.0,779.249522421931,112.47456752830634,0.9164044572781572
63865.20888025936,8.747134863515384,PPG_2,PPG_3,95407.0,95407.0,773.1900925688824,110.52534317032567,0.9005139718308797
63865.21896922691,8.757223831067677,PPG_2,PPG_3,95424.0,95424.0,790.1306627158338,108.54456782058729,0.8843662760869421
63865.229058194454,8.767312798612693,PPG_2,PPG_3,95357.0,95357.0,723.0712328627706,106.53238663845939,0.8679625534159336
63865.239147162,8.777401766157709,PPG_2,PPG_3,95412.0,95412.0,778.0118030097219,104.46404578030983,0.8511010052971301
63865.249236129544,8.787490733702725,PPG_2,PPG_3,95413.0,95413.0,778.9523731566733,102.29183145300132,0.8333926588899352
63865.2593250971,8.797579701255017,PPG_2,PPG_3,95395.0,95395.0,760.8929433036101,99.95410925461343,0.814335057633739
63865.26941406464,8.807668668800034,PPG_2,PPG_3,95425.0,95425.0,790.8335134505614,97.3888770241965,0.7934227469192575
63865.27950303219,8.81775763634505,PPG_2,PPG_3,95399.0,95399.0,764.7740835975128,94.54698863518165,0.7702550772235992
63865.28959199974,8.827846603897342,PPG_2,PPG_3,95383.0,95383.0,748.7146537444496,91.4013874378059,0.7446114770678833
63865.29968096728,8.837935571442358,PPG_2,PPG_3,95372.0,95372.0,737.655223891401,87.9513933459583,0.7164864022476138
63865.30976993483,8.848024538987374,PPG_2,PPG_3,95410.0,95410.0,775.5957940383523,84.22413844434037,0.6861010392030992
63865.31985890238,8.858113506539667,PPG_2,PPG_3,95389.0,95389.0,754.5363641852891,80.27571266490733,0.6539126448138892
63865.32994786993,8.868202474084683,PPG_2,PPG_3,95380.0,95380.0,745.4769343322405,76.19124251006822,0.6206151881668006
63865.34003683747,8.878291441629699,PPG_2,PPG_3,95385.0,95385.0,750.4175044791773,72.08068112053645,0.5871050303067974
63865.350125805024,8.888380409181991,PPG_2,PPG_3,95378.0,95378.0,743.3580746261287,68.0684910435553,0.5543968160014778
63865.36021477257,8.898469376727007,PPG_2,PPG_3,95335.0,95335.0,700.29864477308,64.27776343019653,0.5234940101094594
63865.370303740114,8.908558344272024,PPG_2,PPG_3,95318.0,95318.0,683.2392149200168,60.811463912250105,0.4952360100386543
63865.380392707666,8.918647311824316,PPG_2,PPG_3,95362.0,95362.0,727.1797850669682,57.73666083379183,0.4701695709848642
63865.39048167521,8.928736279369332,PPG_2,PPG_3,95366.0,95366.0,731.1203552139195,55.07828031334786,0.4484978958898519
63865.40057064275,8.938825246914348,PPG_2,PPG_3,95357.0,95357.0,722.0609253608563,52.82340539429205,0.43011568301631314
63865.41065961031,8.94891421446664,PPG_2,PPG_3,95353.0,95353.0,718.0014955078077,50.930495211251355,0.4146842825243898
63865.42074857785,8.959003182011656,PPG_2,PPG_3,95323.0,95323.0,687.9420656547591,49.33744066396517,0.4016973680131248
63865.4308375454,8.969092149556673,PPG_2,PPG_3,95332.0,95332.0,696.8826358016959,47.96712390819565,0.39052625865541374
63865.44092651294,8.979181117101689,PPG_2,PPG_3,95332.0,95332.0,696.8232059486472,46.73332684674776,0.38046808645498914
63865.451015480496,8.989270084653981,PPG_2,PPG_3,95362.0,95362.0,726.7637760955986,45.54996755553233,0.37082109352727916
63865.46110444804,8.999359052198997,PPG_2,PPG_3,95332.0,95332.0,696.7043462425354,44.34309372541765,0.36098240515073693
63865.471193415586,9.009448019744012,PPG_2,PPG_3,95348.0,95348.0,712.6449163894868,43.061508032794045,0.3505346500143441
63865.48128238314,9.019536987296306,PPG_2,PPG_3,95326.0,95326.0,690.5854865364381,41.68186042919791,0.3392874736297705
63865.49137135068,9.029625954841322,PPG_2,PPG_3,95327.0,95327.0,691.5260566833749,40.2067554026699,0.3272621083293222
63865.50146031823,9.039714922386338,PPG_2,PPG_3,95309.0,95309.0,673.4666268303263,38.65701501884733,0.31462829995556335
63865.51154928578,9.04980388993863,PPG_2,PPG_3,95325.0,95325.0,689.4071969772776,37.06065603605762,0.3016144469935934
63865.521638253325,9.059892857483646,PPG_2,PPG_3,95302.0,95302.0,666.3477671242144,35.441351456007915,0.2884135367142622
63865.53172722087,9.069981825028664,PPG_2,PPG_3,95284.0,95284.0,648.2883372711658,33.80853135025338,0.2751024450370608
63865.54181618842,9.080070792580957,PPG_2,PPG_3,95327.0,95327.0,691.2289074181172,32.151113062306955,0.2615908238238164
63865.55190515597,9.090159760125973,PPG_2,PPG_3,95325.0,95325.0,689.169477565054,30.43629204784539,0.24761124355465908
63865.56199412351,9.100248727670987,PPG_2,PPG_3,95289.0,95289.0,653.1100477120053,28.611771401922972,0.23273736890109023
63865.572083091065,9.11033769522328,PPG_2,PPG_3,95274.0,95274.0,638.0506178589567,26.6074982576732,0.21639811421207913
63865.58217205861,9.120426662768296,PPG_2,PPG_3,95289.0,95289.0,652.9911880058935,24.336014615277136,0.19788050354533324
63865.592261026155,9.130515630313312,PPG_2,PPG_3,95262.0,95262.0,625.9317581528448,21.695199186188912,0.17635202275600756
63865.6023499937,9.140604597858328,PPG_2,PPG_3,95284.0,95284.0,647.8723282997962,18.57737895038031,0.15093489882078764
63865.61243896125,9.15069356541062,PPG_2,PPG_3,95275.0,95275.0,638.812898446733,14.885622663650333,0.12083892792395769
63865.6225279288,9.160782532955636,PPG_2,PPG_3,95307.0,95307.0,670.7534685936844,10.554810000881576,0.08553323552849311
63865.63261689634,9.170871500500652,PPG_2,PPG_3,95256.0,95256.0,619.6940387406357,5.572299029184489,0.04491476194822471
63865.642705863895,9.180960468052945,PPG_2,PPG_3,95282.0,95282.0,645.6346088875725,-0.008096739586127876,-0.000577793791004515
63865.65279483144,9.19104943559796,PPG_2,PPG_3,95246.0,95246.0,609.5751790345239,-6.063047783256221,-0.04993902357939814
63865.662883798985,9.201138403142975,PPG_2,PPG_3,95249.0,95249.0,612.5157491814753,-12.408423046661913,-0.10166785246860868
63865.67297276654,9.21122737069527,PPG_2,PPG_3,95194.0,95194.0,557.4563193284121,-18.818208673338134,-0.15392176813708797
63865.68306173408,9.221316338240284,PPG_2,PPG_3,95218.0,95218.0,581.3968894753634,-25.04980581746709,-0.20472305395452065
63865.69315070163,9.231405305785302,PPG_2,PPG_3,95208.0,95208.0,571.3374596223148,-30.869956490802963,-0.2521701419189959
63865.70323966918,9.241494273337594,PPG_2,PPG_3,95182.0,95182.0,545.2780297692516,-36.07641256804588,-0.2946142629297897
63865.71332863672,9.25158324088261,PPG_2,PPG_3,95193.0,95193.0,556.218599916203,-40.51337507827249,-0.33078531112657783
63865.72341760427,9.261672208427626,PPG_2,PPG_3,95188.0,95188.0,551.1591700631543,-44.080286039521994,-0.35986351676740447
63865.73350657182,9.271761175979918,PPG_2,PPG_3,95178.0,95178.0,541.0997402100911,-46.733937281291304,-0.38149663779158954
63865.74359553937,9.281850143524936,PPG_2,PPG_3,95174.0,95174.0,537.0403103570425,-48.48477204484197,-0.39576980969039127
63865.75368450691,9.29193911106995,PPG_2,PPG_3,95192.0,95192.0,554.9808805039938,-49.38885347273707,-0.403140070950621
63865.763773474464,9.302028078622245,PPG_2,PPG_3,95184.0,95184.0,546.9214506509306,-49.53723444053947,-0.40434970369498074
63865.77386244201,9.31211704616726,PPG_2,PPG_3,95176.0,95176.0,538.862020797882,-49.045491240748,-0.40034091008018147
63865.783951409554,9.322206013712275,PPG_2,PPG_3,95156.0,95156.0,518.8025909448334,-48.046401276322726,-0.39219611932009274
63865.7940403771,9.332294981257292,PPG_2,PPG_3,95163.0,95163.0,525.7431610917702,-46.686333616772664,-0.3811085627425715
63865.80412934465,9.342383948809584,PPG_2,PPG_3,95157.0,95157.0,519.6837312387215,-45.12285228642764,-0.3683627352931978
63865.81421831219,9.3524729163546,PPG_2,PPG_3,95165.0,95165.0,527.6243013856729,-43.52038194138425,-0.35529906122543387
63865.82430727974,9.362561883899616,PPG_2,PPG_3,95156.0,95156.0,518.5648715326097,-42.042503102067705,-0.343251083221851
63865.83439624729,9.372650851451908,PPG_2,PPG_3,95174.0,95174.0,536.505441679561,-40.841355076249364,-0.3334590728018366
63865.84448521484,9.382739818996924,PPG_2,PPG_3,95167.0,95167.0,529.4460118265124,-40.04580530116471,-0.3269735843192979
63865.854574182384,9.39282878654194,PPG_2,PPG_3,95154.0,95154.0,516.3865819734492,-39.750793699162635,-0.3245685879169091
63865.864663149936,9.402917754094233,PPG_2,PPG_3,95153.0,95153.0,515.3271521204006,-40.00998579597718,-0.3266815762066449
63865.87475211748,9.413006721639247,PPG_2,PPG_3,95180.0,95180.0,542.2677222673519,-40.83240486764324,-0.3333861088256666
63865.884841085026,9.423095689184263,PPG_2,PPG_3,95147.0,95147.0,509.20829241428874,-42.18324140544397,-0.344398411364206
63865.89493005258,9.433184656736556,PPG_2,PPG_3,95138.0,95138.0,500.1488625612401,-43.99010323739371,-0.3591283276656744
63865.90501902012,9.443273624281574,PPG_2,PPG_3,95120.0,95120.0,482.08943270819145,-46.15523339738497,-0.37677892245633526
63865.91510798767,9.45336259182659,PPG_2,PPG_3,95111.0,95111.0,473.03000285512826,-48.57068268541735,-0.39647017123586453
63865.92519695522,9.463451559378882,PPG_2,PPG_3,95138.0,95138.0,499.9705730020796,-51.13101199128032,-0.4173425122819214
63865.935285922766,9.473540526923898,PPG_2,PPG_3,95123.0,95123.0,484.911143149031,-53.739821448732954,-0.4386100736832767
63865.94537489031,9.483629494468914,PPG_2,PPG_3,95127.0,95127.0,488.8517132959678,-56.310722750170854,-0.4595685998527363
63865.95546385786,9.493718462021208,PPG_2,PPG_3,95099.0,95099.0,460.79228344291914,-58.76619284273755,-0.4795861066176212
63865.96555282541,9.503807429566224,PPG_2,PPG_3,95123.0,95123.0,484.73285358985595,-61.03691236258872,-0.49809748799725095
63865.97564179295,9.51389639711124,PPG_2,PPG_3,95099.0,95099.0,460.6734237368073,-63.06200404240198,-0.5146064597509246
63865.9857307605,9.523985364656255,PPG_2,PPG_3,95116.0,95116.0,477.61399388375867,-64.79011094393607,-0.5286943493556983
63865.99581972805,9.534074332208547,PPG_2,PPG_3,95085.0,95085.0,446.5545640306955,-66.18204160204992,-0.540041659774747
63866.005908695595,9.544163299753563,PPG_2,PPG_3,95078.0,95078.0,439.49513417764683,-67.21543477154536,-0.5484660974511749
63866.01599766314,9.55425226729858,PPG_2,PPG_3,95087.0,95087.0,448.4357043245982,-67.89000167487713,-0.5539653082099166
63866.02608663069,9.564341234850872,PPG_2,PPG_3,95083.0,95083.0,444.376274471535,-68.23043700608515,-0.5567406083718254
63866.03617559824,9.574430202395888,PPG_2,PPG_3,95076.0,95076.0,437.31684461848636,-68.28501682484435,-0.5571855544921409
63866.04626456578,9.584519169940904,PPG_2,PPG_3,95100.0,95100.0,461.2574147654377,-68.12011916067028,-0.5558412741777072
63866.056353533335,9.594608137493196,PPG_2,PPG_3,95077.0,95077.0,438.1979849123745,-67.81241016311809,-0.5533327659459175
63866.06644250088,9.604697105038213,PPG_2,PPG_3,95067.0,95067.0,428.1385550593259,-67.44091553605134,-0.5503042638953575
63866.076531468425,9.614786072583229,PPG_2,PPG_3,95083.0,95083.0,444.07912520627724,-67.08027654606039,-0.5473642592731554
63866.08662043598,9.62487504013552,PPG_2,PPG_3,95084.0,95084.0,445.01969535321405,-66.79482116319268,-0.5450371671717589
63866.09670940352,9.634964007680535,PPG_2,PPG_3,95052.0,95052.0,412.9602655001654,-66.63301884705182,-0.5437181207831555
63866.10679837107,9.645052975225552,PPG_2,PPG_3,95073.0,95073.0,433.90083564711676,-66.62267839927182,-0.5436338232859005
63866.11688733862,9.655141942777846,PPG_2,PPG_3,95101.0,95101.0,461.84140579405357,-66.76680360385492,-0.5448087621566553
63866.126976306165,9.665230910322862,PPG_2,PPG_3,95067.0,95067.0,427.78197594100493,-67.04055993473413,-0.5470404811345788
63866.13706527371,9.675319877867878,PPG_2,PPG_3,95050.0,95050.0,410.7225460879563,-67.39201962847588,-0.5499056542101367
63866.14715424126,9.68540884542017,PPG_2,PPG_3,95059.0,95059.0,419.6631162348931,-67.74850638433468,-0.552811808949548
63866.15724320881,9.695497812965186,PPG_2,PPG_3,95076.0,95076.0,436.60368638184445,-68.02631142101706,-0.5550765338256289
63866.16733217635,9.705586780510204,PPG_2,PPG_3,95043.0,95043.0,403.5442565287958,-68.14044377930041,-0.5560069647280234
63866.1774211439,9.71567574805522,PPG_2,PPG_3,95070.0,95070.0,430.4848266757326,-68.01360200960673,-0.5549729240404175
63866.18751011145,9.72576471560751,PPG_2,PPG_3,95055.0,95055.0,415.425396822684,-67.58491347429444,-0.5514781652642387
63866.197599078994,9.735853683152529,PPG_2,PPG_3,95044.0,95044.0,404.36596696963534,-66.81838897234013,-0.5452292968908179
63866.20768804654,9.745942650697543,PPG_2,PPG_3,95054.0,95054.0,414.30653711657214,-65.71034039788861,-0.5361962527083416
63866.21777701409,9.756031618249835,PPG_2,PPG_3,95020.0,95020.0,380.2471072635235,-64.29405758926357,-0.5246504184550694
63866.22786598164,9.766120585794852,PPG_2,PPG_3,95062.0,95062.0,422.18767741047486,-62.638962308357016,-0.5111577348820251
63866.23795494918,9.776209553339868,PPG_2,PPG_3,95074.0,95074.0,434.12824755741167,-60.84200461369756,-0.49650855918326614
63866.248043916734,9.78629852089216,PPG_2,PPG_3,95089.0,95089.0,449.068817704363,-59.01262729997588,-0.4815950919560305
63866.25813288428,9.796387488437176,PPG_2,PPG_3,95039.0,95039.0,399.0093878513144,-57.25714221119835,-0.46728400963145345
63866.268221851824,9.806476455982192,PPG_2,PPG_3,95070.0,95070.0,429.9499579982512,-55.668561329333535,-0.4543335653782083
63866.278310819376,9.816565423534485,PPG_2,PPG_3,95044.0,95044.0,403.89052814520255,-54.32295028227273,-0.4433638621352388
63866.28839978692,9.8266543910795,PPG_2,PPG_3,95069.0,95069.0,428.8310982921539,-53.27918133633505,-0.43485483895489774
63866.298488754466,9.836743358624515,PPG_2,PPG_3,95033.0,95033.0,392.7716684390907,-52.57903250966981,-0.42914707899617327
63866.30857772202,9.84683232617681,PPG_2,PPG_3,95057.0,95057.0,416.7122385860421,-52.24596274496119,-0.42643182447590167
63866.31866668956,9.856921293721824,PPG_2,PPG_3,95063.0,95063.0,422.65280873299344,-52.28123395800699,-0.4267193627961147
63866.32875565711,9.867010261266842,PPG_2,PPG_3,95062.0,95062.0,421.59337887993024,-52.65698715706685,-0.4297825816179923
63866.33884462465,9.877099228811858,PPG_2,PPG_3,95081.0,95081.0,440.5339490268816,-53.308374161890875,-0.43509282498650076
63866.348933592206,9.88718819636415,PPG_2,PPG_3,95054.0,95054.0,413.47451917383296,-54.12880087602129,-0.4417811154893718
63866.35902255975,9.897277163909166,PPG_2,PPG_3,95056.0,95056.0,415.41508932076977,-54.97183041354352,-0.4486536689451988
63866.369111527296,9.907366131454182,PPG_2,PPG_3,95052.0,95052.0,411.3556594677211,-55.66063885590435,-0.4542689797145737
63866.37920049485,9.917455099006474,PPG_2,PPG_3,95045.0,95045.0,404.2962296146725,-56.0030679862261,-0.4570605337446797
63866.38928946239,9.92754406655149,PPG_2,PPG_3,95064.0,95064.0,423.2367997616093,-55.80929733884844,-0.4554808748205248
63866.39937842994,9.937633034096509,PPG_2,PPG_3,95056.0,95056.0,415.17736990856065,-54.9101506383733,-0.44815084249234804
