timestamp,PPG_1,PPG_2,PPG_3,time_from_segment_start_sec
63102.988402526855,171408.0,143123.0,13859.0,0.0
63102.99851169096,171396.0,143116.0,13831.0,0.010109164104505908
63103.008620855064,171437.0,143115.0,13875.0,0.020218328209011815
63103.018730019176,171397.0,143133.0,13834.0,0.03032749232079368
63103.02883918328,171422.0,143139.0,13847.0,0.04043665642529959
63103.038948347385,171411.0,143138.0,13836.0,0.050545820529805496
63103.049057511496,171428.0,143121.0,13850.0,0.06065498464158736
63103.0591666756,171423.0,143168.0,13874.0,0.07076414874609327
63103.069275839705,171420.0,143126.0,13846.0,0.08087331285059918
63103.07938500382,171399.0,143127.0,13854.0,0.09098247696238104
63103.08949416792,171427.0,143151.0,13845.0,0.10109164106688695
63103.099603332026,171435.0,143164.0,13882.0,0.11120080517139286
63103.10971249614,171433.0,143127.0,13853.0,0.12130996928317472
63103.11982166024,171418.0,143128.0,13844.0,0.13141913338768063
63103.12993082435,171459.0,143143.0,13844.0,0.14152829749218654
63103.14003998846,171463.0,143159.0,13851.0,0.1516374616039684
63103.15014915256,171431.0,143147.0,13852.0,0.1617466257084743
63103.16025831667,171422.0,143152.0,13873.0,0.17185578981298022
63103.17036748078,171421.0,143144.0,13849.0,0.18196495392476209
63103.180476644884,171438.0,143163.0,13878.0,0.192074118029268
63103.19058580899,171444.0,143136.0,13863.0,0.2021832821337739
63103.2006949731,171465.0,143146.0,13867.0,0.21229244624555577
63103.210804137205,171452.0,143114.0,13858.0,0.22240161035006167
63103.22091330131,171475.0,143154.0,13870.0,0.23251077445456758
63103.23102246542,171450.0,143146.0,13858.0,0.24261993856634945
63103.241131629526,171436.0,143146.0,13903.0,0.25272910267085535
63103.25124079363,171424.0,143125.0,13837.0,0.26283826677536126
63103.26134995774,171424.0,143149.0,13851.0,0.2729474308871431
63103.27145912185,171458.0,143139.0,13858.0,0.28305659499164904
63103.28156828595,171479.0,143151.0,13876.0,0.29316575909615494
63103.291677450055,171435.0,143133.0,13854.0,0.30327492320066085
63103.30178661417,171452.0,143123.0,13845.0,0.3133840873124427
63103.31189577827,171458.0,143140.0,13877.0,0.3234932514169486
63103.322004942376,171477.0,143161.0,13869.0,0.33360241552145453
63103.33211410649,171440.0,143129.0,13838.0,0.3437115796332364
63103.34222327059,171453.0,143140.0,13845.0,0.3538207437377423
63103.3523324347,171476.0,143151.0,13871.0,0.3639299078422482
63103.36244159881,171481.0,143174.0,13870.0,0.3740390719540301
63103.37255076291,171478.0,143156.0,13881.0,0.384148236058536
63103.38265992702,171441.0,143137.0,13877.0,0.3942574001630419
63103.39276909113,171460.0,143157.0,13858.0,0.40436656427482376
63103.402878255234,171438.0,143125.0,13871.0,0.41447572837932967
63103.41298741934,171435.0,143131.0,13856.0,0.4245848924838356
63103.42309658345,171458.0,143130.0,13854.0,0.43469405659561744
63103.433205747555,171476.0,143158.0,13887.0,0.44480322070012335
63103.44331491166,171474.0,143192.0,13859.0,0.45491238480462926
63103.45342407577,171466.0,143137.0,13863.0,0.4650215489164111
63103.463533239876,171459.0,143137.0,13866.0,0.47513071302091703
63103.47364240398,171475.0,143138.0,13857.0,0.48523987712542294
63103.48375156809,171482.0,143154.0,13868.0,0.4953490412372048
63103.4938607322,171483.0,143178.0,13889.0,0.5054582053417107
63103.5039698963,171466.0,143181.0,13872.0,0.5155673694462166
63103.51407906041,171464.0,143177.0,13897.0,0.5256765335579985
63103.52418822452,171472.0,143157.0,13874.0,0.5357856976625044
63103.53429738862,171519.0,143157.0,13898.0,0.5458948617670103
63103.54440655273,171481.0,143141.0,13881.0,0.5560040258787922
63103.55451571684,171483.0,143147.0,13867.0,0.5661131899832981
63103.56462488094,171481.0,143161.0,13866.0,0.576222354087804
63103.574734045054,171528.0,143169.0,13906.0,0.5863315181995858
63103.58484320916,171498.0,143154.0,13891.0,0.5964406823040918
63103.59495237326,171437.0,143126.0,13861.0,0.6065498464085977
63103.60506153737,171485.0,143158.0,13862.0,0.6166590105131036
63103.61517070148,171453.0,143157.0,13852.0,0.6267681746248854
63103.625279865584,171511.0,143139.0,13880.0,0.6368773387293913
63103.63538902969,171492.0,143157.0,13840.0,0.6469865028338972
63103.6454981938,171471.0,143143.0,13860.0,0.6570956669456791
63103.655607357905,171449.0,143128.0,13849.0,0.667204831050185
63103.66571652201,171474.0,143156.0,13840.0,0.6773139951546909
63103.67582568612,171430.0,143111.0,13836.0,0.6874231592664728
63103.685934850226,171434.0,143125.0,13851.0,0.6975323233709787
63103.69604401433,171403.0,143104.0,13839.0,0.7076414874754846
63103.70615317844,171428.0,143167.0,13877.0,0.7177506515872665
63103.71626234255,171413.0,143081.0,13838.0,0.7278598156917724
63103.72637150665,171425.0,143106.0,13857.0,0.7379689797962783
63103.73648067076,171424.0,143105.0,13838.0,0.7480781439080602
63103.74658983487,171458.0,143131.0,13861.0,0.7581873080125661
63103.75669899897,171457.0,143137.0,13854.0,0.768296472117072
63103.76680816308,171441.0,143132.0,13844.0,0.7784056362288538
63103.77691732719,171430.0,143114.0,13882.0,0.7885148003333597
63103.78702649129,171437.0,143143.0,13838.0,0.7986239644378657
63103.797135655404,171414.0,143135.0,13855.0,0.8087331285496475
63103.80724481951,171439.0,143124.0,13849.0,0.8188422926541534
63103.81735398361,171456.0,143130.0,13857.0,0.8289514567586593
63103.827463147725,171463.0,143156.0,13836.0,0.8390606208704412
63103.83757231183,171450.0,143130.0,13885.0,0.8491697849749471
63103.847681475934,171413.0,143104.0,13848.0,0.859278949079453
63103.857790640046,171447.0,143134.0,13858.0,0.8693881131912349
63103.86789980415,171421.0,143126.0,13849.0,0.8794972772957408
63103.878008968255,171488.0,143163.0,13882.0,0.8896064414002467
63103.88811813237,171439.0,143117.0,13857.0,0.8997156055120286
63103.89822729647,171455.0,143140.0,13845.0,0.9098247696165345
63103.908336460576,171443.0,143136.0,13830.0,0.9199339337210404
63103.91844562468,171435.0,143125.0,13857.0,0.9300430978255463
63103.92855478879,171445.0,143136.0,13846.0,0.9401522619373281
63103.9386639529,171460.0,143163.0,13850.0,0.9502614260418341
63103.948773117,171444.0,143110.0,13854.0,0.96037059014634
63103.95888228111,171433.0,143139.0,13838.0,0.9704797542581218
63103.96899144522,171432.0,143151.0,13850.0,0.9805889183626277
63103.97910060932,171423.0,143121.0,13874.0,0.9906980824671336
63103.989209773434,171421.0,143123.0,13866.0,1.0008072465789155
63103.99931893754,171422.0,143146.0,13832.0,1.0109164106834214
63104.00942810164,171447.0,143157.0,13841.0,1.0210255747879273
63104.019537265754,171460.0,143148.0,13862.0,1.0311347388997092
63104.02964642986,171434.0,143142.0,13859.0,1.041243903004215
63104.03975559396,171443.0,143148.0,13843.0,1.051353067108721
63104.049864758075,171481.0,143169.0,13872.0,1.0614622312205029
63104.05997392218,171461.0,143159.0,13855.0,1.0715713953250088
63104.070083086284,171490.0,143157.0,13869.0,1.0816805594295147
63104.080192250396,171495.0,143176.0,13862.0,1.0917897235412966
63104.0903014145,171440.0,143129.0,13836.0,1.1018988876458025
63104.100410578605,171483.0,143166.0,13862.0,1.1120080517503084
63104.11051974272,171445.0,143159.0,13845.0,1.1221172158620902
63104.12062890682,171467.0,143140.0,13853.0,1.1322263799665961
63104.130738070926,171501.0,143159.0,13884.0,1.142335544071102
63104.14084723504,171469.0,143160.0,13858.0,1.152444708182884
63104.15095639914,171441.0,143131.0,13877.0,1.1625538722873898
63104.16106556325,171445.0,143164.0,13874.0,1.1726630363918957
63104.17117472736,171492.0,143157.0,13835.0,1.1827722005036776
63104.18128389146,171481.0,143160.0,13864.0,1.1928813646081835
63104.19139305557,171484.0,143121.0,13858.0,1.2029905287126894
63104.20150221968,171459.0,143145.0,13866.0,1.2130996928244713
63104.211611383784,171482.0,143150.0,13851.0,1.2232088569289772
63104.22172054789,171486.0,143160.0,13848.0,1.233318021033483
63104.23182971199,171502.0,143156.0,13867.0,1.243427185137989
63104.241938876105,171480.0,143153.0,13861.0,1.2535363492497709
63104.25204804021,171482.0,143136.0,13858.0,1.2636455133542768
63104.26215720431,171469.0,143142.0,13855.0,1.2737546774587827
63104.272266368425,171488.0,143152.0,13867.0,1.2838638415705645
63104.28237553253,171483.0,143178.0,13902.0,1.2939730056750705
63104.292484696634,171466.0,143121.0,13860.0,1.3040821697795764
63104.302593860746,171492.0,143171.0,13848.0,1.3141913338913582
63104.31270302485,171501.0,143172.0,13871.0,1.3243004979958641
63104.322812188955,171490.0,143169.0,13854.0,1.33440966210037
63104.33292135307,171504.0,143174.0,13858.0,1.344518826212152
63104.34303051717,171493.0,143185.0,13888.0,1.3546279903166578
63104.353139681276,171500.0,143160.0,13854.0,1.3647371544211637
63104.36324884539,171495.0,143169.0,13858.0,1.3748463185329456
63104.37335800949,171498.0,143155.0,13864.0,1.3849554826374515
63104.3834671736,171446.0,143115.0,13841.0,1.3950646467419574
63104.39357633771,171495.0,143158.0,13859.0,1.4051738108537393
63104.40368550181,171475.0,143168.0,13881.0,1.4152829749582452
63104.41379466592,171520.0,143187.0,13891.0,1.425392139062751
63104.42390383003,171520.0,143142.0,13892.0,1.435501303174533
63104.434012994134,171525.0,143173.0,13873.0,1.4456104672790389
63104.44412215824,171506.0,143183.0,13893.0,1.4557196313835448
63104.45423132235,171520.0,143184.0,13891.0,1.4658287954953266
63104.464340486455,171541.0,143176.0,13891.0,1.4759379595998325
63104.47444965056,171511.0,143174.0,13873.0,1.4860471237043384
63104.48455881467,171488.0,143171.0,13865.0,1.4961562878161203
63104.494667978775,171491.0,143172.0,13874.0,1.5062654519206262
63104.50477714288,171512.0,143174.0,13879.0,1.5163746160251321
63104.51488630699,171485.0,143136.0,13877.0,1.526483780136914
63104.524995471096,171484.0,143146.0,13858.0,1.53659294424142
63104.5351046352,171473.0,143125.0,13854.0,1.5467021083459258
63104.545213799305,171481.0,143171.0,13843.0,1.5568112724504317
63104.55532296342,171466.0,143151.0,13864.0,1.5669204365622136
63104.56543212752,171482.0,143121.0,13831.0,1.5770296006667195
63104.575541291626,171484.0,143175.0,13869.0,1.5871387647712254
63104.58565045574,171471.0,143152.0,13832.0,1.5972479288830073
63104.59575961984,171456.0,143149.0,13854.0,1.6073570929875132
63104.60586878395,171464.0,143187.0,13863.0,1.617466257092019
63104.61597794806,171458.0,143146.0,13828.0,1.627575421203801
63104.62608711216,171461.0,143127.0,13851.0,1.6376845853083069
63104.63619627627,171483.0,143145.0,13869.0,1.6477937494128128
63104.64630544038,171433.0,143152.0,13838.0,1.6579029135245946
63104.656414604484,171437.0,143151.0,13844.0,1.6680120776291005
63104.66652376859,171443.0,143161.0,13851.0,1.6781212417336064
63104.6766329327,171482.0,143180.0,13870.0,1.6882304058453883
63104.686742096805,171475.0,143168.0,13868.0,1.6983395699498942
63104.69685126091,171465.0,143173.0,13883.0,1.7084487340544001
63104.70696042502,171486.0,143165.0,13841.0,1.718557898166182
63104.717069589125,171500.0,143188.0,13878.0,1.728667062270688
63104.72717875323,171476.0,143174.0,13857.0,1.7387762263751938
63104.73728791734,171454.0,143168.0,13877.0,1.7488853904869757
63104.747397081446,171461.0,143162.0,13837.0,1.7589945545914816
63104.75750624555,171506.0,143182.0,13879.0,1.7691037186959875
63104.76761540966,171473.0,143162.0,13861.0,1.7792128828077693
63104.77772457377,171462.0,143119.0,13834.0,1.7893220469122753
63104.78783373787,171468.0,143146.0,13876.0,1.7994312110167812
63104.79794290198,171492.0,143207.0,13850.0,1.809540375128563
63104.80805206609,171466.0,143166.0,13861.0,1.819649539233069
63104.81816123019,171475.0,143188.0,13894.0,1.8297587033375748
63104.828270394304,171452.0,143143.0,13841.0,1.8398678674493567
63104.83837955841,171446.0,143170.0,13853.0,1.8499770315538626
63104.84848872251,171490.0,143161.0,13851.0,1.8600861956583685
63104.85859788662,171514.0,143167.0,13885.0,1.8701953597628744
63104.86870705073,171456.0,143137.0,13872.0,1.8803045238746563
63104.878816214834,171488.0,143148.0,13888.0,1.8904136879791622
63104.88892537894,171483.0,143169.0,13868.0,1.9005228520836681
63104.89903454305,171469.0,143151.0,13852.0,1.91063201619545
63104.909143707155,171457.0,143155.0,13842.0,1.9207411802999559
63104.91925287126,171498.0,143163.0,13850.0,1.9308503444044618
63104.92936203537,171482.0,143153.0,13861.0,1.9409595085162437
63104.939471199476,171488.0,143182.0,13871.0,1.9510686726207496
63104.94958036358,171478.0,143169.0,13843.0,1.9611778367252555
63104.95968952769,171478.0,143147.0,13863.0,1.9712870008370373
63104.969798691796,171505.0,143172.0,13838.0,1.9813961649415432
63104.9799078559,171466.0,143158.0,13892.0,1.9915053290460492
63104.99001702001,171457.0,143146.0,13856.0,2.001614493157831
63105.00012618412,171483.0,143166.0,13858.0,2.011723657262337
63105.01023534822,171515.0,143165.0,13874.0,2.021832821366843
63105.02034451233,171494.0,143170.0,13873.0,2.0319419854786247
63105.03045367644,171493.0,143145.0,13875.0,2.0420511495831306
63105.04056284054,171469.0,143167.0,13847.0,2.0521603136876365
63105.050672004654,171495.0,143173.0,13836.0,2.0622694777994184
63105.06078116876,171501.0,143172.0,13872.0,2.0723786419039243
63105.07089033286,171487.0,143144.0,13882.0,2.08248780600843
63105.080999496975,171484.0,143165.0,13866.0,2.092596970120212
63105.09110866108,171514.0,143193.0,13887.0,2.102706134224718
63105.101217825184,171511.0,143164.0,13877.0,2.112815298329224
63105.111326989296,171532.0,143171.0,13892.0,2.1229244624410057
63105.1214361534,171510.0,143156.0,13885.0,2.1330336265455117
63105.131545317505,171506.0,143153.0,13868.0,2.1431427906500176
63105.14165448162,171508.0,143167.0,13872.0,2.1532519547617994
63105.15176364572,171535.0,143190.0,13836.0,2.1633611188663053
63105.161872809826,171509.0,143171.0,13881.0,2.1734702829708112
63105.17198197393,171516.0,143179.0,13885.0,2.183579447075317
63105.18209113804,171506.0,143187.0,13874.0,2.193688611187099
63105.19220030215,171466.0,143181.0,13856.0,2.203797775291605
63105.20230946625,171476.0,143163.0,13862.0,2.213906939396111
63105.21241863036,171500.0,143160.0,13858.0,2.2240161035078927
63105.22252779447,171524.0,143178.0,13867.0,2.2341252676123986
63105.23263695857,171503.0,143140.0,13880.0,2.2442344317169045
63105.24274612268,171543.0,143191.0,13883.0,2.2543435958286864
63105.25285528679,171509.0,143156.0,13843.0,2.2644527599331923
63105.26296445089,171533.0,143179.0,13859.0,2.274561924037698
63105.273073615004,171525.0,143156.0,13859.0,2.28467108814948
63105.28318277911,171535.0,143175.0,13890.0,2.294780252253986
63105.29329194321,171539.0,143190.0,13870.0,2.304889416358492
63105.303401107325,171521.0,143164.0,13870.0,2.3149985804702737
63105.31351027143,171514.0,143186.0,13864.0,2.3251077445747796
63105.323619435534,171536.0,143174.0,13896.0,2.3352169086792856
63105.333728599646,171484.0,143159.0,13866.0,2.3453260727910674
63105.34383776375,171515.0,143172.0,13857.0,2.3554352368955733
63105.353946927855,171480.0,143173.0,13866.0,2.3655444010000792
63105.36405609197,171526.0,143189.0,13873.0,2.375653565111861
63105.37416525607,171492.0,143169.0,13835.0,2.385762729216367
63105.384274420176,171490.0,143157.0,13845.0,2.395871893320873
63105.39438358429,171508.0,143158.0,13863.0,2.405981057432655
63105.40449274839,171517.0,143187.0,13864.0,2.4160902215371607
63105.4146019125,171475.0,143165.0,13875.0,2.4261993856416666
63105.42471107661,171457.0,143132.0,13836.0,2.4363085497534485
63105.43482024071,171488.0,143167.0,13858.0,2.4464177138579544
63105.44492940482,171471.0,143208.0,13858.0,2.4565268779624603
63105.45503856893,171490.0,143149.0,13877.0,2.466636042074242
63105.46514773303,171463.0,143152.0,13851.0,2.476745206178748
63105.47525689714,171490.0,143160.0,13855.0,2.486854370283254
63105.48536606124,171475.0,143147.0,13865.0,2.49696353438776
63105.495475225354,171474.0,143171.0,13862.0,2.5070726984995417
63105.50558438946,171496.0,143175.0,13846.0,2.5171818626040476
63105.51569355356,171498.0,143163.0,13861.0,2.5272910267085535
63105.525802717675,171496.0,143151.0,13851.0,2.5374001908203354
63105.53591188178,171518.0,143191.0,13887.0,2.5475093549248413
63105.546021045884,171473.0,143175.0,13853.0,2.5576185190293472
63105.556130209996,171515.0,143177.0,13867.0,2.567727683141129
63105.5662393741,171498.0,143163.0,13856.0,2.577836847245635
63105.576348538205,171519.0,143180.0,13876.0,2.587946011350141
63105.58645770232,171441.0,143121.0,13864.0,2.5980551754619228
63105.59656686642,171505.0,143168.0,13870.0,2.6081643395664287
63105.606676030526,171489.0,143173.0,13891.0,2.6182735036709346
63105.61678519464,171527.0,143202.0,13875.0,2.6283826677827165
63105.62689435874,171523.0,143174.0,13877.0,2.6384918318872224
63105.63700352285,171516.0,143167.0,13855.0,2.6486009959917283
63105.64711268696,171516.0,143163.0,13840.0,2.65871016010351
63105.65722185106,171525.0,143162.0,13842.0,2.668819324208016
63105.66733101517,171516.0,143199.0,13891.0,2.678928488312522
63105.67744017928,171509.0,143171.0,13860.0,2.689037652424304
63105.68754934338,171484.0,143174.0,13840.0,2.6991468165288097
63105.69765850749,171490.0,143185.0,13868.0,2.7092559806333156
63105.7077676716,171525.0,143175.0,13883.0,2.7193651447450975
63105.717876835704,171494.0,143139.0,13872.0,2.7294743088496034
63105.72798599981,171491.0,143153.0,13869.0,2.7395834729541093
63105.73809516392,171496.0,143143.0,13853.0,2.749692637065891
63105.748204328025,171528.0,143179.0,13847.0,2.759801801170397
63105.75831349213,171527.0,143186.0,13884.0,2.769910965274903
63105.76842265624,171520.0,143198.0,13878.0,2.780020129386685
63105.778531820346,171528.0,143204.0,13873.0,2.7901292934911908
63105.78864098445,171488.0,143189.0,13869.0,2.8002384575956967
63105.798750148555,171506.0,143176.0,13878.0,2.8103476217002026
63105.80885931267,171524.0,143174.0,13872.0,2.8204567858119844
63105.81896847677,171502.0,143165.0,13860.0,2.8305659499164904
63105.829077640876,171538.0,143152.0,13875.0,2.8406751140209963
63105.83918680499,171545.0,143200.0,13884.0,2.850784278132778
63105.84929596909,171540.0,143160.0,13867.0,2.860893442237284
63105.8594051332,171507.0,143160.0,13870.0,2.87100260634179
63105.86951429731,171516.0,143161.0,13852.0,2.881111770453572
63105.87962346141,171544.0,143186.0,13894.0,2.8912209345580777
63105.88973262552,171539.0,143182.0,13870.0,2.9013300986625836
63105.89984178963,171529.0,143159.0,13845.0,2.9114392627743655
63105.909950953734,171525.0,143188.0,13870.0,2.9215484268788714
63105.92006011784,171555.0,143195.0,13897.0,2.9316575909833773
63105.93016928195,171539.0,143186.0,13868.0,2.941766755095159
63105.940278446054,171514.0,143211.0,13885.0,2.951875919199665
63105.95038761016,171521.0,143168.0,13857.0,2.961985083304171
63105.96049677427,171530.0,143202.0,13866.0,2.972094247415953
63105.970605938375,171542.0,143196.0,13867.0,2.9822034115204588
63105.98071510248,171524.0,143145.0,13847.0,2.9923125756249647
63105.99082426659,171533.0,143159.0,13865.0,3.0024217397367465
63106.000933430696,171532.0,143179.0,13833.0,3.0125309038412524
63106.0110425948,171531.0,143188.0,13866.0,3.0226400679457583
63106.02115175891,171527.0,143190.0,13886.0,3.03274923205754
63106.03126092302,171511.0,143170.0,13879.0,3.042858396162046
63106.04137008712,171521.0,143179.0,13848.0,3.052967560266552
63106.05147925123,171545.0,143195.0,13871.0,3.063076724378334
63106.06158841534,171563.0,143171.0,13904.0,3.07318588848284
63106.07169757944,171553.0,143176.0,13880.0,3.0832950525873457
63106.081806743554,171522.0,143164.0,13845.0,3.0934042166991276
63106.09191590766,171554.0,143193.0,13874.0,3.1035133808036335
63106.10202507176,171588.0,143225.0,13885.0,3.1136225449081394
63106.11213423587,171525.0,143158.0,13851.0,3.1237317090126453
63106.12224339998,171530.0,143162.0,13861.0,3.133840873124427
63106.132352564084,171553.0,143196.0,13874.0,3.143950037228933
63106.14246172819,171537.0,143211.0,13872.0,3.154059201333439
63106.1525708923,171575.0,143193.0,13893.0,3.164168365445221
63106.162680056404,171514.0,143167.0,13874.0,3.1742775295497268
63106.17278922051,171545.0,143195.0,13865.0,3.1843866936542327
63106.18289838462,171548.0,143194.0,13873.0,3.1944958577660145
63106.193007548725,171506.0,143169.0,13851.0,3.2046050218705204
63106.20311671283,171525.0,143152.0,13838.0,3.2147141859750263
63106.21322587694,171536.0,143179.0,13874.0,3.224823350086808
63106.223335041046,171510.0,143208.0,13860.0,3.234932514191314
63106.23344420515,171543.0,143158.0,13869.0,3.24504167829582
63106.24355336926,171560.0,143165.0,13870.0,3.255150842407602
63106.25366253337,171514.0,143158.0,13841.0,3.265260006512108
63106.26377169747,171519.0,143174.0,13866.0,3.2753691706166137
63106.27388086158,171520.0,143182.0,13854.0,3.2854783347283956
63106.28399002569,171544.0,143202.0,13877.0,3.2955874988329015
63106.29409918979,171511.0,143213.0,13864.0,3.3056966629374074
63106.304208353904,171517.0,143191.0,13863.0,3.3158058270491892
63106.31431751801,171549.0,143184.0,13882.0,3.325914991153695
63106.32442668211,171543.0,143178.0,13871.0,3.336024155258201
63106.334535846225,171527.0,143186.0,13841.0,3.346133319369983
63106.34464501033,171550.0,143191.0,13869.0,3.356242483474489
63106.354754174434,171534.0,143189.0,13837.0,3.3663516475789947
63106.364863338546,171563.0,143208.0,13885.0,3.3764608116907766
63106.37497250265,171545.0,143186.0,13856.0,3.3865699757952825
63106.385081666755,171516.0,143188.0,13852.0,3.3966791398997884
63106.395190830866,171508.0,143195.0,13859.0,3.4067883040115703
63106.40529999497,171568.0,143189.0,13878.0,3.416897468116076
63106.415409159075,171536.0,143185.0,13864.0,3.427006632220582
63106.42551832318,171553.0,143196.0,13866.0,3.437115796325088
63106.43562748729,171534.0,143176.0,13843.0,3.44722496043687
63106.445736651396,171567.0,143203.0,13846.0,3.457334124541376
63106.4558458155,171545.0,143204.0,13895.0,3.4674432886458817
63106.46595497961,171562.0,143203.0,13861.0,3.4775524527576636
63106.47606414372,171542.0,143144.0,13858.0,3.4876616168621695
63106.48617330782,171542.0,143220.0,13868.0,3.4977707809666754
63106.49628247193,171509.0,143164.0,13849.0,3.5078799450784572
63106.50639163604,171536.0,143203.0,13872.0,3.517989109182963
63106.51650080014,171510.0,143152.0,13862.0,3.528098273287469
63106.526609964254,171563.0,143208.0,13866.0,3.538207437399251
63106.53671912836,171544.0,143189.0,13877.0,3.548316601503757
63106.54682829246,171556.0,143202.0,13859.0,3.5584257656082627
63106.556937456575,171550.0,143187.0,13875.0,3.5685349297200446
63106.56704662068,171573.0,143218.0,13869.0,3.5786440938245505
63106.577155784784,171561.0,143175.0,13862.0,3.5887532579290564
63106.587264948896,171539.0,143193.0,13862.0,3.5988624220408383
63106.597374113,171577.0,143187.0,13874.0,3.608971586145344
63106.607483277105,171585.0,143198.0,13857.0,3.61908075024985
63106.61759244122,171559.0,143211.0,13890.0,3.629189914361632
63106.62770160532,171590.0,143232.0,13886.0,3.639299078466138
63106.637810769425,171563.0,143204.0,13867.0,3.649408242570644
63106.64791993354,171540.0,143184.0,13881.0,3.6595174066824256
63106.65802909764,171546.0,143211.0,13880.0,3.6696265707869316
63106.668138261746,171568.0,143224.0,13892.0,3.6797357348914375
63106.67824742586,171572.0,143205.0,13871.0,3.6898448990032193
63106.68835658996,171571.0,143206.0,13853.0,3.6999540631077252
63106.69846575407,171580.0,143220.0,13887.0,3.710063227212231
63106.70857491818,171579.0,143214.0,13898.0,3.720172391324013
63106.71868408228,171571.0,143207.0,13875.0,3.730281555428519
63106.72879324639,171553.0,143185.0,13859.0,3.740390719533025
63106.73890241049,171544.0,143211.0,13850.0,3.7504998836375307
63106.749011574604,171598.0,143237.0,13888.0,3.7606090477493126
63106.75912073871,171572.0,143218.0,13871.0,3.7707182118538185
63106.76922990281,171590.0,143199.0,13883.0,3.7808273759583244
63106.779339066925,171542.0,143189.0,13844.0,3.7909365400701063
63106.78944823103,171603.0,143237.0,13892.0,3.801045704174612
63106.799557395134,171559.0,143198.0,13876.0,3.811154868279118
63106.809666559246,171548.0,143186.0,13885.0,3.8212640323909
63106.81977572335,171579.0,143216.0,13860.0,3.831373196495406
63106.829884887455,171590.0,143229.0,13891.0,3.8414823605999118
63106.83999405157,171577.0,143211.0,13867.0,3.8515915247116936
63106.85010321567,171617.0,143192.0,13895.0,3.8617006888161995
63106.860212379775,171567.0,143205.0,13869.0,3.8718098529207055
63106.87032154389,171591.0,143193.0,13879.0,3.8819190170324873
63106.88043070799,171588.0,143216.0,13871.0,3.8920281811369932
63106.890539872096,171615.0,143233.0,13880.0,3.902137345241499
63106.90064903621,171556.0,143197.0,13846.0,3.912246509353281
63106.91075820031,171573.0,143217.0,13869.0,3.922355673457787
63106.92086736442,171573.0,143215.0,13876.0,3.932464837562293
63106.93097652853,171548.0,143173.0,13868.0,3.9425740016740747
63106.94108569263,171520.0,143179.0,13849.0,3.9526831657785806
63106.95119485674,171541.0,143178.0,13858.0,3.9627923298830865
63106.96130402085,171553.0,143195.0,13861.0,3.9729014939948684
63106.971413184954,171542.0,143191.0,13853.0,3.9830106580993743
63106.98152234906,171524.0,143192.0,13865.0,3.99311982220388
63106.99163151317,171518.0,143196.0,13844.0,4.003228986315662
63107.001740677275,171567.0,143202.0,13890.0,4.013338150420168
63107.01184984138,171557.0,143203.0,13866.0,4.023447314524674
63107.02195900549,171560.0,143188.0,13865.0,4.033556478636456
63107.032068169596,171534.0,143172.0,13852.0,4.043665642740962
63107.0421773337,171546.0,143189.0,13857.0,4.0537748068454675
63107.052286497805,171577.0,143200.0,13883.0,4.0638839709499734
63107.06239566192,171535.0,143211.0,13887.0,4.073993135061755
63107.07250482602,171517.0,143176.0,13857.0,4.084102299166261
63107.082613990126,171545.0,143225.0,13874.0,4.094211463270767
63107.09272315424,171548.0,143208.0,13863.0,4.104320627382549
63107.10283231834,171582.0,143225.0,13865.0,4.114429791487055
63107.112941482446,171546.0,143187.0,13863.0,4.124538955591561
63107.12305064656,171570.0,143218.0,13868.0,4.134648119703343
63107.13315981066,171563.0,143221.0,13868.0,4.144757283807849
63107.14326897477,171580.0,143233.0,13858.0,4.1548664479123545
63107.15337813888,171543.0,143185.0,13886.0,4.164975612024136
63107.16348730298,171536.0,143171.0,13834.0,4.175084776128642
63107.17359646709,171565.0,143211.0,13867.0,4.185193940233148
63107.1837056312,171527.0,143255.0,13858.0,4.19530310434493
63107.193814795304,171523.0,143198.0,13853.0,4.205412268449436
63107.20392395941,171507.0,143181.0,13855.0,4.215521432553942
63107.21403312352,171559.0,143209.0,13866.0,4.225630596665724
63107.224142287625,171541.0,143202.0,13876.0,4.23573976077023
63107.23425145173,171548.0,143197.0,13846.0,4.2458489248747355
63107.24436061584,171549.0,143176.0,13859.0,4.255958088986517
63107.254469779946,171558.0,143208.0,13866.0,4.266067253091023
63107.26457894405,171567.0,143180.0,13864.0,4.276176417195529
63107.27468810816,171584.0,143224.0,13887.0,4.286285581307311
63107.28479727227,171593.0,143234.0,13897.0,4.296394745411817
63107.29490643637,171569.0,143220.0,13872.0,4.306503909516323
63107.30501560048,171544.0,143192.0,13859.0,4.316613073628105
63107.31512476459,171518.0,143212.0,13872.0,4.326722237732611
63107.32523392869,171533.0,143189.0,13864.0,4.336831401837117
63107.3353430928,171560.0,143205.0,13870.0,4.3469405659416225
63107.34545225691,171606.0,143234.0,13884.0,4.357049730053404
63107.35556142101,171580.0,143246.0,13893.0,4.36715889415791
63107.36567058512,171530.0,143227.0,13875.0,4.377268058262416
63107.37577974923,171528.0,143221.0,13848.0,4.387377222374198
63107.38588891333,171564.0,143210.0,13878.0,4.397486386478704
63107.39599807744,171602.0,143243.0,13882.0,4.40759555058321
63107.40610724155,171573.0,143197.0,13867.0,4.417704714694992
63107.416216405654,171572.0,143214.0,13865.0,4.427813878799498
63107.42632556976,171588.0,143213.0,13862.0,4.4379230429040035
63107.43643473387,171580.0,143233.0,13862.0,4.448032207015785
63107.446543897975,171578.0,143201.0,13854.0,4.458141371120291
63107.45665306208,171557.0,143171.0,13919.0,4.468250535224797
63107.46676222619,171564.0,143211.0,13866.0,4.478359699336579
63107.476871390296,171573.0,143208.0,13850.0,4.488468863441085
63107.4869805544,171544.0,143216.0,13862.0,4.498578027545591
63107.49708971851,171594.0,143237.0,13891.0,4.508687191657373
63107.50719888262,171585.0,143223.0,13879.0,4.518796355761879
63107.51730804672,171595.0,143228.0,13885.0,4.528905519866385
63107.52741721083,171569.0,143200.0,13864.0,4.539014683978166
63107.53752637494,171553.0,143204.0,13868.0,4.549123848082672
63107.54763553904,171585.0,143222.0,13870.0,4.559233012187178
63107.557744703154,171594.0,143215.0,13870.0,4.56934217629896
63107.56785386726,171608.0,143238.0,13878.0,4.579451340403466
63107.57796303136,171610.0,143254.0,13883.0,4.589560504507972
63107.588072195475,171574.0,143228.0,13874.0,4.599669668619754
63107.59818135958,171537.0,143214.0,13863.0,4.60977883272426
63107.60829052368,171533.0,143190.0,13853.0,4.619887996828766
63107.618399687795,171568.0,143185.0,13871.0,4.6299971609405475
63107.6285088519,171575.0,143218.0,13858.0,4.640106325045053
63107.638618016004,171554.0,143205.0,13860.0,4.650215489149559
63107.648727180116,171575.0,143215.0,13856.0,4.660324653261341
63107.65883634422,171561.0,143196.0,13845.0,4.670433817365847
63107.668945508325,171545.0,143207.0,13855.0,4.680542981470353
63107.67905467243,171530.0,143200.0,13869.0,4.690652145574859
63107.68916383654,171529.0,143231.0,13843.0,4.700761309686641
63107.699273000646,171512.0,143202.0,13842.0,4.710870473791147
63107.70938216475,171532.0,143203.0,13854.0,4.720979637895653
63107.71949132886,171536.0,143202.0,13855.0,4.731088802007434
63107.72960049297,171505.0,143163.0,13851.0,4.74119796611194
63107.73970965707,171554.0,143204.0,13866.0,4.751307130216446
63107.74981882118,171521.0,143198.0,13842.0,4.761416294328228
63107.75992798529,171525.0,143172.0,13865.0,4.771525458432734
63107.77003714939,171546.0,143234.0,13864.0,4.78163462253724
63107.780146313504,171538.0,143193.0,13845.0,4.791743786649022
63107.79025547761,171581.0,143220.0,13873.0,4.801852950753528
63107.80036464171,171547.0,143225.0,13852.0,4.811962114858034
63107.810473805825,171529.0,143237.0,13843.0,4.8220712789698155
63107.82058296993,171558.0,143249.0,13867.0,4.832180443074321
63107.83069213403,171556.0,143249.0,13850.0,4.842289607178827
63107.840801298145,171540.0,143219.0,13856.0,4.852398771290609
63107.85091046225,171528.0,143187.0,13864.0,4.862507935395115
63107.861019626354,171518.0,143175.0,13860.0,4.872617099499621
63107.871128790466,171529.0,143213.0,13833.0,4.882726263611403
63107.88123795457,171545.0,143218.0,13850.0,4.892835427715909
63107.891347118675,171570.0,143222.0,13870.0,4.902944591820415
63107.90145628279,171562.0,143224.0,13841.0,4.9130537559321965
63107.91156544689,171525.0,143210.0,13842.0,4.923162920036702
63107.921674610996,171544.0,143207.0,13863.0,4.933272084141208
63107.93178377511,171528.0,143227.0,13855.0,4.94338124825299
63107.94189293921,171537.0,143212.0,13849.0,4.953490412357496
63107.95200210332,171527.0,143202.0,13840.0,4.963599576462002
63107.96211126742,171549.0,143225.0,13870.0,4.973708740566508
63107.97222043153,171528.0,143241.0,13858.0,4.98381790467829
63107.98232959564,171548.0,143226.0,13869.0,4.993927068782796
63107.99243875974,171540.0,143219.0,13839.0,5.004036232887302
63108.002547923854,171580.0,143232.0,13869.0,5.0141453969990835
63108.01265708796,171582.0,143247.0,13889.0,5.024254561103589
63108.02276625206,171514.0,143230.0,13851.0,5.034363725208095
63108.032875416175,171573.0,143224.0,13873.0,5.044472889319877
63108.04298458028,171575.0,143236.0,13855.0,5.054582053424383
63108.053093744384,171566.0,143212.0,13853.0,5.064691217528889
63108.063202908495,171519.0,143221.0,13855.0,5.074800381640671
63108.0733120726,171579.0,143219.0,13861.0,5.084909545745177
63108.083421236704,171557.0,143222.0,13855.0,5.095018709849683
63108.093530400816,171547.0,143238.0,13858.0,5.1051278739614645
63108.10363956492,171533.0,143197.0,13865.0,5.11523703806597
63108.113748729025,171578.0,143232.0,13861.0,5.125346202170476
63108.12385789314,171542.0,143230.0,13880.0,5.135455366282258
63108.13396705724,171530.0,143229.0,13855.0,5.145564530386764
63108.144076221346,171574.0,143260.0,13854.0,5.15567369449127
63108.15418538546,171546.0,143240.0,13860.0,5.165782858603052
63108.16429454956,171554.0,143198.0,13857.0,5.175892022707558
63108.17440371367,171580.0,143248.0,13852.0,5.186001186812064
63108.18451287778,171575.0,143251.0,13874.0,5.1961103509238455
63108.19462204188,171579.0,143234.0,13866.0,5.2062195150283515
63108.20473120599,171564.0,143241.0,13852.0,5.216328679132857
63108.2148403701,171563.0,143249.0,13876.0,5.226437843244639
63108.224949534204,171547.0,143231.0,13848.0,5.236547007349145
63108.23505869831,171570.0,143235.0,13859.0,5.246656171453651
63108.24516786242,171550.0,143203.0,13864.0,5.256765335565433
63108.255277026525,171536.0,143217.0,13853.0,5.266874499669939
63108.26538619063,171575.0,143242.0,13849.0,5.276983663774445
63108.27549535474,171545.0,143223.0,13852.0,5.287092827886227
63108.285604518846,171509.0,143218.0,13845.0,5.2972019919907325
63108.29571368295,171519.0,143233.0,13850.0,5.307311156095238
63108.305822847055,171515.0,143242.0,13872.0,5.317420320199744
63108.315932011166,171531.0,143220.0,13854.0,5.327529484311526
63108.32604117527,171504.0,143191.0,13843.0,5.337638648416032
63108.336150339375,171524.0,143222.0,13815.0,5.347747812520538
63108.34625950349,171500.0,143194.0,13833.0,5.35785697663232
63108.35636866759,171517.0,143217.0,13855.0,5.367966140736826
63108.366477831696,171505.0,143201.0,13853.0,5.378075304841332
63108.37658699581,171484.0,143215.0,13828.0,5.3881844689531135
63108.38669615991,171539.0,143233.0,13859.0,5.3982936330576194
63108.39680532402,171524.0,143219.0,13858.0,5.408402797162125
63108.40691448813,171532.0,143206.0,13852.0,5.418511961273907
63108.41702365223,171506.0,143219.0,13849.0,5.428621125378413
63108.42713281634,171531.0,143246.0,13837.0,5.438730289482919
63108.43724198045,171499.0,143217.0,13867.0,5.448839453594701
63108.447351144554,171508.0,143238.0,13854.0,5.458948617699207
63108.45746030866,171489.0,143205.0,13832.0,5.469057781803713
63108.46756947277,171477.0,143237.0,13836.0,5.479166945915495
63108.477678636875,171511.0,143233.0,13874.0,5.4892761100200005
63108.48778780098,171527.0,143209.0,13858.0,5.499385274124506
63108.49789696509,171508.0,143219.0,13837.0,5.509494438236288
63108.508006129196,171514.0,143198.0,13852.0,5.519603602340794
63108.5181152933,171550.0,143252.0,13858.0,5.5297127664453
63108.52822445741,171528.0,143223.0,13848.0,5.539821930557082
63108.538333621516,171518.0,143199.0,13873.0,5.549931094661588
63108.54844278562,171533.0,143242.0,13872.0,5.560040258766094
63108.55855194973,171501.0,143211.0,13878.0,5.570149422877876
63108.56866111384,171509.0,143223.0,13858.0,5.5802585869823815
63108.57877027794,171497.0,143217.0,13837.0,5.590367751086887
63108.588879442046,171489.0,143216.0,13846.0,5.600476915191393
63108.59898860616,171522.0,143222.0,13857.0,5.610586079303175
63108.60909777026,171506.0,143232.0,13848.0,5.620695243407681
63108.61920693437,171515.0,143252.0,13865.0,5.630804407512187
63108.62931609848,171498.0,143217.0,13828.0,5.640913571623969
63108.63942526258,171523.0,143233.0,13854.0,5.651022735728475
63108.64953442669,171517.0,143242.0,13856.0,5.661131899832981
63108.6596435908,171523.0,143207.0,13855.0,5.671241063944763
63108.669752754904,171490.0,143214.0,13830.0,5.6813502280492685
63108.67986191901,171511.0,143227.0,13840.0,5.691459392153774
63108.68997108312,171530.0,143229.0,13878.0,5.701568556265556
63108.700080247225,171505.0,143236.0,13872.0,5.711677720370062
63108.71018941133,171485.0,143202.0,13866.0,5.721786884474568
63108.72029857544,171497.0,143228.0,13843.0,5.73189604858635
63108.730407739546,171502.0,143228.0,13853.0,5.742005212690856
63108.74051690365,171537.0,143223.0,13879.0,5.752114376795362
63108.75062606776,171501.0,143208.0,13847.0,5.762223540907144
63108.76073523187,171517.0,143203.0,13848.0,5.7723327050116495
63108.77084439597,171517.0,143240.0,13865.0,5.782441869116155
63108.78095356008,171548.0,143259.0,13855.0,5.792551033227937
63108.79106272419,171522.0,143234.0,13878.0,5.802660197332443
63108.80117188829,171514.0,143247.0,13857.0,5.812769361436949
63108.8112810524,171524.0,143231.0,13859.0,5.822878525548731
63108.82139021651,171561.0,143264.0,13891.0,5.832987689653237
63108.83149938061,171522.0,143224.0,13889.0,5.843096853757743
63108.841608544724,171508.0,143209.0,13837.0,5.853206017869525
63108.85171770883,171520.0,143237.0,13887.0,5.863315181974031
63108.86182687293,171519.0,143201.0,13877.0,5.8734243460785365
63108.871936037045,171546.0,143255.0,13882.0,5.883533510190318
63108.88204520115,171510.0,143210.0,13865.0,5.893642674294824
63108.892154365254,171523.0,143227.0,13857.0,5.90375183839933
63108.902263529366,171525.0,143242.0,13867.0,5.913861002511112
63108.91237269347,171560.0,143248.0,13872.0,5.923970166615618
63108.922481857575,171531.0,143228.0,13852.0,5.934079330720124
63108.93259102168,171525.0,143221.0,13839.0,5.94418849482463
63108.94270018579,171528.0,143232.0,13866.0,5.954297658936412
63108.952809349896,171493.0,143209.0,13872.0,5.9644068230409175
63108.962918514,171499.0,143194.0,13866.0,5.974515987145423
63108.97302767811,171499.0,143214.0,13834.0,5.984625151257205
63108.98313684222,171534.0,143213.0,13858.0,5.994734315361711
63108.99324600632,171544.0,143237.0,13877.0,6.004843479466217
63109.00335517043,171526.0,143211.0,13870.0,6.014952643577999
63109.01346433454,171493.0,143191.0,13838.0,6.025061807682505
63109.02357349864,171504.0,143219.0,13865.0,6.035170971787011
63109.03368266275,171495.0,143205.0,13821.0,6.045280135898793
63109.04379182686,171475.0,143192.0,13845.0,6.055389300003299
63109.05390099096,171465.0,143199.0,13833.0,6.0654984641078045
63109.064010155074,171481.0,143196.0,13851.0,6.075607628219586
63109.07411931918,171483.0,143224.0,13841.0,6.085716792324092
63109.08422848328,171508.0,143223.0,13904.0,6.095825956428598
63109.094337647395,171439.0,143156.0,13834.0,6.10593512054038
63109.1044468115,171482.0,143198.0,13850.0,6.116044284644886
63109.114555975604,171473.0,143185.0,13849.0,6.126153448749392
63109.124665139716,171504.0,143231.0,13845.0,6.136262612861174
63109.13477430382,171483.0,143203.0,13819.0,6.14637177696568
63109.144883467925,171476.0,143208.0,13845.0,6.1564809410701855
63109.15499263204,171477.0,143186.0,13846.0,6.166590105181967
63109.16510179614,171480.0,143183.0,13854.0,6.176699269286473
63109.175210960246,171461.0,143193.0,13808.0,6.186808433390979
63109.18532012436,171473.0,143207.0,13852.0,6.196917597502761
63109.19542928846,171478.0,143193.0,13843.0,6.207026761607267
63109.20553845257,171488.0,143230.0,13880.0,6.217135925711773
63109.21564761667,171467.0,143214.0,13861.0,6.227245089816279
63109.22575678078,171431.0,143201.0,13817.0,6.237354253928061
63109.23586594489,171445.0,143192.0,13855.0,6.2474634180325666
63109.24597510899,171492.0,143230.0,13871.0,6.2575725821370725
63109.2560842731,171489.0,143202.0,13851.0,6.267681746248854
63109.26619343721,171480.0,143214.0,13858.0,6.27779091035336
63109.27630260131,171464.0,143200.0,13852.0,6.287900074457866
63109.286411765424,171499.0,143215.0,13824.0,6.298009238569648
63109.29652092953,171466.0,143224.0,13867.0,6.308118402674154
63109.30663009363,171449.0,143184.0,13826.0,6.31822756677866
63109.316739257745,171479.0,143207.0,13855.0,6.328336730890442
63109.32684842185,171448.0,143209.0,13839.0,6.338445894994948
63109.336957585954,171510.0,143227.0,13871.0,6.3485550590994535
63109.347066750066,171475.0,143185.0,13860.0,6.358664223211235
63109.35717591417,171441.0,143192.0,13835.0,6.368773387315741
63109.367285078275,171466.0,143230.0,13875.0,6.378882551420247
63109.37739424239,171507.0,143221.0,13853.0,6.388991715532029
63109.38750340649,171463.0,143188.0,13869.0,6.399100879636535
63109.397612570596,171489.0,143204.0,13844.0,6.409210043741041
63109.40772173471,171456.0,143183.0,13844.0,6.419319207852823
63109.41783089881,171514.0,143240.0,13882.0,6.429428371957329
63109.42794006292,171514.0,143193.0,13875.0,6.4395375360618345
63109.43804922703,171487.0,143205.0,13854.0,6.449646700173616
63109.44815839113,171470.0,143190.0,13858.0,6.459755864278122
63109.45826755524,171487.0,143233.0,13870.0,6.469865028382628
63109.46837671935,171491.0,143196.0,13842.0,6.47997419249441
63109.478485883454,171497.0,143215.0,13864.0,6.490083356598916
63109.48859504756,171455.0,143175.0,13857.0,6.500192520703422
63109.49870421167,171487.0,143207.0,13843.0,6.510301684815204
63109.508813375774,171518.0,143232.0,13870.0,6.52041084891971
63109.51892253988,171501.0,143216.0,13862.0,6.530520013024216
63109.52903170399,171510.0,143223.0,13856.0,6.5406291771359975
63109.539140868095,171489.0,143195.0,13856.0,6.550738341240503
63109.5492500322,171518.0,143212.0,13856.0,6.560847505345009
63109.559359196304,171503.0,143211.0,13859.0,6.570956669449515
63109.569468360416,171482.0,143229.0,13872.0,6.581065833561297
63109.57957752452,171494.0,143205.0,13843.0,6.591174997665803
63109.589686688625,171468.0,143218.0,13846.0,6.601284161770309
63109.59979585274,171500.0,143227.0,13854.0,6.611393325882091
63109.60990501684,171496.0,143183.0,13847.0,6.621502489986597
63109.620014180946,171528.0,143232.0,13896.0,6.6316116540911025
63109.63012334506,171514.0,143231.0,13862.0,6.641720818202884
63109.64023250916,171500.0,143211.0,13880.0,6.65182998230739
63109.65034167327,171467.0,143202.0,13863.0,6.661939146411896
63109.66045083738,171480.0,143187.0,13843.0,6.672048310523678
63109.67056000148,171517.0,143189.0,13876.0,6.682157474628184
63109.68066916559,171520.0,143208.0,13861.0,6.69226663873269
63109.6907783297,171513.0,143221.0,13856.0,6.702375802844472
63109.700887493804,171531.0,143237.0,13851.0,6.712484966948978
63109.71099665791,171525.0,143216.0,13887.0,6.722594131053484
63109.72110582202,171485.0,143189.0,13853.0,6.7327032951652654
63109.731214986125,171499.0,143221.0,13866.0,6.742812459269771
63109.74132415023,171510.0,143205.0,13870.0,6.752921623374277
63109.75143331434,171516.0,143232.0,13860.0,6.763030787486059
63109.761542478445,171551.0,143230.0,13886.0,6.773139951590565
63109.77165164255,171495.0,143217.0,13863.0,6.783249115695071
63109.78176080666,171510.0,143198.0,13836.0,6.793358279806853
63109.791869970766,171526.0,143239.0,13841.0,6.803467443911359
63109.80197913487,171509.0,143199.0,13890.0,6.813576608015865
63109.81208829898,171522.0,143215.0,13864.0,6.8236857721276465
63109.82219746309,171507.0,143185.0,13848.0,6.833794936232152
63109.83230662719,171468.0,143206.0,13869.0,6.843904100336658
63109.842415791296,171516.0,143226.0,13876.0,6.854013264441164
63109.85252495541,171497.0,143203.0,13850.0,6.864122428552946
63109.86263411951,171488.0,143193.0,13863.0,6.874231592657452
63109.87274328362,171476.0,143189.0,13850.0,6.884340756761958
63109.88285244773,171487.0,143222.0,13846.0,6.89444992087374
63109.89296161183,171448.0,143183.0,13822.0,6.904559084978246
63109.90307077594,171450.0,143184.0,13844.0,6.914668249082752
63109.91317994005,171478.0,143198.0,13850.0,6.924777413194533
63109.923289104154,171481.0,143224.0,13862.0,6.934886577299039
63109.93339826826,171471.0,143192.0,13840.0,6.944995741403545
63109.94350743237,171516.0,143195.0,13873.0,6.955104905515327
63109.953616596475,171461.0,143184.0,13837.0,6.965214069619833
63109.96372576058,171486.0,143187.0,13845.0,6.975323233724339
63109.97383492469,171471.0,143211.0,13839.0,6.985432397836121
63109.983944088795,171444.0,143221.0,13843.0,6.995541561940627
63109.9940532529,171434.0,143227.0,13847.0,7.005650726045133
63110.00416241701,171468.0,143215.0,13848.0,7.0157598901569145
63110.014271581116,171478.0,143198.0,13845.0,7.02586905426142
63110.02438074522,171479.0,143193.0,13820.0,7.035978218365926
63110.03448990933,171452.0,143185.0,13847.0,7.046087382477708
63110.04459907344,171452.0,143209.0,13821.0,7.056196546582214
63110.05470823754,171466.0,143201.0,13868.0,7.06630571068672
63110.06481740165,171462.0,143223.0,13849.0,7.076414874798502
63110.07492656576,171447.0,143180.0,13825.0,7.086524038903008
63110.08503572986,171435.0,143195.0,13832.0,7.096633203007514
63110.095144893974,171448.0,143204.0,13828.0,7.1067423671192955
63110.10525405808,171471.0,143185.0,13847.0,7.116851531223801
63110.11536322218,171454.0,143212.0,13839.0,7.126960695328307
63110.125472386295,171454.0,143186.0,13844.0,7.137069859440089
63110.1355815504,171474.0,143233.0,13863.0,7.147179023544595
63110.145690714504,171472.0,143216.0,13850.0,7.157288187649101
63110.155799878616,171456.0,143191.0,13862.0,7.167397351760883
63110.16590904272,171449.0,143177.0,13833.0,7.177506515865389
63110.176018206825,171427.0,143213.0,13856.0,7.187615679969895
63110.18612737093,171457.0,143201.0,13849.0,7.197724844074401
63110.19623653504,171495.0,143181.0,13865.0,7.2078340081861825
63110.206345699145,171461.0,143200.0,13843.0,7.217943172290688
63110.21645486325,171484.0,143219.0,13882.0,7.228052336395194
63110.22656402736,171468.0,143209.0,13852.0,7.238161500506976
63110.236673191466,171499.0,143242.0,13863.0,7.248270664611482
63110.24678235557,171470.0,143188.0,13858.0,7.258379828715988
63110.25689151968,171449.0,143198.0,13845.0,7.26848899282777
63110.26700068379,171479.0,143209.0,13863.0,7.278598156932276
63110.27710984789,171485.0,143225.0,13864.0,7.288707321036782
63110.287219012,171486.0,143194.0,13820.0,7.2988164851485635
63110.29732817611,171488.0,143227.0,13866.0,7.308925649253069
63110.30743734021,171477.0,143204.0,13846.0,7.319034813357575
63110.317546504324,171479.0,143222.0,13879.0,7.329143977469357
63110.32765566843,171450.0,143187.0,13837.0,7.339253141573863
63110.33776483253,171450.0,143238.0,13857.0,7.349362305678369
63110.347873996645,171482.0,143204.0,13857.0,7.359471469790151
63110.35798316075,171497.0,143216.0,13870.0,7.369580633894657
63110.368092324854,171503.0,143192.0,13875.0,7.379689797999163
63110.378201488966,171462.0,143225.0,13832.0,7.389798962110945
63110.38831065307,171481.0,143223.0,13853.0,7.3999081262154505
63110.398419817175,171492.0,143229.0,13857.0,7.410017290319956
63110.40852898129,171481.0,143189.0,13865.0,7.420126454431738
63110.41863814539,171484.0,143237.0,13857.0,7.430235618536244
63110.428747309496,171506.0,143229.0,13858.0,7.44034478264075
63110.43885647361,171458.0,143219.0,13863.0,7.450453946752532
63110.44896563771,171512.0,143221.0,13876.0,7.460563110857038
63110.459074801816,171500.0,143199.0,13865.0,7.470672274961544
63110.46918396592,171489.0,143208.0,13871.0,7.48078143906605
63110.47929313003,171490.0,143217.0,13854.0,7.4908906031778315
63110.48940229414,171473.0,143204.0,13850.0,7.500999767282337
63110.49951145824,171467.0,143199.0,13879.0,7.511108931386843
63110.50962062235,171509.0,143213.0,13863.0,7.521218095498625
63110.51972978646,171490.0,143236.0,13865.0,7.531327259603131
63110.52983895056,171473.0,143199.0,13860.0,7.541436423707637
63110.539948114674,171456.0,143205.0,13836.0,7.551545587819419
63110.55005727878,171495.0,143204.0,13869.0,7.561654751923925
63110.56016644288,171491.0,143229.0,13858.0,7.571763916028431
63110.570275606995,171504.0,143201.0,13869.0,7.5818730801402126
63110.5803847711,171502.0,143227.0,13843.0,7.5919822442447185
63110.590493935204,171479.0,143213.0,13841.0,7.602091408349224
63110.600603099316,171502.0,143216.0,13873.0,7.612200572461006
63110.61071226342,171526.0,143199.0,13887.0,7.622309736565512
63110.620821427525,171495.0,143249.0,13874.0,7.632418900670018
63110.63093059164,171497.0,143191.0,13862.0,7.6425280647818
63110.64103975574,171486.0,143210.0,13867.0,7.652637228886306
63110.651148919846,171494.0,143189.0,13850.0,7.662746392990812
63110.66125808396,171531.0,143234.0,13897.0,7.672855557102594
63110.67136724806,171526.0,143233.0,13866.0,7.6829647212070995
63110.68147641217,171498.0,143211.0,13867.0,7.693073885311605
63110.69158557628,171488.0,143228.0,13868.0,7.703183049423387
63110.70169474038,171509.0,143211.0,13879.0,7.713292213527893
63110.71180390449,171476.0,143202.0,13853.0,7.723401377632399
63110.7219130686,171477.0,143201.0,13862.0,7.733510541744181
63110.7320222327,171457.0,143229.0,13873.0,7.743619705848687
63110.74213139681,171473.0,143240.0,13827.0,7.753728869953193
63110.75224056092,171492.0,143210.0,13887.0,7.763838034064975
63110.762349725024,171463.0,143205.0,13853.0,7.7739471981694805
63110.77245888913,171434.0,143183.0,13863.0,7.7840563622739865
63110.78256805324,171429.0,143206.0,13837.0,7.794165526385768
63110.792677217345,171419.0,143188.0,13813.0,7.804274690490274
63110.80278638145,171453.0,143206.0,13848.0,7.81438385459478
63110.812895545554,171469.0,143202.0,13829.0,7.824493018699286
63110.823004709666,171422.0,143168.0,13818.0,7.834602182811068
63110.83311387377,171426.0,143180.0,13826.0,7.844711346915574
63110.843223037875,171453.0,143191.0,13868.0,7.85482051102008
63110.85333220199,171449.0,143187.0,13843.0,7.864929675131862
63110.86344136609,171433.0,143178.0,13849.0,7.8750388392363675
63110.873550530196,171438.0,143217.0,13856.0,7.885148003340873
63110.88365969431,171463.0,143196.0,13863.0,7.895257167452655
63110.89376885841,171451.0,143225.0,13846.0,7.905366331557161
63110.90387802252,171438.0,143177.0,13840.0,7.915475495661667
63110.91398718663,171441.0,143190.0,13845.0,7.925584659773449
63110.92409635073,171422.0,143181.0,13833.0,7.935693823877955
63110.93420551484,171452.0,143204.0,13848.0,7.945802987982461
63110.94431467895,171441.0,143211.0,13856.0,7.955912152094243
63110.95442384305,171482.0,143197.0,13883.0,7.9660213161987485
63110.96453300716,171420.0,143202.0,13883.0,7.9761304803032544
63110.97464217127,171452.0,143193.0,13851.0,7.986239644415036
63110.984751335374,171438.0,143201.0,13825.0,7.996348808519542
63110.99486049948,171442.0,143200.0,13863.0,8.006457972624048
63111.00496966359,171468.0,143168.0,13846.0,8.01656713673583
63111.015078827695,171464.0,143193.0,13837.0,8.026676300840336
63111.0251879918,171430.0,143177.0,13826.0,8.036785464944842
63111.03529715591,171464.0,143183.0,13867.0,8.046894629056624
63111.045406320016,171455.0,143199.0,13828.0,8.05700379316113
63111.05551548412,171468.0,143202.0,13845.0,8.067112957265635
63111.06562464823,171485.0,143219.0,13867.0,8.077222121377417
63111.07573381234,171431.0,143202.0,13837.0,8.087331285481923
63111.08584297644,171436.0,143197.0,13851.0,8.09744044958643
63111.095952140546,171475.0,143174.0,13879.0,8.107549613690935
63111.10606130466,171448.0,143217.0,13868.0,8.117658777802717
63111.11617046876,171485.0,143213.0,13875.0,8.127767941907223
63111.12627963287,171464.0,143182.0,13840.0,8.137877106011729
63111.13638879698,171477.0,143203.0,13859.0,8.14798627012351
63111.14649796108,171449.0,143176.0,13843.0,8.158095434228017
63111.15660712519,171477.0,143188.0,13859.0,8.168204598332522
63111.1667162893,171458.0,143198.0,13842.0,8.178313762444304
63111.1768254534,171475.0,143194.0,13850.0,8.18842292654881
63111.18693461751,171485.0,143228.0,13834.0,8.198532090653316
63111.19704378162,171476.0,143205.0,13872.0,8.208641254765098
63111.207152945724,171431.0,143174.0,13841.0,8.218750418869604
63111.21726210983,171452.0,143212.0,13854.0,8.22885958297411
63111.22737127394,171469.0,143185.0,13835.0,8.238968747085892
63111.237480438045,171477.0,143173.0,13848.0,8.249077911190398
63111.24758960215,171447.0,143188.0,13851.0,8.259187075294903
63111.25769876626,171471.0,143202.0,13848.0,8.269296239406685
63111.267807930366,171465.0,143193.0,13865.0,8.279405403511191
63111.27791709447,171488.0,143219.0,13887.0,8.289514567615697
63111.28802625858,171472.0,143178.0,13848.0,8.299623731727479
63111.29813542269,171493.0,143205.0,13859.0,8.309732895831985
63111.30824458679,171485.0,143225.0,13857.0,8.31984205993649
63111.3183537509,171470.0,143180.0,13861.0,8.329951224048273
63111.32846291501,171461.0,143205.0,13848.0,8.340060388152779
63111.33857207911,171476.0,143189.0,13879.0,8.350169552257285
63111.348681243224,171493.0,143209.0,13860.0,8.360278716369066
63111.35879040733,171468.0,143183.0,13860.0,8.370387880473572
63111.36889957143,171449.0,143177.0,13883.0,8.380497044578078
63111.379008735545,171446.0,143194.0,13853.0,8.39060620868986
63111.38911789965,171492.0,143209.0,13855.0,8.400715372794366
63111.399227063754,171511.0,143204.0,13878.0,8.410824536898872
63111.40933622786,171495.0,143181.0,13876.0,8.420933701003378
63111.41944539197,171510.0,143217.0,13892.0,8.43104286511516
63111.429554556074,171495.0,143203.0,13862.0,8.441152029219666
63111.43966372018,171480.0,143195.0,13851.0,8.451261193324171
63111.44977288429,171507.0,143206.0,13885.0,8.461370357435953
63111.459882048395,171465.0,143198.0,13855.0,8.47147952154046
63111.4699912125,171486.0,143203.0,13861.0,8.481588685644965
63111.48010037661,171514.0,143215.0,13853.0,8.491697849756747
63111.490209540716,171503.0,143217.0,13864.0,8.501807013861253
63111.50031870482,171452.0,143159.0,13869.0,8.511916177965759
63111.51042786893,171473.0,143198.0,13868.0,8.52202534207754
63111.52053703304,171474.0,143191.0,13863.0,8.532134506182047
63111.53064619714,171500.0,143198.0,13863.0,8.542243670286553
63111.54075536125,171528.0,143228.0,13883.0,8.552352834398334
63111.55086452536,171504.0,143207.0,13859.0,8.56246199850284
63111.56097368946,171507.0,143209.0,13877.0,8.572571162607346
63111.571082853574,171518.0,143184.0,13892.0,8.582680326719128
63111.58119201768,171458.0,143189.0,13871.0,8.592789490823634
63111.59130118178,171482.0,143201.0,13860.0,8.60289865492814
63111.601410345895,171481.0,143195.0,13841.0,8.613007819039922
63111.61151951,171502.0,143204.0,13880.0,8.623116983144428
63111.621628674104,171456.0,143190.0,13849.0,8.633226147248934
63111.631737838215,171423.0,143179.0,13814.0,8.643335311360715
63111.64184700232,171385.0,143185.0,13842.0,8.653444475465221
63111.651956166424,171455.0,143191.0,13862.0,8.663553639569727
63111.662065330536,171457.0,143198.0,13866.0,8.673662803681509
63111.67217449464,171425.0,143189.0,13840.0,8.683771967786015
63111.682283658745,171437.0,143175.0,13849.0,8.693881131890521
63111.69239282286,171458.0,143221.0,13832.0,8.703990296002303
63111.70250198696,171420.0,143176.0,13812.0,8.714099460106809
63111.712611151066,171426.0,143165.0,13824.0,8.724208624211315
63111.72272031517,171435.0,143190.0,13841.0,8.73431778831582
63111.73282947928,171412.0,143210.0,13839.0,8.744426952427602
63111.74293864339,171421.0,143175.0,13839.0,8.754536116532108
63111.75304780749,171423.0,143175.0,13845.0,8.764645280636614
63111.7631569716,171420.0,143185.0,13845.0,8.774754444748396
63111.77326613571,171437.0,143161.0,13838.0,8.784863608852902
63111.78337529981,171437.0,143212.0,13854.0,8.794972772957408
63111.793484463924,171429.0,143165.0,13850.0,8.80508193706919
63111.80359362803,171452.0,143186.0,13854.0,8.815191101173696
63111.81370279213,171454.0,143190.0,13839.0,8.825300265278202
63111.823811956245,171453.0,143161.0,13852.0,8.835409429389983
63111.83392112035,171445.0,143185.0,13861.0,8.84551859349449
63111.844030284454,171439.0,143183.0,13854.0,8.855627757598995
63111.854139448566,171423.0,143188.0,13861.0,8.865736921710777
63111.86424861267,171461.0,143195.0,13854.0,8.875846085815283
63111.874357776775,171419.0,143196.0,13850.0,8.885955249919789
63111.884466940886,171456.0,143201.0,13845.0,8.89606441403157
63111.89457610499,171424.0,143159.0,13863.0,8.906173578136077
63111.904685269095,171456.0,143203.0,13853.0,8.916282742240583
63111.91479443321,171447.0,143163.0,13870.0,8.926391906352364
63111.92490359731,171449.0,143200.0,13853.0,8.93650107045687
63111.935012761416,171437.0,143196.0,13822.0,8.946610234561376
63111.94512192553,171475.0,143229.0,13837.0,8.956719398673158
63111.95523108963,171456.0,143208.0,13878.0,8.966828562777664
63111.96534025374,171461.0,143190.0,13848.0,8.97693772688217
63111.97544941785,171424.0,143193.0,13847.0,8.987046890993952
63111.98555858195,171433.0,143187.0,13843.0,8.997156055098458
63111.99566774606,171480.0,143209.0,13874.0,9.007265219202964
63112.00577691017,171449.0,143198.0,13852.0,9.017374383314746
63112.015886074274,171472.0,143180.0,13856.0,9.027483547419251
63112.02599523838,171453.0,143208.0,13837.0,9.037592711523757
63112.03610440248,171472.0,143201.0,13857.0,9.047701875628263
63112.046213566595,171454.0,143202.0,13842.0,9.057811039740045
63112.0563227307,171438.0,143192.0,13856.0,9.067920203844551
63112.066431894804,171443.0,143182.0,13843.0,9.078029367949057
63112.076541058916,171459.0,143216.0,13868.0,9.088138532060839
63112.08665022302,171485.0,143202.0,13882.0,9.098247696165345
63112.096759387125,171468.0,143202.0,13863.0,9.10835686026985
63112.10686855124,171455.0,143176.0,13869.0,9.118466024381632
63112.11697771534,171477.0,143190.0,13865.0,9.128575188486138
63112.127086879445,171473.0,143207.0,13858.0,9.138684352590644
63112.13719604356,171476.0,143201.0,13862.0,9.148793516702426
63112.14730520766,171468.0,143178.0,13850.0,9.158902680806932
63112.157414371766,171491.0,143200.0,13852.0,9.169011844911438
63112.16752353588,171486.0,143223.0,13886.0,9.17912100902322
63112.17763269998,171469.0,143195.0,13856.0,9.189230173127726
63112.18774186409,171474.0,143198.0,13857.0,9.199339337232232
63112.1978510282,171462.0,143192.0,13858.0,9.209448501344013
63112.2079601923,171485.0,143197.0,13892.0,9.21955766544852
63112.21806935641,171471.0,143200.0,13855.0,9.229666829553025
63112.22817852052,171458.0,143193.0,13873.0,9.239775993664807
63112.238287684624,171448.0,143191.0,13832.0,9.249885157769313
63112.24839684873,171465.0,143185.0,13860.0,9.259994321873819
63112.25850601284,171460.0,143194.0,13863.0,9.2701034859856
63112.268615176945,171493.0,143186.0,13852.0,9.280212650090107
63112.27872434105,171444.0,143183.0,13848.0,9.290321814194613
63112.28883350516,171472.0,143201.0,13845.0,9.300430978306395
63112.298942669266,171489.0,143216.0,13869.0,9.3105401424109
63112.30905183337,171447.0,143226.0,13864.0,9.320649306515406
63112.31916099748,171438.0,143170.0,13858.0,9.330758470627188
63112.32927016159,171441.0,143191.0,13862.0,9.340867634731694
63112.33937932569,171468.0,143196.0,13856.0,9.3509767988362
63112.349488489795,171497.0,143209.0,13872.0,9.361085962940706
63112.35959765391,171460.0,143182.0,13874.0,9.371195127052488
63112.36970681801,171468.0,143187.0,13857.0,9.381304291156994
63112.379815982116,171476.0,143197.0,13875.0,9.3914134552615
63112.38992514623,171493.0,143193.0,13851.0,9.401522619373281
63112.40003431033,171465.0,143194.0,13880.0,9.411631783477787
63112.41014347444,171468.0,143187.0,13861.0,9.421740947582293
63112.42025263855,171483.0,143196.0,13855.0,9.431850111694075
63112.43036180265,171472.0,143242.0,13893.0,9.441959275798581
63112.44047096676,171475.0,143192.0,13852.0,9.452068439903087
63112.45058013087,171475.0,143192.0,13846.0,9.462177604014869
63112.460689294974,171476.0,143200.0,13868.0,9.472286768119375
63112.47079845908,171460.0,143180.0,13876.0,9.48239593222388
63112.48090762319,171457.0,143188.0,13874.0,9.492505096335663
63112.491016787295,171455.0,143167.0,13848.0,9.502614260440168
63112.5011259514,171472.0,143178.0,13859.0,9.512723424544674
63112.51123511551,171452.0,143205.0,13866.0,9.522832588656456
63112.521344279616,171465.0,143171.0,13856.0,9.532941752760962
63112.53145344372,171430.0,143181.0,13835.0,9.543050916865468
63112.54156260783,171445.0,143182.0,13818.0,9.55316008097725
63112.55167177194,171444.0,143182.0,13848.0,9.563269245081756
63112.56178093604,171450.0,143177.0,13884.0,9.573378409186262
63112.57189010015,171407.0,143154.0,13859.0,9.583487573298044
63112.58199926426,171410.0,143180.0,13833.0,9.59359673740255
63112.59210842836,171425.0,143176.0,13856.0,9.603705901507055
63112.60221759247,171412.0,143179.0,13869.0,9.613815065618837
63112.61232675658,171437.0,143165.0,13837.0,9.623924229723343
63112.62243592068,171395.0,143171.0,13817.0,9.634033393827849
63112.632545084794,171450.0,143187.0,13846.0,9.644142557939631
63112.6426542489,171450.0,143221.0,13861.0,9.654251722044137
63112.652763413,171442.0,143199.0,13825.0,9.664360886148643
63112.66287257711,171413.0,143163.0,13824.0,9.674470050253149
63112.67298174122,171440.0,143186.0,13848.0,9.68457921436493
63112.683090905324,171416.0,143207.0,13829.0,9.694688378469436
63112.69320006943,171456.0,143218.0,13904.0,9.704797542573942
63112.70330923354,171432.0,143196.0,13867.0,9.714906706685724
63112.713418397645,171446.0,143190.0,13853.0,9.72501587079023
63112.72352756175,171407.0,143165.0,13853.0,9.735125034894736
63112.73363672586,171459.0,143203.0,13842.0,9.745234199006518
63112.743745889966,171433.0,143174.0,13833.0,9.755343363111024
63112.75385505407,171447.0,143193.0,13860.0,9.76545252721553
63112.76396421818,171443.0,143186.0,13852.0,9.775561691327312
63112.77407338229,171445.0,143216.0,13881.0,9.785670855431817
63112.78418254639,171471.0,143205.0,13879.0,9.795780019536323
63112.7942917105,171457.0,143200.0,13850.0,9.805889183648105
63112.80440087461,171425.0,143185.0,13837.0,9.815998347752611
63112.81451003871,171474.0,143202.0,13870.0,9.826107511857117
63112.824619202824,171454.0,143212.0,13869.0,9.836216675968899
63112.83472836693,171427.0,143178.0,13827.0,9.846325840073405
63112.84483753103,171402.0,143192.0,13847.0,9.85643500417791
63112.854946695144,171436.0,143180.0,13857.0,9.866544168289693
63112.86505585925,171447.0,143177.0,13857.0,9.876653332394199
63112.87516502335,171421.0,143192.0,13836.0,9.886762496498704
63112.885274187465,171439.0,143187.0,13847.0,9.896871660610486
63112.89538335157,171450.0,143185.0,13844.0,9.906980824714992
63112.905492515674,171480.0,143214.0,13854.0,9.917089988819498
63112.915601679786,171418.0,143177.0,13857.0,9.92719915293128
63112.92571084389,171454.0,143208.0,13853.0,9.937308317035786
63112.935820007995,171438.0,143186.0,13859.0,9.947417481140292
63112.94592917211,171468.0,143205.0,13873.0,9.957526645252074
63112.95603833621,171457.0,143159.0,13848.0,9.96763580935658
63112.966147500316,171437.0,143180.0,13843.0,9.977744973461085
63112.97625666442,171434.0,143152.0,13848.0,9.987854137565591
63112.98636582853,171451.0,143188.0,13842.0,9.997963301677373
63112.99647499264,171466.0,143207.0,13877.0,10.00807246578188
63113.00658415674,171456.0,143198.0,13855.0,10.018181629886385
63113.01669332085,171465.0,143190.0,13865.0,10.028290793998167
63113.02680248496,171432.0,143208.0,13845.0,10.038399958102673
63113.03691164906,171489.0,143211.0,13882.0,10.048509122207179
63113.047020813174,171460.0,143201.0,13862.0,10.05861828631896
63113.05712997728,171453.0,143198.0,13853.0,10.068727450423467
63113.06723914138,171483.0,143187.0,13862.0,10.078836614527972
63113.077348305495,171489.0,143206.0,13842.0,10.088945778639754
63113.0874574696,171466.0,143191.0,13858.0,10.09905494274426
63113.0975666337,171412.0,143147.0,13878.0,10.109164106848766
63113.107675797815,171453.0,143186.0,13861.0,10.119273270960548
63113.11778496192,171440.0,143210.0,13879.0,10.129382435065054
63113.127894126024,171468.0,143198.0,13869.0,10.13949159916956
63113.138003290136,171497.0,143193.0,13894.0,10.149600763281342
63113.14811245424,171462.0,143211.0,13847.0,10.159709927385848
63113.158221618345,171480.0,143188.0,13874.0,10.169819091490353
63113.16833078246,171476.0,143205.0,13873.0,10.179928255602135
63113.17843994656,171448.0,143193.0,13853.0,10.190037419706641
63113.188549110666,171455.0,143190.0,13852.0,10.200146583811147
63113.19865827478,171468.0,143212.0,13866.0,10.210255747922929
63113.20876743888,171483.0,143207.0,13860.0,10.220364912027435
63113.21887660299,171453.0,143172.0,13849.0,10.23047407613194
63113.2289857671,171456.0,143185.0,13835.0,10.240583240243723
63113.2390949312,171473.0,143184.0,13858.0,10.250692404348229
63113.24920409531,171466.0,143193.0,13859.0,10.260801568452735
63113.25931325942,171464.0,143183.0,13886.0,10.270910732564516
63113.269422423524,171450.0,143175.0,13856.0,10.281019896669022
63113.27953158763,171459.0,143202.0,13839.0,10.291129060773528
63113.28964075173,171503.0,143192.0,13889.0,10.301238224878034
63113.299749915845,171490.0,143222.0,13862.0,10.311347388989816
63113.30985907995,171485.0,143199.0,13867.0,10.321456553094322
63113.31996824405,171467.0,143204.0,13847.0,10.331565717198828
63113.330077408165,171513.0,143222.0,13853.0,10.34167488131061
63113.34018657227,171494.0,143209.0,13874.0,10.351784045415116
63113.350295736374,171500.0,143198.0,13881.0,10.361893209519621
63113.360404900486,171456.0,143176.0,13848.0,10.372002373631403
63113.37051406459,171498.0,143233.0,13891.0,10.38211153773591
63113.380623228695,171483.0,143204.0,13878.0,10.392220701840415
63113.39073239281,171508.0,143198.0,13885.0,10.402329865952197
63113.40084155691,171466.0,143171.0,13857.0,10.412439030056703
63113.410950721016,171484.0,143180.0,13870.0,10.422548194161209
63113.42105988513,171467.0,143199.0,13866.0,10.43265735827299
63113.43116904923,171477.0,143217.0,13866.0,10.442766522377497
63113.44127821334,171447.0,143179.0,13839.0,10.452875686482002
63113.45138737745,171472.0,143198.0,13874.0,10.462984850593784
63113.46149654155,171443.0,143190.0,13847.0,10.47309401469829
63113.47160570566,171450.0,143167.0,13851.0,10.483203178802796
63113.48171486977,171396.0,143159.0,13834.0,10.493312342914578
63113.491824033874,171426.0,143176.0,13827.0,10.503421507019084
63113.50193319798,171420.0,143179.0,13843.0,10.51353067112359
63113.51204236209,171411.0,143183.0,13843.0,10.523639835235372
63113.522151526195,171429.0,143173.0,13843.0,10.533748999339878
63113.5322606903,171431.0,143162.0,13820.0,10.543858163444384
63113.54236985441,171436.0,143197.0,13844.0,10.553967327556165
63113.552479018515,171435.0,143169.0,13848.0,10.564076491660671
63113.56258818262,171449.0,143168.0,13850.0,10.574185655765177
63113.57269734673,171431.0,143185.0,13833.0,10.584294819876959
63113.582806510836,171428.0,143188.0,13847.0,10.594403983981465
63113.59291567494,171441.0,143187.0,13833.0,10.604513148085971
63113.603024839045,171468.0,143214.0,13893.0,10.614622312190477
63113.61313400316,171419.0,143173.0,13845.0,10.624731476302259
63113.62324316726,171441.0,143198.0,13832.0,10.634840640406765
63113.633352331366,171428.0,143208.0,13890.0,10.64494980451127
63113.64346149548,171450.0,143202.0,13869.0,10.655058968623052
63113.65357065958,171426.0,143189.0,13843.0,10.665168132727558
63113.66367982369,171420.0,143193.0,13840.0,10.675277296832064
63113.6737889878,171440.0,143175.0,13844.0,10.685386460943846
63113.6838981519,171476.0,143225.0,13854.0,10.695495625048352
63113.69400731601,171432.0,143199.0,13879.0,10.705604789152858
63113.70411648012,171439.0,143180.0,13839.0,10.71571395326464
63113.714225644224,171455.0,143201.0,13863.0,10.725823117369146
63113.72433480833,171442.0,143174.0,13862.0,10.735932281473652
63113.73444397244,171472.0,143202.0,13886.0,10.746041445585433
63113.744553136545,171413.0,143171.0,13860.0,10.75615060968994
63113.75466230065,171440.0,143189.0,13853.0,10.766259773794445
63113.76477146476,171459.0,143209.0,13868.0,10.776368937906227
63113.774880628866,171416.0,143169.0,13853.0,10.786478102010733
63113.78498979297,171445.0,143166.0,13847.0,10.796587266115239
63113.79509895708,171447.0,143198.0,13861.0,10.80669643022702
63113.805208121186,171420.0,143187.0,13841.0,10.816805594331527
63113.81531728529,171453.0,143176.0,13866.0,10.826914758436033
63113.8254264494,171411.0,143167.0,13832.0,10.837023922547814
63113.83553561351,171455.0,143199.0,13859.0,10.84713308665232
63113.84564477761,171446.0,143190.0,13857.0,10.857242250756826
63113.85575394172,171461.0,143187.0,13856.0,10.867351414868608
63113.86586310583,171430.0,143171.0,13835.0,10.877460578973114
63113.87597226993,171449.0,143194.0,13863.0,10.88756974307762
63113.886081434044,171469.0,143207.0,13875.0,10.897678907189402
63113.89619059815,171460.0,143221.0,13886.0,10.907788071293908
63113.90629976225,171450.0,143191.0,13871.0,10.917897235398414
63113.91640892636,171450.0,143189.0,13854.0,10.92800639950292
63113.92651809047,171437.0,143186.0,13855.0,10.938115563614701
63113.936627254574,171482.0,143218.0,13842.0,10.948224727719207
63113.94673641868,171463.0,143176.0,13864.0,10.958333891823713
63113.95684558279,171475.0,143207.0,13859.0,10.968443055935495
63113.966954746895,171457.0,143179.0,13856.0,10.978552220040001
63113.977063911,171444.0,143209.0,13856.0,10.988661384144507
63113.98717307511,171496.0,143197.0,13871.0,10.998770548256289
63113.997282239216,171461.0,143198.0,13869.0,11.008879712360795
63114.00739140332,171480.0,143202.0,13865.0,11.0189888764653
63114.01750056743,171447.0,143200.0,13859.0,11.029098040577082
63114.027609731536,171480.0,143222.0,13867.0,11.039207204681588
63114.03771889564,171468.0,143179.0,13900.0,11.049316368786094
63114.04782805975,171432.0,143179.0,13870.0,11.059425532897876
63114.05793722386,171447.0,143186.0,13875.0,11.069534697002382
63114.06804638796,171480.0,143202.0,13876.0,11.079643861106888
63114.07815555207,171486.0,143197.0,13889.0,11.08975302521867
63114.08826471618,171477.0,143231.0,13850.0,11.099862189323176
63114.09837388028,171445.0,143195.0,13851.0,11.109971353427682
63114.108483044394,171466.0,143185.0,13842.0,11.120080517539463
63114.1185922085,171504.0,143225.0,13841.0,11.13018968164397
63114.1287013726,171478.0,143211.0,13869.0,11.140298845748475
63114.138810536715,171452.0,143210.0,13889.0,11.150408009860257
63114.14891970082,171492.0,143179.0,13877.0,11.160517173964763
63114.159028864924,171455.0,143226.0,13890.0,11.170626338069269
63114.169138029036,171462.0,143188.0,13838.0,11.18073550218105
63114.17924719314,171461.0,143188.0,13853.0,11.190844666285557
63114.189356357245,171480.0,143205.0,13885.0,11.200953830390063
63114.19946552136,171475.0,143185.0,13862.0,11.211062994501845
63114.20957468546,171476.0,143197.0,13866.0,11.22117215860635
63114.219683849566,171494.0,143228.0,13881.0,11.231281322710856
63114.22979301367,171510.0,143222.0,13858.0,11.241390486815362
63114.23990217778,171487.0,143218.0,13878.0,11.251499650927144
63114.25001134189,171480.0,143216.0,13865.0,11.26160881503165
63114.26012050599,171502.0,143214.0,13869.0,11.271717979136156
63114.2702296701,171513.0,143205.0,13867.0,11.281827143247938
63114.28033883421,171464.0,143230.0,13884.0,11.291936307352444
63114.29044799831,171494.0,143199.0,13867.0,11.30204547145695
63114.30055716242,171463.0,143205.0,13888.0,11.312154635568731
63114.31066632653,171451.0,143169.0,13882.0,11.322263799673237
63114.32077549063,171488.0,143175.0,13847.0,11.332372963777743
63114.330884654744,171481.0,143196.0,13866.0,11.342482127889525
63114.34099381885,171505.0,143204.0,13876.0,11.352591291994031
63114.35110298295,171442.0,143187.0,13850.0,11.362700456098537
63114.361212147065,171440.0,143194.0,13842.0,11.372809620210319
63114.37132131117,171465.0,143192.0,13851.0,11.382918784314825
63114.381430475274,171447.0,143190.0,13870.0,11.39302794841933
63114.391539639386,171430.0,143182.0,13823.0,11.403137112531113
63114.40164880349,171432.0,143164.0,13870.0,11.413246276635618
63114.411757967595,171444.0,143192.0,13833.0,11.423355440740124
63114.42186713171,171422.0,143188.0,13868.0,11.433464604851906
63114.43197629581,171452.0,143184.0,13856.0,11.443573768956412
63114.442085459916,171446.0,143185.0,13867.0,11.453682933060918
63114.45219462403,171406.0,143184.0,13829.0,11.4637920971727
63114.46230378813,171433.0,143158.0,13860.0,11.473901261277206
63114.47241295224,171409.0,143176.0,13846.0,11.484010425381712
63114.48252211635,171422.0,143213.0,13850.0,11.494119589493494
63114.49263128045,171455.0,143193.0,13857.0,11.504228753598
63114.50274044456,171446.0,143213.0,13855.0,11.514337917702505
63114.51284960867,171420.0,143206.0,13865.0,11.524447081814287
63114.52295877277,171430.0,143176.0,13844.0,11.534556245918793
63114.53306793688,171437.0,143171.0,13860.0,11.544665410023299
63114.54317710098,171449.0,143195.0,13856.0,11.554774574127805
63114.553286265094,171433.0,143165.0,13855.0,11.564883738239587
63114.5633954292,171476.0,143201.0,13852.0,11.574992902344093
63114.5735045933,171395.0,143194.0,13820.0,11.585102066448599
63114.583613757415,171445.0,143185.0,13857.0,11.59521123056038
63114.59372292152,171412.0,143182.0,13842.0,11.605320394664886
63114.603832085624,171455.0,143222.0,13883.0,11.615429558769392
63114.613941249736,171450.0,143202.0,13847.0,11.625538722881174
63114.62405041384,171452.0,143201.0,13857.0,11.63564788698568
63114.634159577945,171445.0,143189.0,13838.0,11.645757051090186
63114.64426874206,171470.0,143202.0,13863.0,11.655866215201968
63114.65437790616,171456.0,143199.0,13862.0,11.665975379306474
63114.664487070266,171458.0,143200.0,13863.0,11.67608454341098
63114.67459623438,171455.0,143177.0,13862.0,11.686193707522762
63114.68470539848,171466.0,143202.0,13867.0,11.696302871627267
63114.69481456259,171469.0,143204.0,13875.0,11.706412035731773
63114.7049237267,171454.0,143179.0,13865.0,11.716521199843555
63114.7150328908,171459.0,143217.0,13866.0,11.726630363948061
63114.72514205491,171458.0,143213.0,13836.0,11.736739528052567
63114.73525121902,171443.0,143205.0,13820.0,11.746848692164349
63114.74536038312,171465.0,143212.0,13870.0,11.756957856268855
63114.75546954723,171444.0,143197.0,13848.0,11.76706702037336
63114.76557871134,171440.0,143200.0,13843.0,11.777176184485143
63114.775687875444,171488.0,143213.0,13891.0,11.787285348589648
63114.78579703955,171457.0,143218.0,13854.0,11.797394512694154
63114.79590620366,171486.0,143196.0,13874.0,11.807503676805936
63114.806015367765,171455.0,143184.0,13855.0,11.817612840910442
63114.81612453187,171464.0,143198.0,13855.0,11.827722005014948
63114.82623369598,171470.0,143217.0,13862.0,11.83783116912673
63114.836342860086,171512.0,143245.0,13897.0,11.847940333231236
63114.84645202419,171483.0,143225.0,13884.0,11.858049497335742
63114.856561188295,171469.0,143218.0,13893.0,11.868158661440248
63114.86667035241,171473.0,143208.0,13860.0,11.87826782555203
63114.87677951651,171467.0,143226.0,13865.0,11.888376989656535
63114.886888680616,171451.0,143186.0,13871.0,11.898486153761041
63114.89699784473,171498.0,143199.0,13867.0,11.908595317872823
63114.90710700883,171483.0,143209.0,13883.0,11.91870448197733
63114.91721617294,171474.0,143233.0,13867.0,11.928813646081835
63114.92732533705,171465.0,143201.0,13864.0,11.938922810193617
63114.93743450115,171475.0,143240.0,13864.0,11.949031974298123
63114.94754366526,171506.0,143194.0,13895.0,11.959141138402629
63114.95765282937,171477.0,143200.0,13869.0,11.96925030251441
63114.967761993474,171477.0,143209.0,13846.0,11.979359466618916
63114.97787115758,171465.0,143200.0,13851.0,11.989468630723422
63114.98798032169,171492.0,143198.0,13894.0,11.999577794835204
63114.998089485794,171491.0,143199.0,13863.0,12.00968695893971
63115.0081986499,171487.0,143222.0,13875.0,12.019796123044216
63115.01830781401,171463.0,143211.0,13858.0,12.029905287155998
63115.028416978115,171461.0,143185.0,13855.0,12.040014451260504
63115.03852614222,171500.0,143205.0,13865.0,12.05012361536501
63115.04863530633,171471.0,143182.0,13860.0,12.060232779476792
63115.058744470436,171508.0,143189.0,13864.0,12.070341943581298
63115.06885363454,171520.0,143239.0,13833.0,12.080451107685803
63115.07896279865,171502.0,143208.0,13873.0,12.090560271797585
63115.08907196276,171476.0,143201.0,13893.0,12.100669435902091
63115.09918112686,171489.0,143203.0,13880.0,12.110778600006597
63115.10929029097,171484.0,143206.0,13891.0,12.120887764118379
63115.11939945508,171488.0,143213.0,13874.0,12.130996928222885
63115.12950861918,171468.0,143194.0,13884.0,12.14110609232739
63115.139617783294,171496.0,143201.0,13859.0,12.151215256439173
63115.1497269474,171508.0,143186.0,13870.0,12.161324420543679
63115.1598361115,171501.0,143215.0,13875.0,12.171433584648184
63115.16994527561,171537.0,143251.0,13888.0,12.18154274875269
63115.18005443972,171493.0,143199.0,13850.0,12.191651912864472
63115.190163603824,171512.0,143226.0,13867.0,12.201761076968978
63115.20027276793,171518.0,143216.0,13864.0,12.211870241073484
63115.21038193204,171525.0,143243.0,13886.0,12.221979405185266
63115.220491096145,171473.0,143196.0,13842.0,12.232088569289772
63115.23060026025,171512.0,143221.0,13855.0,12.242197733394278
63115.24070942436,171537.0,143190.0,13915.0,12.25230689750606
63115.250818588465,171499.0,143233.0,13869.0,12.262416061610566
63115.26092775257,171466.0,143188.0,13844.0,12.272525225715071
63115.27103691668,171475.0,143197.0,13844.0,12.282634389826853
63115.281146080786,171504.0,143214.0,13875.0,12.29274355393136
63115.29125524489,171477.0,143231.0,13861.0,12.302852718035865
63115.301364409,171493.0,143202.0,13854.0,12.312961882147647
63115.31147357311,171467.0,143196.0,13844.0,12.323071046252153
63115.32158273721,171501.0,143228.0,13839.0,12.333180210356659
63115.33169190132,171471.0,143214.0,13857.0,12.34328937446844
63115.34180106543,171479.0,143230.0,13866.0,12.353398538572947
63115.35191022953,171453.0,143188.0,13830.0,12.363507702677452
63115.362019393644,171447.0,143211.0,13867.0,12.373616866789234
63115.37212855775,171493.0,143221.0,13883.0,12.38372603089374
63115.38223772185,171478.0,143186.0,13851.0,12.393835194998246
63115.392346885965,171455.0,143191.0,13865.0,12.403944359110028
63115.40245605007,171486.0,143194.0,13850.0,12.414053523214534
63115.412565214174,171482.0,143213.0,13855.0,12.42416268731904
63115.422674378286,171482.0,143250.0,13876.0,12.434271851430822
63115.43278354239,171478.0,143204.0,13853.0,12.444381015535328
63115.442892706495,171509.0,143235.0,13884.0,12.454490179639834
63115.45300187061,171496.0,143228.0,13859.0,12.464599343751615
63115.46311103471,171509.0,143234.0,13872.0,12.474708507856121
63115.473220198815,171468.0,143230.0,13842.0,12.484817671960627
63115.48332936292,171483.0,143215.0,13852.0,12.494926836065133
63115.49343852703,171488.0,143216.0,13863.0,12.505036000176915
63115.503547691136,171502.0,143246.0,13918.0,12.51514516428142
63115.51365685524,171463.0,143185.0,13878.0,12.525254328385927
63115.52376601935,171476.0,143219.0,13871.0,12.535363492497709
63115.53387518346,171493.0,143227.0,13855.0,12.545472656602215
63115.54398434756,171526.0,143224.0,13878.0,12.55558182070672
63115.55409351167,171505.0,143207.0,13886.0,12.565690984818502
63115.56420267578,171470.0,143201.0,13847.0,12.575800148923008
63115.57431183988,171479.0,143220.0,13867.0,12.585909313027514
63115.584421003994,171508.0,143243.0,13853.0,12.596018477139296
63115.5945301681,171513.0,143228.0,13884.0,12.606127641243802
63115.6046393322,171461.0,143220.0,13845.0,12.616236805348308
63115.614748496315,171496.0,143232.0,13846.0,12.62634596946009
63115.62485766042,171462.0,143230.0,13846.0,12.636455133564596
63115.634966824524,171495.0,143258.0,13893.0,12.646564297669102
63115.645075988636,171484.0,143221.0,13842.0,12.656673461780883
63115.65518515274,171484.0,143224.0,13862.0,12.66678262588539
63115.665294316845,171494.0,143208.0,13864.0,12.676891789989895
63115.67540348096,171532.0,143249.0,13851.0,12.687000954101677
63115.68551264506,171497.0,143201.0,13886.0,12.697110118206183
63115.695621809165,171476.0,143218.0,13854.0,12.707219282310689
63115.70573097328,171499.0,143242.0,13873.0,12.71732844642247
63115.71584013738,171472.0,143252.0,13872.0,12.727437610526977
63115.725949301486,171468.0,143220.0,13861.0,12.737546774631483
63115.7360584656,171498.0,143232.0,13851.0,12.747655938743264
63115.7461676297,171500.0,143236.0,13873.0,12.75776510284777
63115.75627679381,171496.0,143247.0,13895.0,12.767874266952276
63115.76638595792,171522.0,143249.0,13879.0,12.777983431064058
63115.77649512202,171454.0,143215.0,13844.0,12.788092595168564
63115.78660428613,171501.0,143225.0,13872.0,12.79820175927307
63115.79671345023,171514.0,143218.0,13857.0,12.808310923377576
63115.806822614344,171537.0,143246.0,13896.0,12.818420087489358
63115.81693177845,171497.0,143210.0,13862.0,12.828529251593864
63115.82704094255,171517.0,143230.0,13867.0,12.83863841569837
63115.837150106665,171515.0,143245.0,13853.0,12.848747579810151
63115.84725927077,171499.0,143235.0,13854.0,12.858856743914657
63115.857368434874,171483.0,143207.0,13874.0,12.868965908019163
63115.867477598986,171508.0,143224.0,13872.0,12.879075072130945
63115.87758676309,171501.0,143237.0,13845.0,12.889184236235451
63115.887695927195,171538.0,143256.0,13889.0,12.899293400339957
63115.89780509131,171492.0,143213.0,13860.0,12.909402564451739
63115.90791425541,171475.0,143210.0,13862.0,12.919511728556245
63115.918023419516,171505.0,143228.0,13876.0,12.92962089266075
63115.92813258363,171544.0,143266.0,13872.0,12.939730056772532
63115.93824174773,171513.0,143239.0,13885.0,12.949839220877038
63115.948350911836,171525.0,143240.0,13871.0,12.959948384981544
63115.95846007595,171511.0,143264.0,13854.0,12.970057549093326
63115.96856924005,171498.0,143258.0,13876.0,12.980166713197832
63115.97867840416,171535.0,143233.0,13887.0,12.990275877302338
63115.98878756827,171538.0,143227.0,13866.0,13.00038504141412
63115.99889673237,171521.0,143209.0,13866.0,13.010494205518626
63116.00900589648,171511.0,143211.0,13868.0,13.020603369623132
63116.01911506059,171555.0,143274.0,13876.0,13.030712533734913
63116.029224224694,171529.0,143252.0,13844.0,13.04082169783942
63116.0393333888,171517.0,143198.0,13894.0,13.050930861943925
63116.04944255291,171550.0,143259.0,13890.0,13.061040026055707
63116.059551717015,171527.0,143261.0,13898.0,13.071149190160213
63116.06966088112,171537.0,143255.0,13883.0,13.081258354264719
63116.07977004523,171539.0,143224.0,13871.0,13.0913675183765
63116.089879209336,171515.0,143229.0,13864.0,13.101476682481007
63116.09998837344,171559.0,143259.0,13876.0,13.111585846585513
63116.110097537545,171501.0,143216.0,13879.0,13.121695010690019
63116.12020670166,171534.0,143242.0,13867.0,13.1318041748018
63116.13031586576,171522.0,143237.0,13887.0,13.141913338906306
63116.140425029866,171544.0,143264.0,13889.0,13.152022503010812
63116.15053419398,171502.0,143223.0,13859.0,13.162131667122594
63116.16064335808,171505.0,143246.0,13856.0,13.1722408312271
63116.17075252219,171495.0,143231.0,13837.0,13.182349995331606
63116.1808616863,171518.0,143246.0,13843.0,13.192459159443388
63116.1909708504,171495.0,143245.0,13871.0,13.202568323547894
63116.20108001451,171493.0,143220.0,13858.0,13.2126774876524
63116.21118917862,171489.0,143251.0,13867.0,13.222786651764181
63116.22129834272,171466.0,143240.0,13842.0,13.232895815868687
63116.23140750683,171477.0,143242.0,13840.0,13.243004979973193
63116.24151667094,171494.0,143238.0,13855.0,13.253114144084975
63116.251625835044,171479.0,143219.0,13848.0,13.263223308189481
63116.26173499915,171508.0,143225.0,13857.0,13.273332472293987
63116.27184416326,171527.0,143265.0,13848.0,13.283441636405769
63116.281953327365,171496.0,143239.0,13860.0,13.293550800510275
63116.29206249147,171497.0,143249.0,13895.0,13.30365996461478
63116.30217165558,171453.0,143220.0,13826.0,13.313769128726562
63116.312280819686,171510.0,143257.0,13860.0,13.323878292831068
63116.32238998379,171491.0,143235.0,13854.0,13.333987456935574
63116.3324991479,171507.0,143216.0,13888.0,13.344096621047356
63116.34260831201,171494.0,143234.0,13838.0,13.354205785151862
63116.35271747611,171534.0,143247.0,13874.0,13.364314949256368
63116.36282664022,171505.0,143251.0,13867.0,13.37442411336815
63116.37293580433,171525.0,143281.0,13872.0,13.384533277472656
63116.38304496843,171498.0,143227.0,13841.0,13.394642441577162
63116.393154132544,171502.0,143243.0,13864.0,13.404751605688944
63116.40326329665,171503.0,143242.0,13864.0,13.41486076979345
63116.41337246075,171511.0,143274.0,13888.0,13.424969933897955
63116.42348162486,171506.0,143231.0,13848.0,13.435079098002461
63116.43359078897,171506.0,143240.0,13851.0,13.445188262114243
63116.44369995307,171523.0,143262.0,13884.0,13.455297426218749
63116.45380911718,171497.0,143264.0,13852.0,13.465406590323255
63116.46391828129,171474.0,143213.0,13852.0,13.475515754435037
63116.474027445394,171492.0,143246.0,13838.0,13.485624918539543
63116.4841366095,171529.0,143249.0,13882.0,13.495734082644049
63116.49424577361,171511.0,143284.0,13859.0,13.50584324675583
63116.504354937715,171535.0,143266.0,13875.0,13.515952410860336
63116.51446410182,171461.0,143223.0,13839.0,13.526061574964842
63116.52457326593,171526.0,143249.0,13848.0,13.536170739076624
63116.534682430036,171514.0,143244.0,13863.0,13.54627990318113
63116.54479159414,171484.0,143244.0,13858.0,13.556389067285636
63116.55490075825,171488.0,143226.0,13850.0,13.566498231397418
63116.56500992236,171481.0,143254.0,13847.0,13.576607395501924
63116.57511908646,171513.0,143256.0,13883.0,13.58671655960643
63116.58522825057,171520.0,143232.0,13888.0,13.596825723718212
63116.59533741468,171509.0,143233.0,13876.0,13.606934887822717
63116.60544657878,171480.0,143232.0,13852.0,13.617044051927223
63116.615555742894,171510.0,143241.0,13852.0,13.627153216039005
63116.625664907,171535.0,143274.0,13883.0,13.637262380143511
63116.6357740711,171504.0,143264.0,13896.0,13.647371544248017
63116.645883235215,171509.0,143283.0,13860.0,13.657480708359799
63116.65599239932,171520.0,143259.0,13864.0,13.667589872464305
63116.66610156342,171497.0,143236.0,13866.0,13.67769903656881
63116.676210727535,171542.0,143253.0,13889.0,13.687808200680593
63116.68631989164,171516.0,143235.0,13862.0,13.697917364785098
63116.696429055744,171524.0,143256.0,13875.0,13.708026528889604
63116.706538219856,171526.0,143233.0,13875.0,13.718135693001386
63116.71664738396,171550.0,143280.0,13887.0,13.728244857105892
63116.726756548065,171497.0,143232.0,13858.0,13.738354021210398
63116.73686571217,171529.0,143260.0,13861.0,13.748463185314904
63116.74697487628,171519.0,143229.0,13859.0,13.758572349426686
63116.757084040386,171540.0,143234.0,13861.0,13.768681513531192
63116.76719320449,171518.0,143226.0,13860.0,13.778790677635698
63116.7773023686,171539.0,143263.0,13869.0,13.78889984174748
63116.78741153271,171529.0,143258.0,13851.0,13.799009005851985
63116.79752069681,171558.0,143268.0,13878.0,13.809118169956491
63116.80762986092,171538.0,143290.0,13885.0,13.819227334068273
63116.81773902503,171535.0,143255.0,13859.0,13.829336498172779
63116.82784818913,171506.0,143289.0,13866.0,13.839445662277285
63116.837957353244,171552.0,143293.0,13872.0,13.849554826389067
63116.84806651735,171504.0,143231.0,13858.0,13.859663990493573
63116.85817568145,171477.0,143245.0,13860.0,13.869773154598079
63116.868284845565,171531.0,143252.0,13872.0,13.87988231870986
63116.87839400967,171540.0,143273.0,13854.0,13.889991482814366
63116.888503173774,171564.0,143273.0,13862.0,13.900100646918872
63116.898612337885,171514.0,143223.0,13856.0,13.910209811030654
63116.90872150199,171536.0,143258.0,13857.0,13.92031897513516
63116.918830666094,171497.0,143254.0,13845.0,13.930428139239666
63116.928939830206,171546.0,143265.0,13900.0,13.940537303351448
63116.93904899431,171550.0,143254.0,13887.0,13.950646467455954
63116.949158158415,171530.0,143244.0,13869.0,13.96075563156046
63116.95926732253,171508.0,143234.0,13864.0,13.970864795672242
63116.96937648663,171556.0,143271.0,13879.0,13.980973959776748
63116.979485650736,171535.0,143214.0,13892.0,13.991083123881253
63116.98959481485,171508.0,143236.0,13860.0,14.001192287993035
63116.99970397895,171480.0,143213.0,13850.0,14.011301452097541
63117.00981314306,171487.0,143230.0,13831.0,14.021410616202047
63117.01992230717,171506.0,143246.0,13878.0,14.031519780313829
63117.03003147127,171487.0,143251.0,13851.0,14.041628944418335
63117.04014063538,171472.0,143214.0,13848.0,14.05173810852284
63117.05024979948,171498.0,143226.0,13847.0,14.061847272627347
63117.060358963594,171460.0,143230.0,13858.0,14.071956436739129
63117.0704681277,171489.0,143229.0,13852.0,14.082065600843634
63117.0805772918,171508.0,143249.0,13873.0,14.09217476494814
63117.090686455915,171481.0,143236.0,13837.0,14.102283929059922
63117.10079562002,171458.0,143249.0,13832.0,14.112393093164428
63117.110904784124,171499.0,143254.0,13872.0,14.122502257268934
63117.121013948235,171468.0,143235.0,13836.0,14.132611421380716
63117.13112311234,171486.0,143237.0,13846.0,14.142720585485222
63117.141232276444,171483.0,143216.0,13848.0,14.152829749589728
63117.151341440556,171498.0,143245.0,13857.0,14.16293891370151
63117.16145060466,171503.0,143247.0,13840.0,14.173048077806015
63117.171559768765,171481.0,143218.0,13841.0,14.183157241910521
63117.18166893288,171520.0,143249.0,13875.0,14.193266406022303
63117.19177809698,171491.0,143249.0,13852.0,14.20337557012681
63117.201887261086,171513.0,143256.0,13873.0,14.213484734231315
63117.2119964252,171531.0,143257.0,13884.0,14.223593898343097
63117.2221055893,171515.0,143256.0,13838.0,14.233703062447603
63117.23221475341,171491.0,143248.0,13880.0,14.243812226552109
63117.24232391752,171480.0,143219.0,13845.0,14.25392139066389
63117.25243308162,171453.0,143223.0,13850.0,14.264030554768397
63117.26254224573,171485.0,143269.0,13867.0,14.274139718872902
63117.27265140984,171492.0,143256.0,13841.0,14.284248882984684
63117.282760573944,171500.0,143228.0,13840.0,14.29435804708919
63117.29286973805,171491.0,143217.0,13832.0,14.304467211193696
63117.30297890216,171479.0,143231.0,13833.0,14.314576375305478
63117.313088066265,171520.0,143263.0,13852.0,14.324685539409984
63117.32319723037,171493.0,143239.0,13853.0,14.33479470351449
63117.33330639448,171474.0,143238.0,13882.0,14.344903867626272
63117.343415558586,171477.0,143230.0,13868.0,14.355013031730778
63117.35352472269,171525.0,143266.0,13875.0,14.365122195835283
63117.363633886795,171496.0,143249.0,13854.0,14.37523135993979
63117.373743050906,171509.0,143234.0,13878.0,14.385340524051571
63117.38385221501,171469.0,143219.0,13852.0,14.395449688156077
63117.393961379115,171474.0,143230.0,13849.0,14.405558852260583
63117.40407054323,171490.0,143247.0,13857.0,14.415668016372365
63117.41417970733,171490.0,143248.0,13854.0,14.42577718047687
63117.424288871436,171478.0,143241.0,13869.0,14.435886344581377
63117.43439803555,171472.0,143214.0,13836.0,14.445995508693159
63117.44450719965,171492.0,143258.0,13847.0,14.456104672797665
63117.45461636376,171495.0,143243.0,13871.0,14.46621383690217
63117.46472552787,171494.0,143234.0,13847.0,14.476323001013952
63117.47483469197,171510.0,143259.0,13844.0,14.486432165118458
63117.48494385608,171505.0,143254.0,13865.0,14.496541329222964
63117.49505302019,171499.0,143257.0,13902.0,14.506650493334746
63117.505162184294,171517.0,143281.0,13862.0,14.516759657439252
63117.5152713484,171487.0,143239.0,13829.0,14.526868821543758
63117.52538051251,171504.0,143259.0,13854.0,14.53697798565554
63117.535489676615,171532.0,143256.0,13881.0,14.547087149760046
63117.54559884072,171509.0,143242.0,13848.0,14.557196313864551
63117.55570800483,171531.0,143248.0,13873.0,14.567305477976333
63117.565817168936,171519.0,143257.0,13870.0,14.57741464208084
63117.57592633304,171537.0,143263.0,13843.0,14.587523806185345
63117.58603549715,171525.0,143221.0,13839.0,14.597632970297127
63117.59614466126,171531.0,143270.0,13881.0,14.607742134401633
63117.60625382536,171515.0,143264.0,13851.0,14.617851298506139
63117.61636298947,171510.0,143272.0,13867.0,14.62796046261792
63117.62647215358,171501.0,143248.0,13854.0,14.638069626722427
63117.63658131768,171530.0,143273.0,13880.0,14.648178790826933
63117.64669048179,171486.0,143223.0,13849.0,14.658287954938714
63117.6567996459,171502.0,143225.0,13855.0,14.66839711904322
63117.66690881,171513.0,143254.0,13876.0,14.678506283147726
63117.67701797411,171525.0,143269.0,13890.0,14.688615447252232
63117.68712713822,171519.0,143241.0,13869.0,14.698724611364014
63117.69723630232,171522.0,143266.0,13855.0,14.70883377546852
63117.70734546643,171514.0,143243.0,13868.0,14.718942939573026
63117.71745463054,171521.0,143255.0,13853.0,14.729052103684808
63117.727563794644,171539.0,143234.0,13890.0,14.739161267789314
63117.73767295875,171529.0,143261.0,13868.0,14.74927043189382
63117.74778212286,171527.0,143258.0,13846.0,14.759379596005601
63117.757891286965,171518.0,143270.0,13842.0,14.769488760110107
63117.76800045107,171541.0,143271.0,13877.0,14.779597924214613
63117.77810961518,171494.0,143237.0,13860.0,14.789707088326395
63117.788218779286,171524.0,143262.0,13872.0,14.799816252430901
63117.79832794339,171468.0,143246.0,13827.0,14.809925416535407
63117.8084371075,171501.0,143250.0,13860.0,14.820034580647189
63117.81854627161,171491.0,143242.0,13851.0,14.830143744751695
63117.82865543571,171500.0,143248.0,13805.0,14.8402529088562
63117.83876459982,171502.0,143253.0,13857.0,14.850362072967982
63117.84887376393,171505.0,143267.0,13824.0,14.860471237072488
63117.85898292803,171476.0,143246.0,13848.0,14.870580401176994
63117.86909209214,171452.0,143250.0,13837.0,14.880689565288776
63117.87920125625,171474.0,143226.0,13822.0,14.890798729393282
63117.88931042035,171467.0,143219.0,13845.0,14.900907893497788
63117.899419584464,171482.0,143249.0,13836.0,14.91101705760957
63117.90952874857,171474.0,143242.0,13838.0,14.921126221714076
63117.91963791267,171453.0,143216.0,13842.0,14.931235385818582
63117.929747076785,171456.0,143226.0,13871.0,14.941344549930363
63117.93985624089,171484.0,143247.0,13836.0,14.95145371403487
63117.949965404994,171508.0,143260.0,13837.0,14.961562878139375
63117.960074569106,171481.0,143236.0,13878.0,14.971672042251157
63117.97018373321,171508.0,143247.0,13850.0,14.981781206355663
63117.980292897315,171471.0,143246.0,13837.0,14.991890370460169
63117.99040206142,171480.0,143243.0,13822.0,15.001999534564675
63118.00051122553,171467.0,143250.0,13841.0,15.012108698676457
63118.010620389636,171466.0,143242.0,13836.0,15.022217862780963
63118.02072955374,171483.0,143243.0,13870.0,15.032327026885469
63118.03083871785,171489.0,143263.0,13842.0,15.04243619099725
63118.04094788196,171458.0,143269.0,13845.0,15.052545355101756
63118.05105704606,171478.0,143224.0,13826.0,15.062654519206262
63118.06116621017,171494.0,143244.0,13843.0,15.072763683318044
63118.07127537428,171496.0,143264.0,13854.0,15.08287284742255
63118.08138453838,171468.0,143247.0,13854.0,15.092982011527056
63118.09149370249,171498.0,143247.0,13847.0,15.103091175638838
63118.1016028666,171485.0,143266.0,13816.0,15.113200339743344
63118.1117120307,171494.0,143257.0,13847.0,15.12330950384785
63118.121821194814,171481.0,143280.0,13869.0,15.133418667959631
63118.13193035892,171468.0,143235.0,13834.0,15.143527832064137
63118.14203952302,171463.0,143250.0,13838.0,15.153636996168643
63118.152148687135,171482.0,143253.0,13841.0,15.163746160280425
63118.16225785124,171503.0,143248.0,13844.0,15.173855324384931
63118.172367015344,171506.0,143264.0,13828.0,15.183964488489437
63118.182476179456,171474.0,143190.0,13831.0,15.194073652601219
63118.19258534356,171490.0,143265.0,13847.0,15.204182816705725
63118.202694507665,171455.0,143249.0,13834.0,15.21429198081023
63118.21280367178,171493.0,143275.0,13858.0,15.224401144922012
63118.22291283588,171466.0,143241.0,13836.0,15.234510309026518
63118.233021999986,171497.0,143253.0,13850.0,15.244619473131024
63118.2431311641,171483.0,143274.0,13856.0,15.254728637242806
63118.2532403282,171489.0,143266.0,13837.0,15.264837801347312
63118.26334949231,171469.0,143239.0,13854.0,15.274946965451818
63118.27345865642,171500.0,143268.0,13849.0,15.2850561295636
63118.28356782052,171498.0,143239.0,13871.0,15.295165293668106
63118.29367698463,171506.0,143283.0,13858.0,15.305274457772612
63118.30378614873,171497.0,143231.0,13838.0,15.315383621877118
63118.313895312844,171494.0,143253.0,13855.0,15.3254927859889
63118.32400447695,171493.0,143236.0,13855.0,15.335601950093405
63118.33411364105,171490.0,143245.0,13830.0,15.345711114197911
63118.344222805164,171467.0,143258.0,13824.0,15.355820278309693
63118.35433196927,171507.0,143250.0,13861.0,15.365929442414199
63118.36444113337,171502.0,143258.0,13826.0,15.376038606518705
63118.374550297485,171521.0,143246.0,13863.0,15.386147770630487
63118.38465946159,171497.0,143247.0,13838.0,15.396256934734993
63118.394768625694,171513.0,143257.0,13859.0,15.406366098839499
63118.404877789806,171529.0,143251.0,13842.0,15.41647526295128
63118.41498695391,171526.0,143278.0,13868.0,15.426584427055786
63118.425096118015,171511.0,143252.0,13864.0,15.436693591160292
63118.43520528213,171492.0,143274.0,13851.0,15.446802755272074
63118.44531444623,171532.0,143271.0,13854.0,15.45691191937658
63118.455423610336,171511.0,143266.0,13834.0,15.467021083481086
63118.46553277445,171519.0,143268.0,13872.0,15.477130247592868
63118.47564193855,171525.0,143260.0,13889.0,15.487239411697374
63118.48575110266,171512.0,143261.0,13851.0,15.49734857580188
63118.49586026677,171495.0,143269.0,13868.0,15.507457739913661
63118.50596943087,171505.0,143271.0,13888.0,15.517566904018167
63118.51607859498,171506.0,143255.0,13853.0,15.527676068122673
63118.52618775909,171524.0,143269.0,13852.0,15.537785232234455
63118.536296923194,171498.0,143256.0,13852.0,15.547894396338961
63118.5464060873,171536.0,143288.0,13841.0,15.558003560443467
63118.55651525141,171550.0,143277.0,13888.0,15.568112724555249
63118.566624415515,171523.0,143264.0,13863.0,15.578221888659755
63118.57673357962,171506.0,143228.0,13866.0,15.58833105276426
63118.58684274373,171529.0,143267.0,13875.0,15.598440216876043
63118.596951907835,171514.0,143227.0,13860.0,15.608549380980548
63118.60706107194,171503.0,143254.0,13863.0,15.618658545085054
63118.617170236044,171466.0,143247.0,13850.0,15.62876770918956
63118.627279400156,171511.0,143251.0,13843.0,15.638876873301342
63118.63738856426,171471.0,143253.0,13865.0,15.648986037405848
63118.647497728365,171493.0,143255.0,13835.0,15.659095201510354
63118.65760689248,171456.0,143234.0,13849.0,15.669204365622136
63118.66771605658,171480.0,143254.0,13829.0,15.679313529726642
63118.677825220686,171487.0,143238.0,13839.0,15.689422693831148
63118.6879343848,171477.0,143245.0,13830.0,15.69953185794293
63118.6980435489,171453.0,143255.0,13825.0,15.709641022047435
63118.70815271301,171497.0,143268.0,13840.0,15.719750186151941
63118.71826187712,171475.0,143264.0,13852.0,15.729859350263723
63118.72837104122,171473.0,143253.0,13835.0,15.739968514368229
63118.73848020533,171437.0,143223.0,13836.0,15.750077678472735
63118.74858936944,171469.0,143247.0,13828.0,15.760186842584517
63118.758698533544,171480.0,143253.0,13858.0,15.770296006689023
63118.76880769765,171476.0,143249.0,13849.0,15.780405170793529
63118.77891686176,171467.0,143214.0,13820.0,15.79051433490531
63118.789026025865,171499.0,143258.0,13851.0,15.800623499009816
63118.79913518997,171451.0,143233.0,13813.0,15.810732663114322
63118.80924435408,171464.0,143255.0,13862.0,15.820841827226104
63118.819353518185,171465.0,143260.0,13844.0,15.83095099133061
63118.82946268229,171468.0,143261.0,13830.0,15.841060155435116
63118.8395718464,171466.0,143270.0,13851.0,15.851169319546898
63118.849681010506,171513.0,143259.0,13867.0,15.861278483651404
63118.85979017461,171472.0,143242.0,13845.0,15.87138764775591
63118.86989933872,171441.0,143205.0,13838.0,15.881496811867692
63118.88000850283,171470.0,143240.0,13840.0,15.891605975972197
63118.89011766693,171503.0,143283.0,13861.0,15.901715140076703
63118.90022683104,171478.0,143256.0,13838.0,15.911824304188485
63118.91033599515,171482.0,143236.0,13845.0,15.921933468292991
63118.92044515925,171476.0,143260.0,13836.0,15.932042632397497
63118.93055432336,171488.0,143273.0,13871.0,15.942151796502003
63118.94066348747,171483.0,143245.0,13833.0,15.952260960613785
63118.95077265157,171476.0,143237.0,13837.0,15.96237012471829
63118.96088181568,171461.0,143254.0,13835.0,15.972479288822797
63118.97099097979,171475.0,143240.0,13834.0,15.982588452934579
63118.981100143894,171492.0,143275.0,13858.0,15.992697617039084
63118.991209308,171447.0,143227.0,13833.0,16.00280678114359
63119.00131847211,171459.0,143230.0,13818.0,16.012915945255372
63119.011427636215,171500.0,143262.0,13862.0,16.023025109359878
63119.02153680032,171490.0,143262.0,13845.0,16.033134273464384
63119.03164596443,171515.0,143276.0,13845.0,16.043243437576166
63119.041755128535,171463.0,143240.0,13829.0,16.053352601680672
63119.05186429264,171485.0,143249.0,13845.0,16.063461765785178
63119.06197345675,171479.0,143262.0,13849.0,16.07357092989696
63119.072082620856,171476.0,143278.0,13869.0,16.083680094001465
63119.08219178496,171456.0,143246.0,13850.0,16.09378925810597
63119.09230094907,171469.0,143281.0,13852.0,16.103898422217753
63119.10241011318,171498.0,143250.0,13848.0,16.11400758632226
63119.11251927728,171490.0,143199.0,13869.0,16.124116750426765
63119.12262844139,171460.0,143213.0,13859.0,16.134225914538547
63119.1327376055,171449.0,143246.0,13823.0,16.144335078643053
63119.1428467696,171489.0,143256.0,13847.0,16.15444424274756
63119.152955933714,171512.0,143280.0,13847.0,16.16455340685934
63119.16306509782,171485.0,143232.0,13836.0,16.174662570963847
63119.17317426192,171467.0,143226.0,13834.0,16.184771735068352
63119.183283426035,171501.0,143259.0,13860.0,16.194880899180134
63119.19339259014,171468.0,143280.0,13850.0,16.20499006328464
63119.203501754244,171521.0,143247.0,13871.0,16.215099227389146
63119.213610918356,171474.0,143248.0,13862.0,16.225208391500928
63119.22372008246,171486.0,143246.0,13849.0,16.235317555605434
63119.233829246565,171492.0,143241.0,13855.0,16.24542671970994
63119.24393841067,171518.0,143279.0,13873.0,16.255535883814446
63119.25404757478,171503.0,143243.0,13855.0,16.265645047926228
63119.264156738886,171476.0,143231.0,13835.0,16.275754212030733
63119.27426590299,171499.0,143260.0,13855.0,16.28586337613524
63119.2843750671,171521.0,143277.0,13862.0,16.29597254024702
63119.294484231206,171477.0,143246.0,13836.0,16.306081704351527
63119.30459339531,171498.0,143247.0,13834.0,16.316190868456033
63119.31470255942,171512.0,143250.0,13851.0,16.326300032567815
63119.32481172353,171501.0,143279.0,13860.0,16.33640919667232
63119.33492088763,171534.0,143285.0,13876.0,16.346518360776827
63119.34503005174,171495.0,143249.0,13833.0,16.35662752488861
63119.35513921585,171510.0,143259.0,13842.0,16.366736688993115
63119.36524837995,171513.0,143256.0,13857.0,16.37684585309762
63119.375357544064,171539.0,143284.0,13877.0,16.386955017209402
63119.38546670817,171475.0,143207.0,13857.0,16.397064181313908
63119.39557587227,171517.0,143256.0,13861.0,16.407173345418414
63119.405685036385,171527.0,143269.0,13864.0,16.417282509530196
63119.41579420049,171525.0,143270.0,13848.0,16.427391673634702
63119.425903364594,171508.0,143238.0,13855.0,16.437500837739208
63119.436012528706,171509.0,143250.0,13848.0,16.44761000185099
63119.44612169281,171478.0,143250.0,13835.0,16.457719165955496
63119.456230856915,171524.0,143276.0,13871.0,16.46782833006
63119.46634002103,171506.0,143229.0,13843.0,16.477937494171783
63119.47644918513,171495.0,143250.0,13844.0,16.48804665827629
63119.486558349236,171458.0,143224.0,13829.0,16.498155822380795
63119.49666751335,171477.0,143240.0,13850.0,16.508264986492577
63119.50677667745,171465.0,143245.0,13854.0,16.518374150597083
63119.516885841556,171456.0,143227.0,13840.0,16.52848331470159
63119.52699500567,171464.0,143220.0,13835.0,16.53859247881337
63119.53710416977,171433.0,143247.0,13832.0,16.548701642917877
63119.54721333388,171489.0,143223.0,13838.0,16.558810807022383
63119.55732249798,171464.0,143236.0,13837.0,16.56891997112689
63119.56743166209,171463.0,143237.0,13827.0,16.57902913523867
63119.5775408262,171468.0,143227.0,13834.0,16.589138299343176
63119.5876499903,171493.0,143243.0,13841.0,16.599247463447682
63119.597759154414,171458.0,143259.0,13803.0,16.609356627559464
63119.60786831852,171452.0,143239.0,13841.0,16.61946579166397
63119.61797748262,171469.0,143257.0,13836.0,16.629574955768476
63119.628086646735,171471.0,143258.0,13865.0,16.639684119880258
63119.63819581084,171485.0,143241.0,13833.0,16.649793283984764
63119.648304974944,171453.0,143206.0,13835.0,16.65990244808927
63119.658414139056,171443.0,143230.0,13829.0,16.67001161220105
63119.66852330316,171463.0,143221.0,13835.0,16.680120776305557
63119.678632467265,171467.0,143264.0,13860.0,16.690229940410063
63119.68874163138,171466.0,143237.0,13836.0,16.700339104521845
63119.69885079548,171439.0,143231.0,13823.0,16.71044826862635
63119.708959959586,171463.0,143238.0,13835.0,16.720557432730857
63119.7190691237,171442.0,143234.0,13835.0,16.73066659684264
63119.7291782878,171469.0,143245.0,13840.0,16.740775760947145
63119.73928745191,171466.0,143224.0,13810.0,16.75088492505165
63119.74939661602,171427.0,143224.0,13839.0,16.760994089163432
63119.75950578012,171476.0,143219.0,13839.0,16.77110325326794
63119.76961494423,171470.0,143252.0,13838.0,16.781212417372444
63119.77972410834,171460.0,143269.0,13833.0,16.791321581484226
63119.78983327244,171432.0,143236.0,13819.0,16.801430745588732
63119.79994243655,171425.0,143227.0,13818.0,16.811539909693238
63119.81005160066,171466.0,143238.0,13837.0,16.82164907380502
63119.820160764764,171479.0,143263.0,13863.0,16.831758237909526
63119.83026992887,171486.0,143232.0,13859.0,16.84186740201403
63119.84037909298,171483.0,143260.0,13821.0,16.851976566125813
63119.850488257085,171476.0,143242.0,13839.0,16.86208573023032
63119.86059742119,171463.0,143219.0,13855.0,16.872194894334825
63119.870706585294,171444.0,143227.0,13828.0,16.88230405843933
63119.880815749406,171434.0,143241.0,13832.0,16.892413222551113
63119.89092491351,171477.0,143241.0,13842.0,16.90252238665562
63119.901034077615,171515.0,143238.0,13874.0,16.912631550760125
63119.91114324173,171474.0,143212.0,13841.0,16.922740714871907
63119.92125240583,171440.0,143207.0,13836.0,16.932849878976413
63119.931361569936,171468.0,143240.0,13855.0,16.94295904308092
63119.94147073405,171439.0,143257.0,13856.0,16.9530682071927
63119.95157989815,171460.0,143227.0,13867.0,16.963177371297206
63119.96168906226,171480.0,143252.0,13876.0,16.973286535401712
63119.97179822637,171481.0,143259.0,13853.0,16.983395699513494
63119.98190739047,171462.0,143264.0,13847.0,16.993504863618
63119.99201655458,171509.0,143222.0,13864.0,17.003614027722506
63120.00212571869,171439.0,143225.0,13846.0,17.013723191834288
63120.01223488279,171468.0,143240.0,13851.0,17.023832355938794
63120.0223440469,171466.0,143208.0,13852.0,17.0339415200433
63120.03245321101,171495.0,143264.0,13867.0,17.04405068415508
63120.042562375114,171451.0,143241.0,13835.0,17.054159848259587
63120.05267153922,171453.0,143224.0,13839.0,17.064269012364093
63120.06278070333,171477.0,143255.0,13847.0,17.074378176475875
63120.072889867435,171499.0,143240.0,13856.0,17.08448734058038
63120.08299903154,171465.0,143227.0,13835.0,17.094596504684887
63120.09310819565,171491.0,143230.0,13846.0,17.10470566879667
63120.103217359756,171474.0,143237.0,13855.0,17.114814832901175
63120.11332652386,171475.0,143226.0,13859.0,17.12492399700568
63120.12343568797,171472.0,143236.0,13867.0,17.135033161117462
63120.13354485208,171480.0,143251.0,13832.0,17.14514232522197
63120.14365401618,171485.0,143240.0,13850.0,17.155251489326474
63120.15376318029,171494.0,143239.0,13879.0,17.165360653438256
63120.1638723444,171470.0,143217.0,13833.0,17.175469817542762
63120.1739815085,171478.0,143226.0,13837.0,17.185578981647268
63120.18409067261,171481.0,143240.0,13835.0,17.195688145751774
63120.19419983672,171522.0,143243.0,13838.0,17.205797309863556
63120.20430900082,171513.0,143256.0,13869.0,17.21590647396806
63120.21441816493,171461.0,143214.0,13828.0,17.226015638072568
63120.22452732904,171497.0,143229.0,13853.0,17.23612480218435
63120.23463649314,171471.0,143242.0,13858.0,17.246233966288855
63120.24474565725,171478.0,143218.0,13824.0,17.25634313039336
63120.25485482136,171474.0,143227.0,13856.0,17.266452294505143
63120.264963985464,171501.0,143240.0,13863.0,17.27656145860965
63120.27507314957,171497.0,143239.0,13858.0,17.286670622714155
63120.28518231368,171519.0,143258.0,13845.0,17.296779786825937
63120.295291477785,171495.0,143245.0,13873.0,17.306888950930443
63120.30540064189,171520.0,143251.0,13865.0,17.31699811503495
63120.315509806,171467.0,143233.0,13837.0,17.32710727914673
63120.325618970106,171475.0,143231.0,13840.0,17.337216443251236
63120.33572813421,171512.0,143235.0,13868.0,17.347325607355742
63120.34583729832,171502.0,143237.0,13851.0,17.357434771467524
63120.35594646243,171492.0,143237.0,13841.0,17.36754393557203
63120.36605562653,171462.0,143239.0,13874.0,17.377653099676536
63120.37616479064,171515.0,143259.0,13863.0,17.387762263788318
63120.38627395475,171479.0,143228.0,13852.0,17.397871427892824
63120.39638311885,171450.0,143196.0,13868.0,17.40798059199733
63120.406492282964,171442.0,143216.0,13828.0,17.41808975610911
63120.41660144707,171470.0,143207.0,13854.0,17.428198920213617
63120.42671061117,171479.0,143222.0,13845.0,17.438308084318123
63120.436819775285,171456.0,143200.0,13833.0,17.448417248429905
63120.44692893939,171471.0,143231.0,13821.0,17.45852641253441
63120.457038103494,171469.0,143241.0,13858.0,17.468635576638917
63120.467147267605,171418.0,143204.0,13839.0,17.4787447407507
63120.47725643171,171466.0,143223.0,13845.0,17.488853904855205
63120.487365595814,171450.0,143245.0,13824.0,17.49896306895971
63120.49747475992,171471.0,143239.0,13845.0,17.509072233064217
63120.50758392403,171483.0,143263.0,13859.0,17.519181397176
63120.517693088135,171453.0,143228.0,13835.0,17.529290561280504
63120.52780225224,171442.0,143221.0,13822.0,17.53939972538501
63120.53791141635,171454.0,143230.0,13832.0,17.549508889496792
63120.548020580456,171445.0,143210.0,13862.0,17.559618053601298
63120.55812974456,171457.0,143240.0,13849.0,17.569727217705804
63120.56823890867,171439.0,143235.0,13850.0,17.579836381817586
63120.57834807278,171458.0,143244.0,13871.0,17.58994554592209
63120.58845723688,171485.0,143232.0,13881.0,17.600054710026598
63120.59856640099,171455.0,143232.0,13836.0,17.61016387413838
63120.6086755651,171434.0,143211.0,13857.0,17.620273038242885
63120.6187847292,171428.0,143228.0,13826.0,17.63038220234739
63120.628893893314,171457.0,143212.0,13845.0,17.640491366459173
63120.63900305742,171456.0,143236.0,13851.0,17.65060053056368
63120.64911222152,171464.0,143235.0,13854.0,17.660709694668185
63120.659221385635,171468.0,143221.0,13830.0,17.670818858779967
63120.66933054974,171472.0,143204.0,13859.0,17.680928022884473
63120.679439713844,171457.0,143228.0,13839.0,17.69103718698898
63120.689548877956,171474.0,143224.0,13855.0,17.70114635110076
63120.69965804206,171438.0,143193.0,13833.0,17.711255515205266
63120.709767206165,171417.0,143209.0,13815.0,17.721364679309772
63120.719876370276,171466.0,143237.0,13856.0,17.731473843421554
63120.72998553438,171456.0,143218.0,13830.0,17.74158300752606
63120.740094698485,171470.0,143229.0,13863.0,17.751692171630566
63120.7502038626,171458.0,143254.0,13843.0,17.761801335742348
63120.7603130267,171466.0,143228.0,13839.0,17.771910499846854
63120.770422190806,171438.0,143230.0,13852.0,17.78201966395136
63120.78053135492,171428.0,143198.0,13830.0,17.79212882806314
63120.79064051902,171489.0,143207.0,13871.0,17.802237992167647
63120.80074968313,171446.0,143228.0,13836.0,17.812347156272153
63120.81085884723,171462.0,143209.0,13836.0,17.82245632037666
63120.82096801134,171500.0,143252.0,13828.0,17.83256548448844
63120.83107717545,171434.0,143218.0,13820.0,17.842674648592947
63120.84118633955,171475.0,143228.0,13870.0,17.852783812697453
63120.851295503664,171454.0,143237.0,13870.0,17.862892976809235
63120.86140466777,171475.0,143231.0,13857.0,17.87300214091374
63120.87151383187,171449.0,143194.0,13839.0,17.883111305018247
63120.881622995985,171450.0,143222.0,13839.0,17.89322046913003
63120.89173216009,171468.0,143225.0,13844.0,17.903329633234534
63120.901841324194,171447.0,143215.0,13850.0,17.91343879733904
63120.911950488306,171459.0,143226.0,13866.0,17.923547961450822
63120.92205965241,171486.0,143238.0,13838.0,17.933657125555328
63120.932168816515,171467.0,143229.0,13852.0,17.943766289659834
63120.94227798063,171473.0,143209.0,13853.0,17.953875453771616
63120.95238714473,171450.0,143239.0,13855.0,17.96398461787612
63120.962496308835,171457.0,143204.0,13839.0,17.974093781980628
63120.97260547295,171478.0,143240.0,13859.0,17.98420294609241
63120.98271463705,171533.0,143257.0,13896.0,17.994312110196915
63120.992823801156,171462.0,143178.0,13851.0,18.00442127430142
63121.00293296527,171450.0,143211.0,13863.0,18.014530438413203
63121.01304212937,171472.0,143215.0,13852.0,18.02463960251771
63121.02315129348,171458.0,143244.0,13881.0,18.034748766622215
63121.03326045759,171480.0,143227.0,13834.0,18.044857930733997
63121.04336962169,171492.0,143223.0,13834.0,18.054967094838503
63121.0534787858,171470.0,143219.0,13850.0,18.06507625894301
63121.06358794991,171480.0,143250.0,13872.0,18.07518542305479
63121.073697114014,171470.0,143213.0,13860.0,18.085294587159296
63121.08380627812,171500.0,143239.0,13882.0,18.095403751263802
63121.09391544223,171489.0,143222.0,13848.0,18.105512915375584
63121.104024606335,171481.0,143262.0,13870.0,18.11562207948009
63121.11413377044,171504.0,143240.0,13864.0,18.125731243584596
63121.124242934544,171499.0,143237.0,13856.0,18.135840407689102
63121.134352098656,171477.0,143223.0,13862.0,18.145949571800884
63121.14446126276,171499.0,143222.0,13868.0,18.15605873590539
63121.154570426865,171456.0,143219.0,13828.0,18.166167900009896
63121.16467959098,171456.0,143196.0,13844.0,18.176277064121678
63121.17478875508,171487.0,143221.0,13862.0,18.186386228226183
63121.184897919185,171525.0,143242.0,13858.0,18.19649539233069
63121.1950070833,171464.0,143194.0,13848.0,18.20660455644247
63121.2051162474,171479.0,143227.0,13850.0,18.216713720546977
63121.215225411506,171489.0,143222.0,13883.0,18.226822884651483
63121.22533457562,171499.0,143226.0,13857.0,18.236932048763265
63121.23544373972,171484.0,143203.0,13864.0,18.24704121286777
63121.24555290383,171499.0,143207.0,13870.0,18.257150376972277
63121.25566206794,171494.0,143248.0,13846.0,18.26725954108406
63121.26577123204,171481.0,143228.0,13842.0,18.277368705188564
63121.27588039615,171478.0,143233.0,13874.0,18.28747786929307
63121.28598956026,171490.0,143236.0,13869.0,18.297587033404852
63121.296098724364,171427.0,143213.0,13854.0,18.307696197509358
63121.30620788847,171464.0,143215.0,13845.0,18.317805361613864
63121.31631705258,171482.0,143203.0,13855.0,18.327914525725646
63121.326426216685,171435.0,143185.0,13843.0,18.338023689830152
63121.33653538079,171453.0,143196.0,13843.0,18.348132853934658
63121.3466445449,171446.0,143212.0,13832.0,18.35824201804644
63121.356753709006,171461.0,143243.0,13848.0,18.368351182150946
63121.36686287311,171429.0,143231.0,13837.0,18.37846034625545
63121.37697203722,171430.0,143195.0,13835.0,18.388569510367233
63121.38708120133,171432.0,143200.0,13861.0,18.39867867447174
63121.39719036543,171426.0,143233.0,13845.0,18.408787838576245
63121.40729952954,171417.0,143189.0,13829.0,18.418897002688027
63121.41740869365,171446.0,143218.0,13821.0,18.429006166792533
63121.42751785775,171441.0,143209.0,13841.0,18.43911533089704
63121.437627021856,171436.0,143206.0,13854.0,18.449224495001545
63121.44773618597,171450.0,143198.0,13829.0,18.459333659113327
63121.45784535007,171462.0,143238.0,13863.0,18.469442823217832
63121.46795451418,171452.0,143221.0,13845.0,18.47955198732234
63121.47806367829,171451.0,143216.0,13844.0,18.48966115143412
63121.48817284239,171453.0,143220.0,13822.0,18.499770315538626
63121.4982820065,171454.0,143202.0,13834.0,18.509879479643132
63121.50839117061,171456.0,143220.0,13843.0,18.519988643754914
63121.518500334714,171485.0,143260.0,13850.0,18.53009780785942
63121.52860949882,171446.0,143226.0,13869.0,18.540206971963926
63121.53871866293,171426.0,143191.0,13840.0,18.550316136075708
63121.548827827035,171462.0,143218.0,13843.0,18.560425300180214
63121.55893699114,171447.0,143202.0,13855.0,18.57053446428472
63121.56904615525,171443.0,143199.0,13829.0,18.5806436283965
63121.579155319356,171472.0,143209.0,13850.0,18.590752792501007
63121.58926448346,171458.0,143224.0,13864.0,18.600861956605513
63121.59937364757,171438.0,143231.0,13837.0,18.610971120717295
63121.60948281168,171467.0,143228.0,13831.0,18.6210802848218
63121.61959197578,171454.0,143204.0,13856.0,18.631189448926307
63121.62970113989,171451.0,143212.0,13839.0,18.64129861303809
63121.639810304,171466.0,143224.0,13845.0,18.651407777142595
63121.6499194681,171449.0,143236.0,13858.0,18.6615169412471
63121.660028632214,171489.0,143183.0,13857.0,18.671626105358882
63121.67013779632,171477.0,143233.0,13825.0,18.68173526946339
63121.68024696042,171460.0,143216.0,13843.0,18.691844433567894
63121.690356124534,171452.0,143220.0,13877.0,18.701953597679676
63121.70046528864,171469.0,143237.0,13875.0,18.712062761784182
63121.71057445274,171453.0,143208.0,13821.0,18.722171925888688
63121.720683616855,171469.0,143225.0,13844.0,18.73228109000047
63121.73079278096,171485.0,143208.0,13846.0,18.742390254104976
63121.740901945064,171490.0,143232.0,13867.0,18.75249941820948
63121.75101110917,171437.0,143196.0,13848.0,18.762608582313987
63121.76112027328,171466.0,143229.0,13855.0,18.77271774642577
63121.771229437385,171503.0,143242.0,13863.0,18.782826910530275
63121.78133860149,171490.0,143231.0,13864.0,18.79293607463478
63121.7914477656,171441.0,143193.0,13854.0,18.803045238746563
63121.801556929706,171477.0,143203.0,13851.0,18.81315440285107
63121.81166609381,171442.0,143214.0,13840.0,18.823263566955575
63121.82177525792,171501.0,143248.0,13861.0,18.833372731067357
63121.83188442203,171484.0,143196.0,13884.0,18.843481895171863
63121.84199358613,171477.0,143219.0,13846.0,18.85359105927637
63121.85210275024,171467.0,143202.0,13836.0,18.86370022338815
63121.86221191435,171511.0,143227.0,13843.0,18.873809387492656
63121.87232107845,171487.0,143224.0,13880.0,18.883918551597162
63121.882430242564,171485.0,143226.0,13854.0,18.894027715708944
63121.89253940667,171450.0,143227.0,13841.0,18.90413687981345
63121.90264857077,171474.0,143250.0,13861.0,18.914246043917956
63121.912757734885,171517.0,143243.0,13866.0,18.924355208029738
63121.92286689899,171468.0,143193.0,13879.0,18.934464372134244
63121.93297606309,171478.0,143209.0,13848.0,18.94457353623875
63121.943085227205,171483.0,143192.0,13864.0,18.95468270035053
63121.95319439131,171505.0,143254.0,13856.0,18.964791864455037
63121.963303555414,171485.0,143219.0,13851.0,18.974901028559543
63121.973412719526,171465.0,143202.0,13874.0,18.985010192671325
63121.98352188363,171487.0,143204.0,13842.0,18.99511935677583
63121.993631047735,171488.0,143239.0,13880.0,19.005228520880337
63122.00374021185,171487.0,143221.0,13873.0,19.01533768499212
63122.01384937595,171482.0,143205.0,13866.0,19.025446849096625
63122.023958540056,171476.0,143196.0,13858.0,19.03555601320113
63122.03406770417,171510.0,143213.0,13861.0,19.045665177312912
63122.04417686827,171451.0,143204.0,13861.0,19.05577434141742
63122.05428603238,171461.0,143235.0,13838.0,19.065883505521924
63122.06439519648,171470.0,143209.0,13849.0,19.07599266962643
63122.07450436059,171491.0,143198.0,13861.0,19.086101833738212
63122.0846135247,171463.0,143189.0,13857.0,19.096210997842718
63122.0947226888,171490.0,143209.0,13863.0,19.106320161947224
63122.104831852914,171484.0,143208.0,13838.0,19.116429326059006
63122.11494101702,171498.0,143217.0,13845.0,19.12653849016351
63122.12505018112,171519.0,143234.0,13881.0,19.136647654268018
63122.135159345235,171506.0,143220.0,13861.0,19.1467568183798
63122.14526850934,171473.0,143202.0,13850.0,19.156865982484305
63122.15537767344,171490.0,143227.0,13844.0,19.16697514658881
63122.165486837555,171521.0,143213.0,13880.0,19.177084310700593
63122.17559600166,171489.0,143223.0,13852.0,19.1871934748051
63122.185705165764,171447.0,143158.0,13844.0,19.197302638909605
63122.195814329876,171488.0,143235.0,13877.0,19.207411803021387
63122.20592349398,171499.0,143229.0,13831.0,19.217520967125893
63122.216032658085,171463.0,143203.0,13856.0,19.2276301312304
63122.2261418222,171440.0,143219.0,13872.0,19.23773929534218
63122.2362509863,171414.0,143169.0,13833.0,19.247848459446686
63122.246360150406,171428.0,143215.0,13841.0,19.257957623551192
63122.25646931452,171464.0,143207.0,13847.0,19.268066787662974
63122.26657847862,171436.0,143179.0,13821.0,19.27817595176748
63122.27668764273,171455.0,143208.0,13839.0,19.288285115871986
63122.28679680684,171454.0,143163.0,13838.0,19.298394279983768
63122.29690597094,171456.0,143210.0,13848.0,19.308503444088274
63122.30701513505,171435.0,143214.0,13862.0,19.31861260819278
63122.31712429916,171403.0,143164.0,13841.0,19.32872177230456
