timestamp,PPG_1,PPG_2,PPG_3,time_from_segment_start_sec
63856.45534846585,188143.0,162053.0,11405.0,0.0
63856.4653512358,188137.0,162089.0,11392.0,0.010002769944549073
63856.475354005735,188165.0,162106.0,11406.0,0.020005539881822187
63856.48535677568,188132.0,162111.0,11430.0,0.03000830982637126
63856.495359545625,188127.0,162089.0,11424.0,0.04001107977092033
63856.50536231556,188155.0,162110.0,11401.0,0.05001384970819345
63856.515365085506,188160.0,162094.0,11429.0,0.06001661965274252
63856.52536785544,188131.0,162103.0,11477.0,0.07001938959001563
63856.53537062539,188184.0,162114.0,11453.0,0.08002215953456471
63856.545373395325,188181.0,162093.0,11476.0,0.09002492947183782
63856.55537616527,188160.0,162101.0,11449.0,0.1000276994163869
63856.56537893521,188136.0,162086.0,11453.0,0.11003046935366001
63856.57538170515,188148.0,162089.0,11496.0,0.12003323929820908
63856.58538447509,188153.0,162130.0,11480.0,0.1300360092354822
63856.59538724503,188176.0,162121.0,11482.0,0.14003877918003127
63856.60539001497,188224.0,162117.0,11513.0,0.15004154911730438
63856.615392784915,188184.0,162120.0,11481.0,0.16004431906185346
63856.62539555485,188200.0,162129.0,11507.0,0.17004708899912657
63856.6353983248,188210.0,162122.0,11506.0,0.18004985894367564
63856.645401094735,188197.0,162097.0,11503.0,0.19005262888094876
63856.65540386468,188216.0,162114.0,11536.0,0.20005539882549783
63856.66540663462,188181.0,162100.0,11511.0,0.21005816876277095
63856.67540940456,188216.0,162144.0,11553.0,0.22006093870732002
63856.6854121745,188194.0,162163.0,11564.0,0.23006370864459313
63856.69541494444,188196.0,162131.0,11537.0,0.2400664785891422
63856.70541771439,188252.0,162177.0,11572.0,0.2500692485336913
63856.715420484325,188227.0,162144.0,11569.0,0.2600720184709644
63856.72542325427,188206.0,162123.0,11581.0,0.27007478841551347
63856.73542602421,188242.0,162170.0,11611.0,0.2800775583527866
63856.74542879415,188212.0,162111.0,11583.0,0.29008032829733565
63856.75543156409,188238.0,162153.0,11610.0,0.30008309823460877
63856.76543433403,188266.0,162141.0,11621.0,0.31008586817915784
63856.77543710397,188230.0,162153.0,11602.0,0.32008863811643096
63856.785439873915,188295.0,162202.0,11623.0,0.33009140806098003
63856.79544264385,188270.0,162166.0,11631.0,0.34009417799825314
63856.8054454138,188288.0,162149.0,11650.0,0.3500969479428022
63856.815448183734,188307.0,162198.0,11707.0,0.36009971788007533
63856.82545095368,188280.0,162171.0,11658.0,0.3701024878246244
63856.835453723616,188275.0,162176.0,11676.0,0.3801052577618975
63856.84545649356,188297.0,162198.0,11683.0,0.3901080277064466
63856.8554592635,188287.0,162179.0,11699.0,0.4001107976437197
63856.86546203344,188309.0,162214.0,11717.0,0.4101135675882688
63856.87546480338,188318.0,162189.0,11712.0,0.4201163375255419
63856.885467573324,188305.0,162196.0,11696.0,0.43011910747009097
63856.89547034327,188322.0,162191.0,11716.0,0.44012187741464004
63856.905473113206,188334.0,162196.0,11743.0,0.45012464735191315
63856.91547588315,188342.0,162220.0,11742.0,0.4601274172964622
63856.92547865309,188339.0,162195.0,11763.0,0.47013018723373534
63856.93548142303,188370.0,162232.0,11773.0,0.4801329571782844
63856.94548419297,188307.0,162205.0,11752.0,0.49013572711555753
63856.955486962914,188369.0,162224.0,11776.0,0.5001384970601066
63856.96548973285,188294.0,162209.0,11787.0,0.5101412669973797
63856.975492502796,188298.0,162192.0,11753.0,0.5201440369419288
63856.98549527273,188325.0,162210.0,11779.0,0.5301468068792019
63856.99549804268,188294.0,162193.0,11745.0,0.540149576823751
63857.005500812615,188253.0,162172.0,11702.0,0.5501523467610241
63857.01550358256,188248.0,162184.0,11702.0,0.5601551167055732
63857.0255063525,188207.0,162149.0,11648.0,0.5701578866428463
63857.03550912244,188179.0,162139.0,11623.0,0.5801606565873954
63857.04551189238,188157.0,162102.0,11570.0,0.5901634265246685
63857.05551466232,188096.0,162116.0,11511.0,0.6001661964692175
63857.06551743226,188135.0,162127.0,11538.0,0.6101689664064907
63857.075520202205,188102.0,162103.0,11473.0,0.6201717363510397
63857.08552297215,188033.0,162070.0,11478.0,0.6301745062955888
63857.09552574209,188084.0,162100.0,11484.0,0.6401772762328619
63857.10552851203,188035.0,162026.0,11448.0,0.650180046177411
63857.11553128197,188044.0,162063.0,11419.0,0.6601828161146841
63857.12553405191,188035.0,162071.0,11414.0,0.6701855860592332
63857.13553682185,188007.0,162042.0,11376.0,0.6801883559965063
63857.145539591795,187993.0,162062.0,11383.0,0.6901911259410554
63857.15554236173,188000.0,162043.0,11370.0,0.7001938958783285
63857.16554513168,187991.0,161994.0,11358.0,0.7101966658228775
63857.175547901614,187990.0,162018.0,11312.0,0.7201994357601507
63857.18555067156,187976.0,162005.0,11343.0,0.7302022057046997
63857.195553441496,187986.0,162012.0,11346.0,0.7402049756419729
63857.20555621144,187970.0,162035.0,11306.0,0.7502077455865219
63857.21555898138,187906.0,161958.0,11283.0,0.760210515523795
63857.22556175132,187939.0,161960.0,11290.0,0.7702132854683441
63857.23556452126,187911.0,161964.0,11273.0,0.7802160554056172
63857.245567291204,187938.0,161984.0,11290.0,0.7902188253501663
63857.25557006114,187903.0,161990.0,11275.0,0.8002215952874394
63857.265572831086,187918.0,161979.0,11255.0,0.8102243652319885
63857.27557560103,187958.0,161991.0,11273.0,0.8202271351765376
63857.28557837097,187947.0,161984.0,11275.0,0.8302299051138107
63857.29558114091,187905.0,161964.0,11299.0,0.8402326750583597
63857.30558391085,187916.0,161958.0,11256.0,0.8502354449956329
63857.315586680794,187956.0,161988.0,11288.0,0.8602382149401819
63857.32558945073,187919.0,161972.0,11266.0,0.870240984877455
63857.335592220676,187882.0,161969.0,11250.0,0.8802437548220041
63857.34559499061,187924.0,162002.0,11259.0,0.8902465247592772
63857.35559776056,187859.0,161961.0,11244.0,0.9002492947038263
63857.365600530495,187884.0,161967.0,11239.0,0.9102520646410994
63857.37560330044,187901.0,161948.0,11262.0,0.9202548345856485
63857.38560607038,187888.0,161954.0,11220.0,0.9302576045229216
63857.39560884032,187912.0,161959.0,11247.0,0.9402603744674707
63857.40561161026,187871.0,161955.0,11225.0,0.9502631444047438
63857.4156143802,187873.0,161953.0,11226.0,0.9602659143492929
63857.42561715014,187897.0,161975.0,11258.0,0.970268684286566
63857.435619920085,187888.0,161954.0,11247.0,0.9802714542311151
63857.44562269002,187895.0,161956.0,11240.0,0.9902742241683882
63857.45562545997,187907.0,161989.0,11251.0,1.0002769941129372
63857.46562822991,187884.0,161967.0,11234.0,1.0102797640574863
63857.47563099985,187924.0,161982.0,11279.0,1.0202825339947594
63857.48563376979,187887.0,161966.0,11277.0,1.0302853039393085
63857.49563653973,187860.0,161944.0,11276.0,1.0402880738765816
63857.505639309675,187918.0,161978.0,11287.0,1.0502908438211307
63857.51564207961,187898.0,161957.0,11294.0,1.0602936137584038
63857.52564484956,187908.0,161973.0,11291.0,1.0702963837029529
63857.535647619494,187933.0,161992.0,11295.0,1.080299153640226
63857.54565038944,187925.0,161969.0,11288.0,1.090301923584775
63857.555653159376,187954.0,161988.0,11282.0,1.1003046935220482
63857.56565592932,187940.0,161983.0,11310.0,1.1103074634665973
63857.57565869926,187921.0,161976.0,11293.0,1.1203102334038704
63857.5856614692,187942.0,162015.0,11309.0,1.1303130033484194
63857.59566423914,187950.0,161976.0,11339.0,1.1403157732856926
63857.605667009084,187942.0,161987.0,11337.0,1.1503185432302416
63857.61566977902,187920.0,161983.0,11349.0,1.1603213131675147
63857.625672548966,187911.0,161963.0,11335.0,1.1703240831120638
63857.6356753189,187963.0,162000.0,11353.0,1.180326853049337
63857.64567808885,187957.0,162002.0,11361.0,1.190329622993886
63857.655680858785,187999.0,161995.0,11386.0,1.2003323929311591
63857.66568362873,187991.0,162005.0,11353.0,1.2103351628757082
63857.675686398674,187973.0,162024.0,11398.0,1.2203379328202573
63857.68568916861,187964.0,162003.0,11384.0,1.2303407027575304
63857.695691938556,187993.0,162009.0,11403.0,1.2403434727020795
63857.70569470849,187980.0,162027.0,11420.0,1.2503462426393526
63857.71569747844,187973.0,161994.0,11392.0,1.2603490125839016
63857.725700248375,188001.0,162019.0,11400.0,1.2703517825211748
63857.73570301832,188011.0,162055.0,11436.0,1.2803545524657238
63857.74570578826,187971.0,162016.0,11414.0,1.290357322402997
63857.7557085582,188017.0,162028.0,11465.0,1.300360092347546
63857.76571132814,188002.0,162023.0,11451.0,1.3103628622848191
63857.77571409808,188012.0,162025.0,11425.0,1.3203656322293682
63857.78571686802,187985.0,162043.0,11484.0,1.3303684021666413
63857.795719637965,187994.0,162013.0,11446.0,1.3403711721111904
63857.8057224079,188039.0,162050.0,11471.0,1.3503739420484635
63857.81572517785,188055.0,162065.0,11483.0,1.3603767119930126
63857.825727947784,188022.0,162042.0,11466.0,1.3703794819302857
63857.83573071773,188073.0,162082.0,11493.0,1.3803822518748348
63857.845733487666,188065.0,162050.0,11480.0,1.3903850218121079
63857.85573625761,188046.0,162048.0,11535.0,1.400387791756657
63857.865739027555,188091.0,162072.0,11542.0,1.410390561701206
63857.87574179749,188054.0,162040.0,11532.0,1.4203933316384791
63857.88574456744,188047.0,162048.0,11511.0,1.4303961015830282
63857.895747337374,188038.0,162075.0,11553.0,1.4403988715203013
63857.90575010732,188052.0,162044.0,11575.0,1.4504016414648504
63857.915752877256,188055.0,162086.0,11551.0,1.4604044114021235
63857.9257556472,188094.0,162078.0,11566.0,1.4704071813466726
63857.93575841714,188099.0,162066.0,11575.0,1.4804099512839457
63857.94576118708,188127.0,162103.0,11561.0,1.4904127212284948
63857.95576395702,188123.0,162096.0,11612.0,1.500415491165768
63857.965766726964,188147.0,162090.0,11614.0,1.510418261110317
63857.9757694969,188156.0,162120.0,11599.0,1.52042103104759
63857.985772266846,188116.0,162075.0,11619.0,1.5304238009921391
63857.99577503678,188165.0,162125.0,11650.0,1.5404265709294123
63858.00577780673,188167.0,162116.0,11658.0,1.5504293408739613
63858.015780576665,188119.0,162107.0,11611.0,1.5604321108112345
63858.02578334661,188131.0,162111.0,11631.0,1.5704348807557835
63858.03578611655,188102.0,162062.0,11595.0,1.5804376506930566
63858.04578888649,188108.0,162085.0,11595.0,1.5904404206376057
63858.05579165643,188087.0,162087.0,11601.0,1.6004431905748788
63858.06579442637,188076.0,162097.0,11583.0,1.610445960519428
63858.07579719632,188048.0,162066.0,11543.0,1.620448730463977
63858.085799966255,188016.0,162032.0,11511.0,1.63045150040125
63858.0958027362,188015.0,162037.0,11496.0,1.6404542703457992
63858.10580550614,187961.0,162015.0,11447.0,1.6504570402830723
63858.11580827608,187989.0,162052.0,11424.0,1.6604598102276213
63858.12581104602,187946.0,161998.0,11394.0,1.6704625801648945
63858.13581381596,187947.0,162007.0,11405.0,1.6804653501094435
63858.1458165859,187937.0,161986.0,11434.0,1.6904681200467166
63858.155819355845,187908.0,161957.0,11369.0,1.7004708899912657
63858.16582212578,187909.0,161991.0,11371.0,1.7104736599285388
63858.17582489573,187921.0,162006.0,11360.0,1.720476429873088
63858.185827665664,187894.0,161996.0,11303.0,1.730479199810361
63858.19583043561,187916.0,161961.0,11342.0,1.74048196975491
63858.205833205546,187881.0,161956.0,11301.0,1.7504847396921832
63858.21583597549,187914.0,161961.0,11310.0,1.7604875096367323
63858.22583874543,187908.0,161973.0,11291.0,1.7704902795740054
63858.23584151537,187914.0,161990.0,11306.0,1.7804930495185545
63858.24584428531,187918.0,162001.0,11315.0,1.7904958194558276
63858.255847055254,187891.0,161973.0,11297.0,1.8004985894003767
63858.2658498252,187880.0,161991.0,11273.0,1.8105013593449257
63858.275852595136,187889.0,161973.0,11308.0,1.8205041292821988
63858.28585536508,187854.0,161958.0,11261.0,1.830506899226748
63858.29585813502,187882.0,161953.0,11276.0,1.840509669164021
63858.30586090496,187882.0,161987.0,11271.0,1.85051243910857
63858.3158636749,187925.0,161946.0,11287.0,1.8605152090458432
63858.325866444844,187917.0,161980.0,11297.0,1.8705179789903923
63858.33586921478,187900.0,161954.0,11272.0,1.8805207489276654
63858.345871984726,187888.0,161946.0,11305.0,1.8905235188722145
63858.35587475466,187874.0,161937.0,11258.0,1.9005262888094876
63858.36587752461,187884.0,161970.0,11291.0,1.9105290587540367
63858.375880294545,187883.0,161954.0,11276.0,1.9205318286913098
63858.38588306449,187882.0,161938.0,11282.0,1.9305345986358589
63858.39588583443,187851.0,161941.0,11278.0,1.940537368573132
63858.40588860437,187867.0,161971.0,11272.0,1.950540138517681
63858.41589137431,187894.0,161981.0,11274.0,1.9605429084549542
63858.42589414425,187893.0,161942.0,11274.0,1.9705456783995032
63858.43589691419,187844.0,161926.0,11270.0,1.9805484483367763
63858.445899684135,187877.0,161939.0,11306.0,1.9905512182813254
63858.45590245408,187896.0,161957.0,11260.0,2.0005539882258745
63858.46590522402,187856.0,161930.0,11298.0,2.0105567581631476
63858.47590799396,187875.0,161931.0,11274.0,2.0205595281076967
63858.4859107639,187898.0,161928.0,11275.0,2.03056229804497
63858.49591353384,187912.0,161945.0,11281.0,2.040565067989519
63858.50591630378,187889.0,161958.0,11274.0,2.050567837926792
63858.515919073725,187924.0,161943.0,11287.0,2.060570607871341
63858.52592184366,187899.0,161966.0,11301.0,2.070573377808614
63858.53592461361,187936.0,161985.0,11316.0,2.0805761477531632
63858.545927383544,187936.0,161954.0,11330.0,2.0905789176904364
63858.55593015349,187943.0,161974.0,11354.0,2.1005816876349854
63858.565932923426,187950.0,162004.0,11364.0,2.1105844575722585
63858.57593569337,187955.0,161978.0,11337.0,2.1205872275168076
63858.58593846331,187964.0,161967.0,11340.0,2.1305899974540807
63858.59594123325,187980.0,162002.0,11342.0,2.14059276739863
63858.60594400319,187986.0,162017.0,11337.0,2.150595537335903
63858.615946773134,187963.0,161996.0,11378.0,2.160598307280452
63858.62594954307,187971.0,162007.0,11374.0,2.170601077217725
63858.635952313016,187993.0,162009.0,11392.0,2.180603847162274
63858.64595508296,188002.0,161989.0,11389.0,2.1906066171068233
63858.6559578529,187966.0,161997.0,11380.0,2.2006093870440964
63858.66596062284,188024.0,162021.0,11406.0,2.2106121569886454
63858.67596339278,188013.0,162022.0,11405.0,2.2206149269259186
63858.685966162724,187999.0,162028.0,11436.0,2.2306176968704676
63858.69596893266,187975.0,162016.0,11418.0,2.2406204668077407
63858.705971702606,187989.0,161999.0,11427.0,2.25062323675229
63858.71597447254,188003.0,162014.0,11436.0,2.260626006689563
63858.72597724249,188065.0,162031.0,11465.0,2.270628776634112
63858.735980012425,187994.0,161990.0,11442.0,2.280631546571385
63858.74598278237,188047.0,162037.0,11455.0,2.290634316515934
63858.75598555231,188061.0,162056.0,11478.0,2.3006370864532073
63858.76598832225,188015.0,162025.0,11460.0,2.3106398563977564
63858.77599109219,188023.0,162008.0,11469.0,2.3206426263350295
63858.78599386213,188071.0,162054.0,11487.0,2.3306453962795786
63858.79599663207,188096.0,162089.0,11503.0,2.3406481662168517
63858.805999402015,188106.0,162090.0,11524.0,2.3506509361614008
63858.81600217195,188089.0,161992.0,11506.0,2.360653706098674
63858.8260049419,188091.0,162051.0,11524.0,2.370656476043223
63858.83600771184,188085.0,162081.0,11561.0,2.380659245987772
63858.84601048178,188080.0,162049.0,11523.0,2.390662015925045
63858.85601325172,188133.0,162079.0,11569.0,2.400664785869594
63858.86601602166,188129.0,162078.0,11564.0,2.4106675558068673
63858.876018791605,188144.0,162091.0,11562.0,2.4206703257514164
63858.88602156154,188117.0,162066.0,11566.0,2.4306730956886895
63858.89602433149,188142.0,162119.0,11597.0,2.4406758656332386
63858.906027101424,188156.0,162102.0,11586.0,2.4506786355705117
63858.91602987137,188183.0,162084.0,11606.0,2.4606814055150608
63858.926032641306,188177.0,162086.0,11626.0,2.470684175452334
63858.93603541125,188160.0,162096.0,11592.0,2.480686945396883
63858.94603818119,188082.0,162054.0,11585.0,2.490689715334156
63858.95604095113,188071.0,162060.0,11577.0,2.500692485278705
63858.96604372107,188053.0,162079.0,11537.0,2.5106952552159782
63858.976046491014,188070.0,162048.0,11533.0,2.5206980251605273
63858.98604926095,188064.0,162057.0,11516.0,2.5307007950978004
63858.996052030896,188059.0,162076.0,11480.0,2.5407035650423495
63859.00605480083,188048.0,162037.0,11517.0,2.5507063349796226
63859.01605757078,188021.0,162052.0,11468.0,2.5607091049241717
63859.026060340715,188020.0,162036.0,11459.0,2.570711874861445
63859.03606311066,188050.0,162059.0,11431.0,2.580714644805994
63859.046065880604,188013.0,162016.0,11442.0,2.590717414750543
63859.05606865054,187999.0,162009.0,11422.0,2.600720184687816
63859.066071420486,188014.0,162027.0,11422.0,2.610722954632365
63859.07607419042,187963.0,162018.0,11388.0,2.6207257245696383
63859.08607696037,188026.0,161997.0,11422.0,2.6307284945141873
63859.096079730305,188000.0,162035.0,11416.0,2.6407312644514604
63859.10608250025,188019.0,162028.0,11409.0,2.6507340343960095
63859.11608527019,188019.0,162024.0,11418.0,2.6607368043332826
63859.12608804013,188005.0,161994.0,11379.0,2.6707395742778317
63859.13609081007,188029.0,162021.0,11411.0,2.680742344215105
63859.14609358001,188027.0,162027.0,11396.0,2.690745114159654
63859.15609634995,188005.0,161999.0,11379.0,2.700747884096927
63859.166099119895,188041.0,162046.0,11402.0,2.710750654041476
63859.17610188983,188029.0,162006.0,11385.0,2.720753423978749
63859.18610465978,188035.0,162026.0,11405.0,2.7307561939232983
63859.196107429714,188016.0,162020.0,11371.0,2.7407589638605714
63859.20611019966,188016.0,162025.0,11419.0,2.7507617338051205
63859.216112969596,188045.0,162003.0,11413.0,2.7607645037423936
63859.22611573954,188032.0,162013.0,11410.0,2.7707672736869426
63859.236118509485,188007.0,162022.0,11418.0,2.7807700436314917
63859.24612127942,188082.0,162055.0,11421.0,2.790772813568765
63859.25612404937,188007.0,162036.0,11394.0,2.800775583513314
63859.266126819304,188038.0,162029.0,11422.0,2.810778353450587
63859.27612958925,188078.0,162052.0,11398.0,2.820781123395136
63859.286132359186,188080.0,162042.0,11447.0,2.830783893332409
63859.29613512913,188048.0,162053.0,11419.0,2.8407866632769583
63859.30613789907,188049.0,162024.0,11417.0,2.8507894332142314
63859.31614066901,188060.0,162051.0,11415.0,2.8607922031587805
63859.32614343895,188087.0,162072.0,11428.0,2.8707949730960536
63859.336146208894,188015.0,162033.0,11402.0,2.8807977430406027
63859.34614897883,188054.0,162034.0,11416.0,2.8908005129778758
63859.356151748776,188037.0,162058.0,11425.0,2.900803282922425
63859.36615451871,188038.0,162015.0,11409.0,2.910806052859698
63859.37615728866,188114.0,162061.0,11436.0,2.920808822804247
63859.386160058595,188105.0,162043.0,11423.0,2.93081159274152
63859.39616282854,188076.0,162048.0,11453.0,2.940814362686069
63859.40616559848,188128.0,162067.0,11460.0,2.9508171326233423
63859.41616836842,188119.0,162041.0,11468.0,2.9608199025678914
63859.426171138366,188123.0,162073.0,11471.0,2.9708226725124405
63859.4361739083,188110.0,162054.0,11475.0,2.9808254424497136
63859.44617667825,188118.0,162061.0,11482.0,2.9908282123942627
63859.456179448185,188111.0,162102.0,11493.0,3.000830982331536
63859.46618221813,188158.0,162081.0,11522.0,3.010833752276085
63859.47618498807,188141.0,162065.0,11492.0,3.020836522213358
63859.48618775801,188163.0,162099.0,11499.0,3.030839292157907
63859.49619052795,188175.0,162096.0,11552.0,3.04084206209518
63859.50619329789,188179.0,162090.0,11541.0,3.0508448320397292
63859.51619606783,188182.0,162108.0,11544.0,3.0608476019770023
63859.526198837775,188196.0,162074.0,11557.0,3.0708503719215514
63859.53620160771,188161.0,162058.0,11548.0,3.0808531418588245
63859.54620437766,188213.0,162129.0,11573.0,3.0908559118033736
63859.556207147594,188218.0,162125.0,11570.0,3.1008586817406467
63859.56620991754,188179.0,162118.0,11563.0,3.110861451685196
63859.576212687476,188220.0,162115.0,11611.0,3.120864221622469
63859.58621545742,188208.0,162128.0,11579.0,3.130866991567018
63859.59621822736,188213.0,162125.0,11608.0,3.140869761504291
63859.6062209973,188221.0,162140.0,11624.0,3.15087253144884
63859.61622376724,188210.0,162111.0,11595.0,3.1608753013861133
63859.626226537184,188260.0,162164.0,11640.0,3.1708780713306624
63859.63622930713,188242.0,162131.0,11625.0,3.1808808412752114
63859.646232077066,188207.0,162098.0,11630.0,3.1908836112124845
63859.65623484701,188293.0,162172.0,11650.0,3.2008863811570336
63859.66623761695,188249.0,162129.0,11634.0,3.2108891510943067
63859.67624038689,188270.0,162145.0,11662.0,3.220891921038856
63859.68624315683,188294.0,162124.0,11713.0,3.230894690976129
63859.696245926774,188266.0,162142.0,11672.0,3.240897460920678
63859.70624869671,188284.0,162161.0,11689.0,3.250900230857951
63859.716251466656,188296.0,162164.0,11696.0,3.2609030008025
63859.72625423659,188263.0,162141.0,11676.0,3.2709057707397733
63859.73625700654,188306.0,162181.0,11735.0,3.2809085406843224
63859.746259776475,188253.0,162131.0,11692.0,3.2909113106215955
63859.75626254642,188243.0,162142.0,11692.0,3.3009140805661445
63859.76626531636,188249.0,162151.0,11651.0,3.3109168505034177
63859.7762680863,188218.0,162099.0,11642.0,3.3209196204479667
63859.78627085624,188248.0,162152.0,11665.0,3.33092239038524
63859.79627362618,188207.0,162117.0,11635.0,3.340925160329789
63859.80627639612,188173.0,162090.0,11613.0,3.350927930267062
63859.816279166065,188185.0,162091.0,11616.0,3.360930700211611
63859.82628193601,188141.0,162086.0,11596.0,3.37093347015616
63859.83628470595,188185.0,162109.0,11574.0,3.3809362400934333
63859.84628747589,188191.0,162089.0,11574.0,3.3909390100379824
63859.85629024583,188138.0,162105.0,11526.0,3.4009417799752555
63859.86629301577,188176.0,162102.0,11526.0,3.4109445499198046
63859.87629578571,188174.0,162115.0,11580.0,3.4209473198570777
63859.886298555655,188145.0,162087.0,11562.0,3.4309500898016267
63859.89630132559,188152.0,162096.0,11546.0,3.4409528597389
63859.90630409554,188164.0,162057.0,11554.0,3.450955629683449
63859.916306865474,188153.0,162083.0,11531.0,3.460958399620722
63859.92630963542,188157.0,162065.0,11524.0,3.470961169565271
63859.936312405356,188135.0,162070.0,11543.0,3.4809639395025442
63859.9463151753,188125.0,162070.0,11512.0,3.4909667094470933
63859.95631794524,188151.0,162061.0,11527.0,3.5009694793843664
63859.96632071518,188195.0,162069.0,11548.0,3.5109722493289155
63859.97632348512,188152.0,162075.0,11514.0,3.5209750192661886
63859.986326255064,188173.0,162087.0,11542.0,3.5309777892107377
63859.996329025,188171.0,162082.0,11538.0,3.540980559148011
63860.006331794946,188167.0,162075.0,11525.0,3.55098332909256
63860.01633456489,188175.0,162037.0,11540.0,3.560986099037109
63860.02633733483,188144.0,162081.0,11551.0,3.570988868974382
63860.03634010477,188168.0,162086.0,11529.0,3.580991638918931
63860.04634287471,188161.0,162128.0,11560.0,3.5909944088562042
63860.056345644654,188136.0,162070.0,11517.0,3.6009971788007533
63860.06634841459,188193.0,162089.0,11555.0,3.6109999487380264
63860.076351184536,188174.0,162084.0,11541.0,3.6210027186825755
63860.08635395447,188154.0,162069.0,11526.0,3.6310054886198486
63860.09635672442,188189.0,162102.0,11571.0,3.6410082585643977
63860.106359494355,188144.0,162053.0,11526.0,3.651011028501671
63860.1163622643,188183.0,162088.0,11537.0,3.66101379844622
63860.12636503424,188197.0,162093.0,11536.0,3.671016568383493
63860.13636780418,188174.0,162083.0,11537.0,3.681019338328042
63860.14637057412,188195.0,162119.0,11561.0,3.691022108265315
63860.15637334406,188181.0,162074.0,11545.0,3.7010248782098643
63860.166376114,188178.0,162070.0,11597.0,3.7110276481471374
63860.176378883945,188214.0,162114.0,11585.0,3.7210304180916864
63860.18638165388,188192.0,162078.0,11566.0,3.7310331880289596
63860.19638442383,188222.0,162098.0,11598.0,3.7410359579735086
63860.20638719377,188221.0,162128.0,11600.0,3.7510387279180577
63860.21638996371,188245.0,162133.0,11605.0,3.761041497855331
63860.22639273365,188221.0,162126.0,11611.0,3.77104426779988
63860.23639550359,188250.0,162125.0,11630.0,3.781047037737153
63860.246398273535,188252.0,162132.0,11617.0,3.791049807681702
63860.25640104347,188246.0,162117.0,11613.0,3.801052577618975
63860.26640381342,188279.0,162137.0,11658.0,3.8110553475635243
63860.276406583354,188204.0,162083.0,11605.0,3.8210581175007974
63860.2864093533,188255.0,162124.0,11651.0,3.8310608874453465
63860.296412123236,188290.0,162133.0,11656.0,3.8410636573826196
63860.30641489318,188250.0,162127.0,11649.0,3.8510664273271686
63860.31641766312,188255.0,162134.0,11675.0,3.8610691972644418
63860.32642043306,188290.0,162152.0,11680.0,3.871071967208991
63860.336423203,188253.0,162177.0,11669.0,3.881074737146264
63860.346425972944,188333.0,162123.0,11715.0,3.891077507090813
63860.35642874288,188337.0,162170.0,11689.0,3.901080277028086
63860.366431512826,188320.0,162161.0,11711.0,3.911083046972635
63860.37643428276,188314.0,162182.0,11747.0,3.9210858169099083
63860.38643705271,188310.0,162138.0,11714.0,3.9310885868544574
63860.396439822645,188345.0,162166.0,11755.0,3.9410913567917305
63860.40644259259,188318.0,162144.0,11746.0,3.9510941267362796
63860.416445362534,188284.0,162144.0,11728.0,3.9610968966808286
63860.42644813247,188372.0,162180.0,11774.0,3.9710996666181018
63860.436450902416,188314.0,162176.0,11769.0,3.981102436562651
63860.44645367235,188359.0,162184.0,11781.0,3.991105206499924
63860.4564564423,188365.0,162177.0,11768.0,4.001107976444473
63860.466459212235,188361.0,162144.0,11793.0,4.011110746381746
63860.47646198218,188386.0,162212.0,11820.0,4.021113516326295
63860.48646475212,188387.0,162205.0,11807.0,4.031116286263568
63860.49646752206,188365.0,162175.0,11798.0,4.041119056208117
63860.506470292,188393.0,162218.0,11848.0,4.0511218261453905
63860.51647306194,188400.0,162169.0,11832.0,4.06112459608994
63860.52647583188,188397.0,162204.0,11842.0,4.071127366027213
63860.536478601825,188402.0,162182.0,11882.0,4.081130135971762
63860.54648137176,188377.0,162166.0,11850.0,4.091132905909035
63860.55648414171,188385.0,162187.0,11869.0,4.101135675853584
63860.566486911644,188366.0,162183.0,11851.0,4.111138445790857
63860.57648968159,188352.0,162159.0,11836.0,4.121141215735406
63860.586492451526,188344.0,162166.0,11828.0,4.131143985672679
63860.59649522147,188301.0,162162.0,11828.0,4.141146755617228
63860.606497991415,188313.0,162166.0,11807.0,4.151149525561777
63860.61650076135,188265.0,162177.0,11762.0,4.1611522954990505
63860.6265035313,188322.0,162146.0,11779.0,4.1711550654436
63860.636506301234,188296.0,162173.0,11774.0,4.181157835380873
63860.64650907118,188275.0,162133.0,11763.0,4.191160605325422
63860.656511841116,188248.0,162128.0,11752.0,4.201163375262695
63860.66651461106,188285.0,162136.0,11761.0,4.211166145207244
63860.676517381,188246.0,162131.0,11733.0,4.221168915144517
63860.68652015094,188242.0,162119.0,11728.0,4.231171685089066
63860.69652292088,188216.0,162109.0,11713.0,4.241174455026339
63860.706525690824,188266.0,162152.0,11716.0,4.251177224970888
63860.71652846076,188235.0,162115.0,11689.0,4.2611799949081615
63860.726531230706,188238.0,162114.0,11710.0,4.2711827648527105
63860.73653400064,188247.0,162099.0,11720.0,4.281185534789984
63860.74653677059,188247.0,162113.0,11672.0,4.291188304734533
63860.756539540525,188232.0,162098.0,11688.0,4.301191074671806
63860.76654231047,188240.0,162113.0,11685.0,4.311193844616355
63860.77654508041,188226.0,162068.0,11688.0,4.321196614553628
63860.78654785035,188254.0,162142.0,11704.0,4.331199384498177
63860.796550620296,188208.0,162097.0,11672.0,4.341202154442726
63860.80655339023,188246.0,162117.0,11694.0,4.351204924379999
63860.81655616018,188246.0,162117.0,11712.0,4.361207694324548
63860.826558930115,188200.0,162105.0,11659.0,4.3712104642618215
63860.83656170006,188207.0,162097.0,11681.0,4.3812132342063705
63860.84656447,188248.0,162111.0,11690.0,4.391216004143644
63860.85656723994,188238.0,162107.0,11676.0,4.401218774088193
63860.86657000988,188233.0,162122.0,11718.0,4.411221544025466
63860.87657277982,188226.0,162081.0,11670.0,4.421224313970015
63860.88657554976,188239.0,162111.0,11704.0,4.431227083907288
63860.896578319705,188244.0,162139.0,11705.0,4.441229853851837
63860.90658108964,188217.0,162095.0,11678.0,4.45123262378911
63860.91658385959,188279.0,162121.0,11713.0,4.461235393733659
63860.926586629525,188253.0,162113.0,11681.0,4.471238163670932
63860.93658939947,188217.0,162110.0,11721.0,4.4812409336154815
63860.946592169406,188252.0,162131.0,11719.0,4.491243703552755
63860.95659493935,188232.0,162107.0,11686.0,4.501246473497304
63860.96659770929,188259.0,162117.0,11731.0,4.511249243434577
63860.97660047923,188259.0,162127.0,11734.0,4.521252013379126
63860.98660324917,188246.0,162092.0,11712.0,4.531254783316399
63860.996606019115,188231.0,162142.0,11734.0,4.541257553260948
63861.00660878906,188250.0,162133.0,11723.0,4.551260323205497
63861.016611559,188288.0,162118.0,11736.0,4.56126309314277
63861.02661432894,188295.0,162121.0,11736.0,4.571265863087319
63861.03661709888,188270.0,162129.0,11731.0,4.581268633024592
63861.04661986882,188294.0,162139.0,11766.0,4.5912714029691415
63861.05662263876,188297.0,162148.0,11766.0,4.601274172906415
63861.066625408705,188293.0,162140.0,11781.0,4.611276942850964
63861.07662817864,188326.0,162142.0,11799.0,4.621279712788237
63861.08663094859,188297.0,162122.0,11796.0,4.631282482732786
63861.096633718524,188328.0,162137.0,11797.0,4.641285252670059
63861.10663648847,188303.0,162139.0,11796.0,4.651288022614608
63861.116639258405,188318.0,162142.0,11821.0,4.661290792551881
63861.12664202835,188348.0,162143.0,11796.0,4.67129356249643
63861.13664479829,188337.0,162160.0,11825.0,4.681296332433703
63861.14664756823,188343.0,162131.0,11838.0,4.691299102378252
63861.15665033817,188356.0,162163.0,11833.0,4.7013018723155255
63861.166653108114,188352.0,162139.0,11847.0,4.711304642260075
63861.17665587805,188374.0,162156.0,11842.0,4.721307412197348
63861.186658647996,188362.0,162142.0,11863.0,4.731310182141897
63861.19666141794,188402.0,162192.0,11887.0,4.741312952086446
63861.20666418788,188339.0,162167.0,11858.0,4.751315722023719
63861.21666695782,188372.0,162175.0,11879.0,4.761318491968268
63861.22666972776,188415.0,162168.0,11910.0,4.771321261905541
63861.236672497704,188370.0,162130.0,11909.0,4.78132403185009
63861.24667526764,188399.0,162187.0,11942.0,4.791326801787363
63861.256678037586,188405.0,162184.0,11923.0,4.801329571731912
63861.26668080752,188411.0,162183.0,11936.0,4.8113323416691856
63861.27668357747,188439.0,162227.0,11965.0,4.821335111613735
63861.286686347405,188399.0,162176.0,11922.0,4.831337881551008
63861.29668911735,188432.0,162195.0,11945.0,4.841340651495557
63861.30669188729,188456.0,162218.0,11937.0,4.85134342143283
63861.31669465723,188446.0,162173.0,11957.0,4.861346191377379
63861.32669742717,188482.0,162236.0,12008.0,4.871348961314652
63861.33670019711,188422.0,162186.0,12026.0,4.881351731259201
63861.34670296705,188469.0,162211.0,11987.0,4.891354501196474
63861.356705736995,188483.0,162194.0,11989.0,4.901357271141023
63861.36670850693,188470.0,162210.0,12002.0,4.9113600410782965
63861.37671127688,188502.0,162235.0,12023.0,4.921362811022846
63861.38671404682,188476.0,162245.0,12022.0,4.931365580967395
63861.39671681676,188520.0,162244.0,12067.0,4.941368350904668
63861.4067195867,188510.0,162232.0,12029.0,4.951371120849217
63861.41672235664,188517.0,162236.0,12068.0,4.96137389078649
63861.426725126585,188498.0,162228.0,12115.0,4.971376660731039
63861.43672789652,188522.0,162232.0,12065.0,4.981379430668312
63861.44673066647,188513.0,162226.0,12075.0,4.991382200612861
63861.456733436404,188531.0,162252.0,12090.0,5.001384970550134
63861.46673620635,188523.0,162265.0,12083.0,5.011387740494683
63861.476738976286,188484.0,162212.0,12109.0,5.0213905104319565
63861.48674174623,188463.0,162231.0,12063.0,5.031393280376506
63861.49674451617,188486.0,162230.0,12098.0,5.041396050313779
63861.50674728611,188487.0,162237.0,12087.0,5.051398820258328
63861.51675005605,188472.0,162221.0,12041.0,5.061401590195601
63861.526752825994,188428.0,162198.0,12093.0,5.07140436014015
63861.53675559593,188439.0,162213.0,12066.0,5.081407130077423
63861.546758365876,188393.0,162183.0,12070.0,5.091409900021972
63861.55676113581,188435.0,162185.0,12056.0,5.101412669959245
63861.56676390576,188423.0,162189.0,12044.0,5.111415439903794
63861.5767666757,188408.0,162202.0,12028.0,5.121418209848343
63861.58676944564,188414.0,162187.0,12014.0,5.1314209797856165
63861.596772215584,188424.0,162198.0,11998.0,5.141423749730166
63861.60677498552,188435.0,162216.0,12039.0,5.151426519667439
63861.616777755466,188397.0,162196.0,12021.0,5.161429289611988
63861.6267805254,188399.0,162191.0,12007.0,5.171432059549261
63861.63678329535,188411.0,162166.0,12018.0,5.18143482949381
63861.646786065285,188413.0,162200.0,12005.0,5.191437599431083
63861.65678883523,188393.0,162185.0,11996.0,5.201440369375632
63861.66679160517,188404.0,162192.0,12007.0,5.211443139312905
63861.67679437511,188371.0,162157.0,11979.0,5.221445909257454
63861.68679714505,188373.0,162168.0,11979.0,5.2314486791947274
63861.69679991499,188374.0,162181.0,12014.0,5.2414514491392765
63861.70680268493,188366.0,162181.0,11990.0,5.25145421907655
63861.716805454875,188370.0,162180.0,11977.0,5.261456989021099
63861.72680822481,188391.0,162170.0,11971.0,5.271459758958372
63861.73681099476,188357.0,162146.0,11966.0,5.281462528902921
63861.746813764694,188378.0,162161.0,11996.0,5.291465298840194
63861.75681653464,188359.0,162136.0,11962.0,5.301468068784743
63861.766819304576,188396.0,162187.0,11993.0,5.311470838722016
63861.77682207452,188414.0,162186.0,12012.0,5.321473608666565
63861.786824844465,188407.0,162203.0,11989.0,5.331476378611114
63861.7968276144,188391.0,162164.0,11982.0,5.3414791485483875
63861.80683038435,188398.0,162189.0,12017.0,5.3514819184929365
63861.816833154284,188362.0,162149.0,12017.0,5.36148468843021
63861.82683592423,188395.0,162184.0,11997.0,5.371487458374759
63861.836838694166,188379.0,162205.0,11994.0,5.381490228312032
63861.84684146411,188404.0,162180.0,12030.0,5.391492998256581
63861.85684423405,188425.0,162193.0,11985.0,5.401495768193854
63861.86684700399,188361.0,162186.0,11997.0,5.411498538138403
63861.87684977393,188390.0,162187.0,11998.0,5.421501308075676
63861.886852543874,188426.0,162183.0,12026.0,5.431504078020225
63861.89685531381,188420.0,162154.0,12053.0,5.441506847957498
63861.906858083756,188415.0,162185.0,12013.0,5.4515096179020475
63861.91686085369,188429.0,162153.0,12022.0,5.461512387839321
63861.92686362364,188438.0,162195.0,12051.0,5.47151515778387
63861.936866393575,188406.0,162195.0,12032.0,5.481517927721143
63861.94686916352,188437.0,162174.0,12031.0,5.491520697665692
63861.95687193346,188418.0,162173.0,12044.0,5.501523467602965
63861.9668747034,188425.0,162184.0,12046.0,5.511526237547514
63861.976877473346,188460.0,162209.0,12071.0,5.521529007492063
63861.98688024328,188462.0,162189.0,12070.0,5.531531777429336
63861.99688301323,188478.0,162172.0,12055.0,5.541534547373885
63862.006885783165,188463.0,162166.0,12075.0,5.551537317311158
63862.01688855311,188446.0,162197.0,12070.0,5.5615400872557075
63862.02689132305,188474.0,162208.0,12083.0,5.571542857192981
63862.03689409299,188510.0,162187.0,12122.0,5.58154562713753
63862.04689686293,188463.0,162200.0,12078.0,5.591548397074803
63862.05689963287,188491.0,162225.0,12124.0,5.601551167019352
63862.06690240281,188504.0,162212.0,12107.0,5.611553936956625
63862.076905172755,188521.0,162245.0,12124.0,5.621556706901174
63862.08690794269,188487.0,162236.0,12120.0,5.631559476838447
63862.09691071264,188494.0,162209.0,12127.0,5.641562246782996
63862.106913482574,188515.0,162224.0,12143.0,5.651565016720269
63862.11691625252,188523.0,162238.0,12141.0,5.661567786664818
63862.126919022456,188500.0,162205.0,12122.0,5.6715705566020915
63862.1369217924,188519.0,162248.0,12135.0,5.681573326546641
63862.14692456234,188537.0,162223.0,12172.0,5.691576096483914
63862.15692733228,188538.0,162237.0,12178.0,5.701578866428463
63862.16693010223,188567.0,162246.0,12185.0,5.711581636373012
63862.176932872164,188568.0,162258.0,12201.0,5.721584406310285
63862.18693564211,188562.0,162235.0,12190.0,5.731587176254834
63862.196938412046,188563.0,162244.0,12215.0,5.741589946192107
63862.20694118199,188538.0,162218.0,12191.0,5.751592716136656
63862.21694395193,188578.0,162263.0,12208.0,5.761595486073929
63862.22694672187,188586.0,162247.0,12223.0,5.771598256018478
63862.23694949181,188582.0,162235.0,12211.0,5.7816010259557515
63862.246952261754,188618.0,162255.0,12217.0,5.791603795900301
63862.25695503169,188611.0,162271.0,12225.0,5.801606565837574
63862.266957801636,188594.0,162248.0,12246.0,5.811609335782123
63862.27696057157,188577.0,162234.0,12236.0,5.821612105719396
63862.28696334152,188590.0,162236.0,12279.0,5.831614875663945
63862.296966111455,188623.0,162249.0,12271.0,5.841617645601218
63862.3069688814,188633.0,162272.0,12281.0,5.851620415545767
63862.31697165134,188615.0,162286.0,12297.0,5.86162318548304
63862.32697442128,188605.0,162264.0,12293.0,5.871625955427589
63862.33697719122,188619.0,162284.0,12311.0,5.8816287253648625
63862.34697996116,188655.0,162286.0,12321.0,5.8916314953094115
63862.3569827311,188666.0,162305.0,12306.0,5.901634265246685
63862.366985501045,188660.0,162289.0,12352.0,5.911637035191234
63862.37698827099,188696.0,162269.0,12313.0,5.921639805135783
63862.38699104093,188678.0,162300.0,12347.0,5.931642575073056
63862.39699381087,188664.0,162288.0,12349.0,5.941645345017605
63862.40699658081,188675.0,162249.0,12359.0,5.951648114954878
63862.41699935075,188681.0,162277.0,12374.0,5.961650884899427
63862.42700212069,188708.0,162298.0,12381.0,5.9716536548367
63862.437004890635,188678.0,162291.0,12390.0,5.981656424781249
63862.44700766057,188730.0,162296.0,12409.0,5.9916591947185225
63862.45701043052,188718.0,162334.0,12423.0,6.001661964663072
63862.467013200454,188734.0,162317.0,12375.0,6.011664734600345
63862.4770159704,188706.0,162296.0,12435.0,6.021667504544894
63862.487018740336,188707.0,162285.0,12396.0,6.031670274482167
63862.49702151028,188688.0,162338.0,12436.0,6.041673044426716
63862.50702428022,188685.0,162309.0,12428.0,6.051675814363989
63862.51702705016,188673.0,162286.0,12425.0,6.061678584308538
63862.5270298201,188648.0,162322.0,12416.0,6.071681354245811
63862.537032590044,188620.0,162273.0,12382.0,6.08168412419036
63862.54703535998,188658.0,162284.0,12407.0,6.091686894127633
63862.557038129926,188632.0,162301.0,12390.0,6.1016896640721825
63862.56704089987,188600.0,162267.0,12361.0,6.111692434016732
63862.57704366981,188638.0,162290.0,12403.0,6.121695203954005
63862.58704643975,188586.0,162254.0,12377.0,6.131697973898554
63862.59704920969,188616.0,162271.0,12374.0,6.141700743835827
63862.607051979634,188643.0,162296.0,12386.0,6.151703513780376
63862.61705474957,188585.0,162264.0,12353.0,6.161706283717649
63862.627057519516,188609.0,162289.0,12337.0,6.171709053662198
63862.63706028945,188610.0,162263.0,12363.0,6.181711823599471
63862.6470630594,188574.0,162243.0,12380.0,6.19171459354402
63862.657065829335,188635.0,162283.0,12387.0,6.201717363481293
63862.66706859928,188552.0,162210.0,12369.0,6.2117201334258425
63862.67707136922,188599.0,162264.0,12363.0,6.221722903363116
63862.68707413916,188582.0,162253.0,12358.0,6.231725673307665
63862.6970769091,188561.0,162228.0,12369.0,6.241728443244938
63862.70707967904,188568.0,162270.0,12350.0,6.251731213189487
63862.71708244898,188599.0,162255.0,12349.0,6.26173398312676
63862.727085218925,188587.0,162235.0,12342.0,6.271736753071309
63862.73708798886,188619.0,162259.0,12337.0,6.281739523008582
63862.74709075881,188586.0,162254.0,12355.0,6.291742292953131
63862.75709352875,188595.0,162265.0,12349.0,6.30174506289768
63862.76709629869,188590.0,162259.0,12338.0,6.311747832834953
63862.77709906863,188621.0,162227.0,12346.0,6.3217506027795025
63862.78710183857,188585.0,162247.0,12322.0,6.331753372716776
63862.797104608515,188621.0,162269.0,12350.0,6.341756142661325
63862.80710737845,188579.0,162256.0,12351.0,6.351758912598598
63862.8171101484,188574.0,162236.0,12340.0,6.361761682543147
63862.827112918334,188630.0,162246.0,12371.0,6.37176445248042
63862.83711568828,188616.0,162252.0,12349.0,6.381767222424969
63862.847118458216,188610.0,162272.0,12324.0,6.391769992362242
63862.85712122816,188621.0,162280.0,12368.0,6.401772762306791
63862.8671239981,188613.0,162272.0,12340.0,6.411775532244064
63862.87712676804,188612.0,162251.0,12347.0,6.4217783021886135
63862.88712953798,188616.0,162257.0,12322.0,6.431781072125887
63862.897132307924,188598.0,162240.0,12325.0,6.441783842070436
63862.90713507786,188624.0,162271.0,12351.0,6.451786612007709
63862.917137847806,188625.0,162259.0,12348.0,6.461789381952258
63862.92714061774,188608.0,162262.0,12331.0,6.471792151889531
63862.93714338769,188623.0,162270.0,12361.0,6.48179492183408
63862.94714615763,188601.0,162233.0,12342.0,6.491797691778629
63862.95714892757,188609.0,162244.0,12356.0,6.501800461715902
63862.967151697514,188619.0,162271.0,12396.0,6.511803231660451
63862.97715446745,188607.0,162244.0,12340.0,6.521806001597724
63862.987157237396,188644.0,162241.0,12380.0,6.5318087715422735
63862.99716000733,188633.0,162262.0,12367.0,6.541811541479547
63863.00716277728,188595.0,162234.0,12359.0,6.551814311424096
63863.017165547215,188671.0,162288.0,12370.0,6.561817081361369
63863.02716831716,188623.0,162261.0,12375.0,6.571819851305918
63863.0371710871,188649.0,162264.0,12388.0,6.581822621243191
63863.04717385704,188684.0,162275.0,12408.0,6.59182539118774
63863.05717662698,188661.0,162239.0,12399.0,6.601828161125013
63863.06717939692,188662.0,162230.0,12424.0,6.611830931069562
63863.07718216686,188661.0,162247.0,12404.0,6.621833701006835
63863.087184936805,188663.0,162258.0,12402.0,6.631836470951384
63863.09718770674,188639.0,162296.0,12414.0,6.6418392408886575
63863.10719047669,188657.0,162269.0,12417.0,6.651842010833207
63863.117193246624,188682.0,162280.0,12425.0,6.66184478077048
63863.12719601657,188710.0,162280.0,12406.0,6.671847550715029
63863.13719878651,188666.0,162281.0,12423.0,6.681850320659578
63863.14720155645,188680.0,162299.0,12431.0,6.691853090596851
63863.157204326395,188688.0,162271.0,12432.0,6.7018558605414
63863.16720709633,188688.0,162251.0,12438.0,6.711858630478673
63863.17720986628,188715.0,162241.0,12462.0,6.721861400423222
63863.187212636214,188669.0,162271.0,12444.0,6.731864170360495
63863.19721540616,188666.0,162279.0,12445.0,6.741866940305044
63863.207218176096,188707.0,162312.0,12448.0,6.7518697102423175
63863.21722094604,188695.0,162253.0,12465.0,6.761872480186867
63863.22722371598,188726.0,162296.0,12447.0,6.77187525012414
63863.23722648592,188738.0,162295.0,12495.0,6.781878020068689
63863.24722925586,188723.0,162309.0,12487.0,6.791880790005962
63863.257232025804,188753.0,162303.0,12482.0,6.801883559950511
63863.26723479574,188729.0,162288.0,12477.0,6.811886329887784
63863.277237565686,188735.0,162295.0,12487.0,6.821889099832333
63863.28724033562,188720.0,162261.0,12504.0,6.831891869769606
63863.29724310557,188735.0,162278.0,12522.0,6.841894639714155
63863.307245875505,188758.0,162318.0,12505.0,6.8518974096514285
63863.31724864545,188780.0,162294.0,12548.0,6.8619001795959775
63863.32725141539,188746.0,162296.0,12520.0,6.871902949533251
63863.33725418533,188762.0,162300.0,12527.0,6.8819057194778
63863.347256955276,188791.0,162334.0,12544.0,6.891908489422349
63863.35725972521,188777.0,162310.0,12526.0,6.901911259359622
63863.36726249516,188792.0,162325.0,12551.0,6.911914029304171
63863.377265265095,188816.0,162299.0,12555.0,6.921916799241444
63863.38726803504,188801.0,162315.0,12548.0,6.931919569185993
63863.39727080498,188809.0,162356.0,12588.0,6.941922339123266
63863.40727357492,188816.0,162327.0,12577.0,6.951925109067815
63863.41727634486,188790.0,162320.0,12567.0,6.9619278790050885
63863.4272791148,188851.0,162343.0,12614.0,6.9719306489496375
63863.43728188474,188829.0,162334.0,12577.0,6.981933418886911
63863.447284654685,188833.0,162326.0,12593.0,6.99193618883146
63863.45728742462,188848.0,162366.0,12629.0,7.001938958768733
63863.46729019457,188813.0,162318.0,12598.0,7.011941728713282
63863.477292964504,188844.0,162356.0,12640.0,7.021944498650555
63863.48729573445,188852.0,162347.0,12620.0,7.031947268595104
63863.497298504386,188857.0,162334.0,12609.0,7.041950038532377
63863.50730127433,188886.0,162357.0,12610.0,7.051952808476926
63863.51730404427,188842.0,162339.0,12609.0,7.061955578414199
63863.52730681421,188873.0,162359.0,12637.0,7.0719583483587485
63863.53730958416,188910.0,162375.0,12671.0,7.0819611183032976
63863.547312354094,188869.0,162355.0,12653.0,7.091963888240571
63863.55731512404,188906.0,162364.0,12667.0,7.10196665818512
63863.567317893976,188890.0,162370.0,12667.0,7.111969428122393
63863.57732066392,188866.0,162379.0,12667.0,7.121972198066942
63863.58732343386,188879.0,162396.0,12695.0,7.131974968004215
63863.5973262038,188811.0,162335.0,12653.0,7.141977737948764
63863.60732897374,188851.0,162352.0,12657.0,7.151980507886037
63863.617331743684,188827.0,162336.0,12646.0,7.161983277830586
63863.62733451362,188812.0,162335.0,12666.0,7.171986047767859
63863.637337283566,188807.0,162335.0,12635.0,7.1819888177124085
63863.6473400535,188794.0,162326.0,12628.0,7.191991587649682
63863.65734282345,188782.0,162326.0,12619.0,7.201994357594231
63863.667345593385,188749.0,162283.0,12601.0,7.211997127531504
63863.67734836333,188746.0,162288.0,12607.0,7.221999897476053
63863.68735113327,188765.0,162312.0,12584.0,7.232002667413326
63863.69735390321,188733.0,162287.0,12596.0,7.242005437357875
63863.70735667315,188789.0,162325.0,12598.0,7.252008207295148
63863.71735944309,188764.0,162299.0,12559.0,7.262010977239697
63863.72736221303,188760.0,162332.0,12567.0,7.27201374717697
63863.737364982975,188727.0,162293.0,12560.0,7.282016517121519
63863.74736775292,188726.0,162272.0,12547.0,7.2920192870660685
63863.75737052286,188786.0,162317.0,12567.0,7.302022057003342
63863.7673732928,188754.0,162305.0,12542.0,7.312024826947891
63863.77737606274,188717.0,162275.0,12538.0,7.322027596885164
63863.78737883268,188748.0,162302.0,12538.0,7.332030366829713
63863.79738160262,188725.0,162309.0,12524.0,7.342033136766986
63863.807384372565,188733.0,162283.0,12520.0,7.352035906711535
63863.8173871425,188742.0,162299.0,12532.0,7.362038676648808
63863.82738991245,188715.0,162256.0,12500.0,7.372041446593357
63863.837392682384,188724.0,162290.0,12505.0,7.38204421653063
63863.84739545233,188740.0,162287.0,12498.0,7.392046986475179
63863.857398222266,188702.0,162287.0,12477.0,7.4020497564124526
63863.86740099221,188742.0,162291.0,12504.0,7.412052526357002
63863.87740376215,188734.0,162245.0,12479.0,7.422055296294275
63863.88740653209,188742.0,162290.0,12480.0,7.432058066238824
63863.89740930203,188723.0,162311.0,12478.0,7.442060836176097
63863.907412071974,188738.0,162266.0,12464.0,7.452063606120646
63863.91741484191,188736.0,162303.0,12466.0,7.462066376057919
63863.927417611856,188749.0,162290.0,12457.0,7.472069146002468
63863.9374203818,188735.0,162287.0,12452.0,7.482071915947017
63863.94742315174,188747.0,162255.0,12452.0,7.49207468588429
63863.95742592168,188712.0,162255.0,12453.0,7.5020774558288394
63863.96742869162,188737.0,162283.0,12435.0,7.512080225766113
63863.977431461564,188764.0,162308.0,12445.0,7.522082995710662
63863.9874342315,188729.0,162294.0,12437.0,7.532085765647935
63863.997437001446,188750.0,162289.0,12446.0,7.542088535592484
63864.00743977138,188749.0,162278.0,12459.0,7.552091305529757
63864.01744254133,188714.0,162248.0,12439.0,7.562094075474306
63864.027445311265,188764.0,162301.0,12442.0,7.572096845411579
63864.03744808121,188746.0,162244.0,12425.0,7.582099615356128
63864.04745085115,188747.0,162277.0,12416.0,7.592102385293401
63864.05745362109,188751.0,162258.0,12431.0,7.60210515523795
63864.06745639103,188776.0,162293.0,12436.0,7.6121079251752235
63864.07745916097,188783.0,162292.0,12433.0,7.622110695119773
63864.08746193091,188770.0,162285.0,12415.0,7.632113465057046
63864.097464700855,188781.0,162267.0,12415.0,7.642116235001595
63864.10746747079,188784.0,162282.0,12410.0,7.652119004938868
63864.11747024074,188814.0,162310.0,12427.0,7.662121774883417
63864.12747301068,188749.0,162251.0,12411.0,7.672124544827966
63864.13747578062,188778.0,162286.0,12419.0,7.682127314765239
63864.14747855056,188790.0,162282.0,12432.0,7.692130084709788
63864.1574813205,188776.0,162264.0,12404.0,7.702132854647061
63864.167484090445,188792.0,162274.0,12425.0,7.71213562459161
63864.17748686038,188809.0,162295.0,12432.0,7.7221383945288835
63864.18748963033,188779.0,162287.0,12407.0,7.732141164473433
63864.197492400264,188782.0,162267.0,12407.0,7.742143934410706
63864.20749517021,188805.0,162278.0,12419.0,7.752146704355255
63864.217497940146,188817.0,162290.0,12419.0,7.762149474292528
63864.22750071009,188834.0,162305.0,12431.0,7.772152244237077
63864.23750348003,188819.0,162267.0,12416.0,7.78215501417435
63864.24750624997,188834.0,162331.0,12470.0,7.792157784118899
63864.25750901991,188830.0,162334.0,12426.0,7.802160554056172
63864.267511789854,188807.0,162274.0,12431.0,7.812163324000721
63864.27751455979,188817.0,162291.0,12441.0,7.8221660939379944
63864.287517329736,188825.0,162275.0,12439.0,7.8321688638825435
63864.29752009967,188857.0,162309.0,12450.0,7.842171633819817
63864.30752286962,188902.0,162311.0,12461.0,7.852174403764366
63864.31752563956,188850.0,162286.0,12429.0,7.862177173708915
63864.3275284095,188915.0,162319.0,12455.0,7.872179943646188
63864.337531179444,188876.0,162320.0,12441.0,7.882182713590737
63864.34753394938,188845.0,162307.0,12426.0,7.89218548352801
63864.357536719326,188854.0,162332.0,12466.0,7.902188253472559
63864.36753948926,188900.0,162281.0,12483.0,7.912191023409832
63864.37754225921,188897.0,162326.0,12465.0,7.922193793354381
63864.387545029145,188923.0,162317.0,12472.0,7.9321965632916545
63864.39754779909,188857.0,162322.0,12462.0,7.9421993332362035
63864.40755056903,188892.0,162328.0,12465.0,7.952202103173477
63864.41755333897,188904.0,162323.0,12463.0,7.962204873118026
63864.42755610891,188938.0,162328.0,12481.0,7.972207643055299
63864.43755887885,188913.0,162308.0,12472.0,7.982210412999848
63864.44756164879,188932.0,162334.0,12497.0,7.992213182937121
63864.457564418735,188932.0,162337.0,12489.0,8.00221595288167
63864.46756718867,188926.0,162337.0,12485.0,8.012218722818943
63864.47756995862,188909.0,162325.0,12467.0,8.022221492763492
63864.487572728554,188956.0,162343.0,12476.0,8.032224262700765
63864.4975754985,188950.0,162334.0,12493.0,8.042227032645314
63864.50757826844,188944.0,162323.0,12490.0,8.052229802589864
63864.51758103838,188941.0,162327.0,12471.0,8.062232572527137
63864.527583808325,188964.0,162360.0,12509.0,8.072235342471686
63864.53758657826,188969.0,162346.0,12510.0,8.082238112408959
63864.54758934821,188933.0,162320.0,12489.0,8.092240882353508
63864.557592118144,188998.0,162368.0,12510.0,8.102243652290781
63864.56759488809,188934.0,162347.0,12472.0,8.11224642223533
63864.577597658026,188939.0,162340.0,12484.0,8.122249192172603
63864.58760042797,188964.0,162324.0,12486.0,8.132251962117152
63864.59760319791,188933.0,162350.0,12451.0,8.142254732054425
63864.60760596785,188903.0,162345.0,12462.0,8.152257501998974
63864.61760873779,188879.0,162331.0,12425.0,8.162260271936248
63864.627611507734,188831.0,162280.0,12394.0,8.172263041880797
63864.63761427767,188831.0,162329.0,12394.0,8.18226581181807
63864.647617047616,188811.0,162276.0,12334.0,8.192268581762619
63864.65761981755,188852.0,162303.0,12346.0,8.202271351699892
63864.6676225875,188829.0,162310.0,12308.0,8.212274121644441
63864.677625357435,188835.0,162274.0,12345.0,8.222276891581714
63864.68762812738,188838.0,162282.0,12313.0,8.232279661526263
63864.69763089732,188828.0,162278.0,12289.0,8.242282431463536
63864.70763366726,188798.0,162259.0,12255.0,8.252285201408085
63864.717636437206,188806.0,162237.0,12237.0,8.262287971352634
63864.72763920714,188774.0,162243.0,12220.0,8.272290741289908
63864.73764197709,188787.0,162249.0,12216.0,8.282293511234457
63864.747644747025,188771.0,162267.0,12207.0,8.29229628117173
63864.75764751697,188802.0,162265.0,12224.0,8.302299051116279
63864.76765028691,188776.0,162244.0,12164.0,8.312301821053552
63864.77765305685,188780.0,162245.0,12164.0,8.322304590998101
63864.78765582679,188721.0,162194.0,12182.0,8.332307360935374
63864.79765859673,188783.0,162253.0,12172.0,8.342310130879923
63864.80766136667,188760.0,162198.0,12145.0,8.352312900817196
63864.817664136615,188737.0,162229.0,12100.0,8.362315670761745
63864.82766690655,188777.0,162219.0,12116.0,8.372318440699019
63864.8376696765,188739.0,162219.0,12086.0,8.382321210643568
63864.847672446434,188726.0,162218.0,12066.0,8.39232398058084
63864.85767521638,188784.0,162216.0,12088.0,8.40232675052539
63864.867677986316,188763.0,162239.0,12081.0,8.412329520462663
63864.87768075626,188779.0,162186.0,12084.0,8.422332290407212
63864.8876835262,188760.0,162190.0,12051.0,8.432335060344485
63864.89768629614,188753.0,162196.0,12051.0,8.442337830289034
63864.90768906609,188766.0,162212.0,12044.0,8.452340600233583
63864.917691836024,188743.0,162204.0,12026.0,8.462343370170856
63864.92769460597,188731.0,162162.0,12004.0,8.472346140115405
63864.937697375906,188739.0,162202.0,12033.0,8.482348910052679
63864.94770014585,188736.0,162188.0,11999.0,8.492351679997228
63864.95770291579,188739.0,162200.0,11993.0,8.5023544499345
63864.96770568573,188745.0,162191.0,11969.0,8.51235721987905
63864.97770845567,188746.0,162175.0,12013.0,8.522359989816323
63864.987711225614,188753.0,162191.0,11969.0,8.532362759760872
63864.99771399555,188733.0,162165.0,11984.0,8.542365529698145
63865.007716765496,188744.0,162185.0,11968.0,8.552368299642694
63865.01771953543,188715.0,162157.0,11972.0,8.562371069579967
63865.02772230538,188744.0,162181.0,11958.0,8.572373839524516
63865.037725075315,188762.0,162182.0,11947.0,8.58237660946179
63865.04772784526,188769.0,162214.0,11939.0,8.592379379406339
63865.0577306152,188751.0,162161.0,11973.0,8.602382149343612
63865.06773338514,188750.0,162187.0,11947.0,8.61238491928816
63865.07773615508,188757.0,162167.0,11932.0,8.622387689225434
63865.08773892502,188765.0,162171.0,11933.0,8.632390459169983
63865.09774169496,188797.0,162190.0,11926.0,8.642393229107256
63865.107744464905,188776.0,162193.0,11925.0,8.652395999051805
63865.11774723485,188740.0,162134.0,11909.0,8.662398768996354
63865.12775000479,188749.0,162175.0,11917.0,8.672401538933627
63865.13775277473,188800.0,162203.0,11966.0,8.682404308878176
63865.14775554467,188780.0,162185.0,11934.0,8.69240707881545
63865.15775831461,188765.0,162150.0,11945.0,8.702409848759999
63865.16776108455,188754.0,162152.0,11922.0,8.712412618697272
63865.177763854495,188767.0,162181.0,11964.0,8.72241538864182
63865.18776662443,188760.0,162179.0,11942.0,8.732418158579094
63865.19776939438,188764.0,162154.0,11938.0,8.742420928523643
63865.207772164315,188813.0,162194.0,11916.0,8.752423698460916
63865.21777493426,188799.0,162186.0,11921.0,8.762426468405465
63865.227777704196,188795.0,162181.0,11924.0,8.772429238342738
63865.23778047414,188804.0,162174.0,11918.0,8.782432008287287
63865.24778324408,188807.0,162229.0,11932.0,8.79243477822456
63865.25778601402,188817.0,162179.0,11943.0,8.80243754816911
63865.26778878396,188805.0,162190.0,11934.0,8.812440318106383
63865.277791553905,188784.0,162168.0,11915.0,8.822443088050932
63865.28779432384,188829.0,162221.0,11952.0,8.832445857988205
63865.297797093786,188823.0,162189.0,11914.0,8.842448627932754
63865.30779986373,188835.0,162199.0,11939.0,8.852451397877303
63865.31780263367,188812.0,162187.0,11922.0,8.862454167814576
63865.32780540361,188824.0,162191.0,11918.0,8.872456937759125
63865.33780817355,188851.0,162218.0,11967.0,8.882459707696398
63865.347810943495,188834.0,162199.0,11942.0,8.892462477640947
63865.35781371343,188808.0,162200.0,11938.0,8.90246524757822
63865.36781648338,188855.0,162232.0,11971.0,8.91246801752277
63865.377819253314,188813.0,162184.0,11932.0,8.922470787460043
63865.38782202326,188857.0,162213.0,11943.0,8.932473557404592
63865.397824793195,188885.0,162236.0,11942.0,8.942476327341865
63865.40782756314,188840.0,162190.0,11939.0,8.952479097286414
63865.41783033308,188873.0,162236.0,11984.0,8.962481867223687
63865.42783310302,188857.0,162201.0,11942.0,8.972484637168236
63865.43783587296,188866.0,162211.0,11939.0,8.98248740710551
63865.447838642904,188834.0,162203.0,11953.0,8.992490177050058
63865.45784141284,188790.0,162178.0,11912.0,9.002492946987331
63865.467844182785,188748.0,162160.0,11873.0,9.01249571693188
63865.47784695272,188725.0,162179.0,11836.0,9.022498486869154
63865.48784972267,188696.0,162107.0,11796.0,9.032501256813703
63865.49785249261,188656.0,162110.0,11761.0,9.042504026758252
63865.50785526255,188682.0,162121.0,11731.0,9.052506796695525
63865.517858032494,188640.0,162090.0,11730.0,9.062509566640074
63865.52786080243,188615.0,162077.0,11647.0,9.072512336577347
63865.537863572375,188608.0,162055.0,11658.0,9.082515106521896
63865.54786634231,188612.0,162097.0,11621.0,9.09251787645917
63865.55786911226,188588.0,162052.0,11636.0,9.102520646403718
63865.567871882195,188583.0,162064.0,11597.0,9.112523416340991
63865.57787465214,188569.0,162073.0,11567.0,9.12252618628554
63865.58787742208,188578.0,162038.0,11562.0,9.132528956222814
63865.59788019202,188564.0,162034.0,11529.0,9.142531726167363
63865.60788296196,188549.0,162033.0,11487.0,9.152534496104636
63865.6178857319,188549.0,162056.0,11526.0,9.162537266049185
63865.62788850184,188522.0,162022.0,11473.0,9.172540035986458
63865.637891271785,188539.0,162016.0,11475.0,9.182542805931007
63865.64789404172,188531.0,161997.0,11447.0,9.19254557586828
63865.65789681167,188523.0,161992.0,11441.0,9.20254834581283
63865.667899581604,188479.0,161992.0,11414.0,9.212551115750102
63865.67790235155,188518.0,162000.0,11412.0,9.222553885694651
63865.68790512149,188467.0,162008.0,11393.0,9.2325566556392
63865.69790789143,188494.0,162014.0,11393.0,9.242559425576474
63865.707910661375,188492.0,161994.0,11387.0,9.252562195521023
63865.71791343131,188526.0,162022.0,11407.0,9.262564965458296
63865.72791620126,188469.0,162007.0,11418.0,9.272567735402845
63865.737918971194,188488.0,161992.0,11371.0,9.282570505340118
63865.74792174114,188481.0,161987.0,11349.0,9.292573275284667
63865.757924511076,188491.0,161993.0,11355.0,9.30257604522194
63865.76792728102,188448.0,161950.0,11347.0,9.31257881516649
63865.77793005096,188465.0,161986.0,11353.0,9.322581585103762
63865.7879328209,188435.0,161981.0,11320.0,9.332584355048311
63865.79793559084,188475.0,161975.0,11320.0,9.342587124985585
63865.807938360784,188516.0,161971.0,11317.0,9.352589894930134
63865.81794113072,188430.0,161983.0,11324.0,9.362592664867407
63865.827943900666,188442.0,161972.0,11294.0,9.372595434811956
63865.8379466706,188457.0,161993.0,11305.0,9.382598204749229
63865.84794944055,188414.0,161957.0,11300.0,9.392600974693778
63865.857952210485,188465.0,161975.0,11315.0,9.402603744631051
63865.86795498043,188444.0,161953.0,11280.0,9.4126065145756
63865.877957750374,188458.0,161986.0,11306.0,9.42260928452015
63865.88796052031,188479.0,162006.0,11315.0,9.432612054457422
63865.897963290256,188456.0,161970.0,11289.0,9.442614824401971
63865.90796606019,188507.0,161997.0,11316.0,9.452617594339245
63865.91796883014,188487.0,161988.0,11312.0,9.462620364283794
63865.927971600075,188452.0,161981.0,11298.0,9.472623134221067
63865.93797437002,188509.0,162006.0,11331.0,9.482625904165616
63865.94797713996,188473.0,161991.0,11304.0,9.492628674102889
63865.9579799099,188488.0,161993.0,11327.0,9.502631444047438
63865.96798267984,188481.0,162027.0,11329.0,9.512634213984711
63865.97798544978,188452.0,161989.0,11301.0,9.52263698392926
63865.98798821972,188494.0,162030.0,11315.0,9.532639753866533
63865.997990989665,188493.0,161991.0,11347.0,9.542642523811082
63866.0079937596,188463.0,161984.0,11361.0,9.552645293748355
63866.01799652955,188462.0,161973.0,11321.0,9.562648063692905
63866.027999299484,188474.0,161987.0,11344.0,9.572650833630178
63866.03800206943,188498.0,162003.0,11360.0,9.582653603574727
63866.048004839366,188509.0,162001.0,11359.0,9.592656373512
63866.05800760931,188504.0,162006.0,11373.0,9.602659143456549
63866.06801037925,188490.0,162013.0,11365.0,9.612661913393822
63866.07801314919,188517.0,162034.0,11383.0,9.622664683338371
63866.08801591914,188528.0,162025.0,11373.0,9.63266745328292
63866.098018689074,188540.0,162037.0,11367.0,9.642670223220193
63866.10802145902,188526.0,162046.0,11405.0,9.652672993164742
63866.118024228956,188537.0,162023.0,11393.0,9.662675763102015
63866.1280269989,188539.0,162025.0,11400.0,9.672678533046565
63866.13802976884,188552.0,162002.0,11404.0,9.682681302983838
63866.14803253878,188562.0,162025.0,11410.0,9.692684072928387
63866.15803530872,188562.0,162051.0,11421.0,9.70268684286566
63866.168038078664,188546.0,162056.0,11437.0,9.712689612810209
63866.1780408486,188552.0,162056.0,11406.0,9.722692382747482
63866.188043618546,188626.0,162068.0,11454.0,9.732695152692031
63866.19804638848,188583.0,162056.0,11430.0,9.742697922629304
63866.20804915843,188573.0,162067.0,11427.0,9.752700692573853
63866.218051928365,188603.0,162078.0,11469.0,9.762703462511126
63866.22805469831,188583.0,162074.0,11443.0,9.772706232455675
63866.23805746825,188609.0,162086.0,11456.0,9.782709002392949
63866.24806023819,188587.0,162071.0,11496.0,9.792711772337498
63866.25806300813,188590.0,162059.0,11471.0,9.80271454227477
63866.26806577807,188621.0,162095.0,11491.0,9.81271731221932
63866.27806854802,188630.0,162089.0,11482.0,9.822720082163869
63866.288071317955,188594.0,162068.0,11513.0,9.832722852101142
63866.2980740879,188655.0,162115.0,11525.0,9.842725622045691
63866.30807685784,188612.0,162075.0,11527.0,9.852728391982964
63866.31807962778,188644.0,162100.0,11533.0,9.862731161927513
63866.32808239772,188653.0,162118.0,11531.0,9.872733931864786
63866.33808516766,188632.0,162101.0,11526.0,9.882736701809336
63866.3480879376,188666.0,162132.0,11562.0,9.892739471746609
63866.358090707545,188642.0,162113.0,11527.0,9.902742241691158
63866.36809347748,188659.0,162101.0,11553.0,9.91274501162843
63866.37809624743,188714.0,162130.0,11573.0,9.92274778157298
63866.388099017364,188663.0,162080.0,11563.0,9.932750551510253
63866.39810178731,188664.0,162110.0,11611.0,9.942753321454802
63866.408104557246,188680.0,162132.0,11583.0,9.952756091392075
63866.41810732719,188682.0,162112.0,11575.0,9.962758861336624
63866.42811009713,188680.0,162113.0,11579.0,9.972761631273897
63866.43811286707,188618.0,162091.0,11567.0,9.982764401218446
63866.44811563701,188635.0,162127.0,11550.0,9.99276717115572
63866.458118406954,188580.0,162131.0,11520.0,10.002769941100269
63866.46812117689,188554.0,162088.0,11475.0,10.012772711037542
63866.478123946836,188553.0,162085.0,11431.0,10.02277548098209
63866.48812671678,188536.0,162085.0,11431.0,10.03277825092664
63866.49812948672,188471.0,162042.0,11386.0,10.042781020863913
63866.50813225666,188469.0,162049.0,11362.0,10.052783790808462
63866.5181350266,188452.0,162018.0,11349.0,10.062786560745735
63866.528137796544,188430.0,162001.0,11301.0,10.072789330690284
63866.53814056648,188404.0,161970.0,11292.0,10.082792100627557
63866.548143336426,188389.0,161991.0,11262.0,10.092794870572106
63866.55814610636,188367.0,161993.0,11233.0,10.10279764050938
63866.56814887631,188393.0,161990.0,11225.0,10.112800410453929
63866.578151646245,188403.0,161972.0,11231.0,10.122803180391202
63866.58815441619,188364.0,161961.0,11195.0,10.13280595033575
63866.59815718613,188386.0,161977.0,11212.0,10.142808720273024
63866.60815995607,188355.0,161955.0,11167.0,10.152811490217573
63866.61816272601,188336.0,161935.0,11146.0,10.162814260154846
63866.62816549595,188364.0,161979.0,11158.0,10.172817030099395
63866.63816826589,188309.0,161944.0,11129.0,10.182819800036668
63866.648171035835,188306.0,161956.0,11117.0,10.192822569981217
63866.65817380577,188307.0,161947.0,11120.0,10.20282533991849
63866.66817657572,188274.0,161941.0,11096.0,10.21282810986304
63866.67817934566,188317.0,161935.0,11118.0,10.222830879807589
63866.6881821156,188298.0,161943.0,11098.0,10.232833649744862
63866.69818488554,188285.0,161908.0,11102.0,10.24283641968941
63866.70818765548,188320.0,161955.0,11098.0,10.252839189626684
63866.718190425425,188275.0,161910.0,11072.0,10.262841959571233
63866.72819319536,188303.0,161950.0,11084.0,10.272844729508506
63866.73819596531,188287.0,161961.0,11109.0,10.282847499453055
63866.748198735244,188264.0,161927.0,11062.0,10.292850269390328
63866.75820150519,188263.0,161961.0,11084.0,10.302853039334877
63866.768204275126,188310.0,161937.0,11093.0,10.31285580927215
63866.77820704507,188255.0,161909.0,11090.0,10.3228585792167
63866.78820981501,188297.0,161964.0,11110.0,10.332861349153973
63866.79821258495,188257.0,161913.0,11066.0,10.342864119098522
63866.80821535489,188290.0,161941.0,11074.0,10.352866889035795
63866.818218124834,188274.0,161961.0,11113.0,10.362869658980344
63866.82822089477,188286.0,161947.0,11056.0,10.372872428917617
63866.838223664716,188310.0,161970.0,11101.0,10.382875198862166
63866.84822643465,188302.0,161963.0,11091.0,10.39287796879944
63866.8582292046,188284.0,161956.0,11086.0,10.402880738743988
63866.86823197454,188326.0,161990.0,11085.0,10.412883508688537
63866.87823474448,188287.0,161982.0,11128.0,10.42288627862581
63866.888237514424,188305.0,161979.0,11101.0,10.43288904857036
63866.89824028436,188303.0,161968.0,11106.0,10.442891818507633
63866.908243054306,188337.0,161961.0,11098.0,10.452894588452182
63866.91824582424,188323.0,161984.0,11139.0,10.462897358389455
63866.92824859419,188331.0,161972.0,11155.0,10.472900128334004
63866.938251364125,188355.0,162025.0,11176.0,10.482902898271277
63866.94825413407,188327.0,162031.0,11173.0,10.492905668215826
63866.95825690401,188332.0,162001.0,11168.0,10.5029084381531
63866.96825967395,188376.0,162022.0,11197.0,10.512911208097648
63866.97826244389,188369.0,162015.0,11185.0,10.522913978034921
63866.98826521383,188396.0,162047.0,11229.0,10.53291674797947
63866.99826798377,188374.0,162020.0,11212.0,10.542919517916744
63867.008270753715,188403.0,162049.0,11240.0,10.552922287861293
63867.01827352365,188437.0,162041.0,11250.0,10.562925057798566
63867.0282762936,188403.0,162062.0,11261.0,10.572927827743115
63867.038279063534,188406.0,162094.0,11304.0,10.582930597680388
63867.04828183348,188418.0,162053.0,11262.0,10.592933367624937
63867.05828460342,188410.0,162080.0,11339.0,10.602936137569486
63867.06828737336,188436.0,162097.0,11355.0,10.61293890750676
63867.078290143305,188433.0,162077.0,11329.0,10.622941677451308
63867.08829291324,188469.0,162120.0,11354.0,10.632944447388581
63867.09829568319,188465.0,162117.0,11383.0,10.64294721733313
63867.108298453124,188461.0,162105.0,11373.0,10.652949987270404
63867.11830122307,188515.0,162147.0,11427.0,10.662952757214953
63867.128303993006,188467.0,162123.0,11416.0,10.672955527152226
63867.13830676295,188509.0,162130.0,11444.0,10.682958297096775
63867.14830953289,188538.0,162179.0,11472.0,10.692961067034048
63867.15831230283,188506.0,162168.0,11459.0,10.702963836978597
63867.16831507277,188545.0,162170.0,11483.0,10.71296660691587
63867.178317842714,188531.0,162204.0,11534.0,10.72296937686042
63867.18832061265,188530.0,162137.0,11511.0,10.732972146797692
63867.198323382596,188532.0,162158.0,11539.0,10.742974916742241
63867.20832615253,188543.0,162180.0,11564.0,10.752977686679515
63867.21832892248,188584.0,162208.0,11588.0,10.762980456624064
63867.228331692415,188574.0,162232.0,11602.0,10.772983226561337
63867.23833446236,188626.0,162205.0,11628.0,10.782985996505886
63867.248337232304,188619.0,162251.0,11618.0,10.792988766450435
63867.25834000224,188606.0,162234.0,11654.0,10.802991536387708
63867.268342772186,188613.0,162215.0,11673.0,10.812994306332257
63867.27834554212,188613.0,162232.0,11666.0,10.82299707626953
63867.28834831207,188638.0,162242.0,11726.0,10.83299984621408
63867.298351082005,188636.0,162256.0,11720.0,10.843002616151352
63867.30835385195,188623.0,162264.0,11732.0,10.853005386095901
63867.31835662189,188674.0,162279.0,11784.0,10.863008156033175
63867.32835939183,188641.0,162271.0,11757.0,10.873010925977724
63867.33836216177,188660.0,162270.0,11802.0,10.883013695914997
63867.34836493171,188687.0,162262.0,11799.0,10.893016465859546
63867.35836770165,188674.0,162285.0,11819.0,10.903019235796819
63867.368370471595,188696.0,162320.0,11875.0,10.913022005741368
63867.37837324153,188700.0,162322.0,11864.0,10.923024775678641
63867.38837601148,188699.0,162285.0,11864.0,10.93302754562319
63867.398378781414,188711.0,162336.0,11918.0,10.943030315560463
63867.40838155136,188690.0,162320.0,11902.0,10.953033085505012
63867.418384321296,188724.0,162334.0,11937.0,10.963035855442286
63867.42838709124,188779.0,162374.0,11977.0,10.973038625386835
63867.43838986118,188771.0,162333.0,11964.0,10.983041395324108
63867.44839263112,188805.0,162395.0,12017.0,10.993044165268657
63867.45839540107,188766.0,162360.0,12021.0,11.003046935213206
63867.468398171004,188781.0,162357.0,12027.0,11.013049705150479
63867.47840094095,188828.0,162388.0,12039.0,11.023052475095028
63867.488403710886,188776.0,162375.0,12044.0,11.033055245032301
63867.49840648083,188819.0,162382.0,12083.0,11.04305801497685
63867.50840925077,188808.0,162392.0,12085.0,11.053060784914123
63867.51841202071,188786.0,162390.0,12102.0,11.063063554858672
63867.52841479065,188820.0,162403.0,12104.0,11.073066324795946
63867.538417560594,188796.0,162388.0,12122.0,11.083069094740495
63867.54842033053,188766.0,162359.0,12155.0,11.093071864677768
63867.558423100476,188770.0,162397.0,12148.0,11.103074634622317
63867.56842587041,188714.0,162361.0,12094.0,11.11307740455959
63867.57842864036,188672.0,162320.0,12080.0,11.123080174504139
63867.588431410295,188634.0,162351.0,12084.0,11.133082944441412
63867.59843418024,188629.0,162327.0,12085.0,11.143085714385961
63867.60843695018,188639.0,162346.0,12071.0,11.153088484323234
63867.61843972012,188633.0,162324.0,12031.0,11.163091254267783
63867.62844249006,188584.0,162308.0,11982.0,11.173094024205056
63867.63844526,188587.0,162309.0,11987.0,11.183096794149606
63867.64844802995,188581.0,162292.0,11979.0,11.193099564094155
63867.658450799885,188572.0,162316.0,11996.0,11.203102334031428
63867.66845356983,188556.0,162293.0,11991.0,11.213105103975977
63867.67845633977,188549.0,162280.0,11981.0,11.22310787391325
63867.68845910971,188544.0,162276.0,11969.0,11.233110643857799
63867.69846187965,188574.0,162307.0,11995.0,11.243113413795072
63867.70846464959,188550.0,162308.0,11976.0,11.253116183739621
63867.71846741953,188509.0,162301.0,11964.0,11.263118953676894
63867.728470189475,188567.0,162268.0,11995.0,11.273121723621443
63867.73847295941,188548.0,162285.0,11982.0,11.283124493558716
63867.74847572936,188496.0,162279.0,11993.0,11.293127263503266
63867.758478499294,188524.0,162284.0,11996.0,11.303130033440539
63867.76848126924,188534.0,162327.0,12018.0,11.313132803385088
63867.778484039176,188534.0,162299.0,11999.0,11.32313557332236
63867.78848680912,188568.0,162331.0,12017.0,11.33313834326691
63867.79848957906,188502.0,162280.0,11972.0,11.343141113204183
63867.808492349,188544.0,162312.0,11993.0,11.353143883148732
63867.81849511894,188523.0,162291.0,12001.0,11.363146653086005
63867.828497888884,188508.0,162312.0,12004.0,11.373149423030554
63867.83850065883,188531.0,162303.0,12062.0,11.383152192975103
63867.848503428766,188524.0,162296.0,12003.0,11.393154962912377
63867.85850619871,188506.0,162288.0,12028.0,11.403157732856926
63867.86850896865,188495.0,162271.0,12023.0,11.413160502794199
63867.87851173859,188514.0,162288.0,12032.0,11.423163272738748
63867.88851450853,188517.0,162302.0,12041.0,11.43316604267602
63867.898517278474,188499.0,162296.0,12028.0,11.44316881262057
63867.90852004841,188508.0,162276.0,12034.0,11.453171582557843
63867.918522818356,188525.0,162318.0,12068.0,11.463174352502392
63867.92852558829,188494.0,162273.0,12044.0,11.473177122439665
63867.93852835824,188518.0,162279.0,12030.0,11.483179892384214
63867.948531128175,188518.0,162301.0,12053.0,11.493182662321487
63867.95853389812,188504.0,162283.0,12039.0,11.503185432266037
63867.96853666806,188499.0,162278.0,12063.0,11.51318820220331
63867.978539438,188474.0,162296.0,12039.0,11.523190972147859
63867.98854220794,188502.0,162285.0,12074.0,11.533193742085132
63867.99854497788,188490.0,162284.0,12073.0,11.543196512029681
63868.00854774782,188532.0,162282.0,12095.0,11.553199281966954
63868.018550517765,188533.0,162292.0,12058.0,11.563202051911503
63868.0285532877,188567.0,162310.0,12100.0,11.573204821848776
63868.03855605765,188533.0,162277.0,12122.0,11.583207591793325
63868.04855882759,188532.0,162284.0,12106.0,11.593210361737874
63868.05856159753,188529.0,162275.0,12134.0,11.603213131675147
63868.06856436747,188539.0,162300.0,12138.0,11.613215901619697
63868.07856713741,188565.0,162294.0,12145.0,11.62321867155697
63868.088569907355,188536.0,162336.0,12176.0,11.633221441501519
63868.09857267729,188572.0,162320.0,12170.0,11.643224211438792
63868.10857544724,188566.0,162319.0,12201.0,11.653226981383341
63868.118578217174,188579.0,162307.0,12201.0,11.663229751320614
63868.12858098712,188580.0,162311.0,12177.0,11.673232521265163
63868.138583757056,188583.0,162312.0,12201.0,11.683235291202436
63868.148586527,188593.0,162330.0,12220.0,11.693238061146985
63868.15858929694,188631.0,162333.0,12262.0,11.703240831084258
63868.16859206688,188638.0,162355.0,12267.0,11.713243601028807
63868.17859483682,188607.0,162311.0,12256.0,11.72324637096608
63868.188597606764,188617.0,162346.0,12270.0,11.73324914091063
63868.1986003767,188616.0,162356.0,12262.0,11.743251910847903
63868.208603146646,188649.0,162370.0,12278.0,11.753254680792452
63868.21860591658,188643.0,162375.0,12328.0,11.763257450729725
63868.22860868653,188626.0,162348.0,12307.0,11.773260220674274
63868.23861145647,188650.0,162364.0,12324.0,11.783262990618823
63868.24861422641,188651.0,162351.0,12337.0,11.793265760556096
63868.258616996354,188630.0,162330.0,12320.0,11.803268530500645
63868.26861976629,188646.0,162358.0,12345.0,11.813271300437918
63868.278622536236,188657.0,162337.0,12346.0,11.823274070382467
63868.28862530617,188643.0,162359.0,12357.0,11.83327684031974
63868.29862807612,188630.0,162361.0,12355.0,11.84327961026429
63868.308630846055,188667.0,162361.0,12380.0,11.853282380201563
63868.318633616,188664.0,162372.0,12412.0,11.863285150146112
63868.32863638594,188655.0,162352.0,12370.0,11.873287920083385
63868.33863915588,188671.0,162384.0,12420.0,11.883290690027934
63868.34864192582,188700.0,162375.0,12421.0,11.893293459965207
63868.35864469576,188699.0,162407.0,12454.0,11.903296229909756
63868.3686474657,188708.0,162405.0,12412.0,11.91329899984703
63868.378650235645,188698.0,162414.0,12459.0,11.923301769791578
63868.38865300558,188709.0,162369.0,12448.0,11.933304539728852
63868.39865577553,188721.0,162374.0,12482.0,11.9433073096734
63868.408658545464,188700.0,162343.0,12472.0,11.953310079610674
63868.41866131541,188718.0,162367.0,12479.0,11.963312849555223
63868.42866408535,188725.0,162379.0,12462.0,11.973315619499772
63868.43866685529,188734.0,162375.0,12490.0,11.983318389437045
63868.448669625235,188737.0,162398.0,12516.0,11.993321159381594
63868.45867239517,188762.0,162374.0,12491.0,12.003323929318867
63868.46867516512,188737.0,162382.0,12500.0,12.013326699263416
63868.478677935054,188711.0,162354.0,12487.0,12.02332946920069
63868.488680705,188726.0,162398.0,12530.0,12.033332239145238
63868.498683474936,188756.0,162377.0,12496.0,12.043335009082512
63868.50868624488,188737.0,162355.0,12505.0,12.05333777902706
63868.51868901482,188731.0,162341.0,12516.0,12.063340548964334
63868.52869178476,188753.0,162339.0,12551.0,12.073343318908883
63868.5386945547,188762.0,162361.0,12544.0,12.083346088846156
63868.548697324644,188781.0,162376.0,12536.0,12.093348858790705
63868.55870009458,188766.0,162393.0,12530.0,12.103351628727978
63868.568702864526,188743.0,162332.0,12521.0,12.113354398672527
63868.57870563446,188748.0,162331.0,12530.0,12.1233571686098
63868.58870840441,188779.0,162358.0,12520.0,12.13335993855435
63868.598711174345,188752.0,162366.0,12538.0,12.143362708491622
63868.60871394429,188726.0,162326.0,12483.0,12.153365478436172
63868.618716714234,188720.0,162327.0,12519.0,12.16336824838072
63868.62871948417,188702.0,162310.0,12477.0,12.173371018317994
63868.638722254116,188631.0,162291.0,12464.0,12.183373788262543
63868.64872502405,188615.0,162273.0,12441.0,12.193376558199816
63868.658727794,188641.0,162267.0,12434.0,12.203379328144365
63868.668730563935,188590.0,162266.0,12368.0,12.213382098081638
63868.67873333388,188595.0,162251.0,12374.0,12.223384868026187
63868.68873610382,188609.0,162287.0,12357.0,12.23338763796346
63868.69873887376,188616.0,162228.0,12346.0,12.24339040790801
63868.7087416437,188551.0,162235.0,12285.0,12.253393177845282
63868.71874441364,188589.0,162230.0,12284.0,12.263395947789832
63868.72874718358,188568.0,162199.0,12281.0,12.273398717727105
63868.738749953525,188595.0,162239.0,12271.0,12.283401487671654
63868.74875272346,188580.0,162241.0,12248.0,12.293404257608927
63868.75875549341,188577.0,162209.0,12231.0,12.303407027553476
63868.768758263344,188574.0,162230.0,12256.0,12.313409797490749
63868.77876103329,188510.0,162167.0,12200.0,12.323412567435298
63868.788763803226,188507.0,162158.0,12204.0,12.333415337372571
63868.79876657317,188544.0,162190.0,12204.0,12.34341810731712
63868.80876934311,188544.0,162190.0,12181.0,12.353420877254393
63868.81877211305,188568.0,162211.0,12198.0,12.363423647198942
63868.828774883,188552.0,162174.0,12156.0,12.373426417143492
63868.838777652934,188545.0,162159.0,12174.0,12.383429187080765
63868.84878042288,188535.0,162153.0,12141.0,12.393431957025314
63868.858783192816,188514.0,162141.0,12145.0,12.403434726962587
63868.86878596276,188545.0,162121.0,12129.0,12.413437496907136
63868.8787887327,188538.0,162149.0,12127.0,12.423440266844409
63868.88879150264,188542.0,162131.0,12123.0,12.433443036788958
63868.89879427258,188557.0,162118.0,12130.0,12.443445806726231
63868.908797042524,188526.0,162131.0,12131.0,12.45344857667078
63868.91879981246,188525.0,162129.0,12111.0,12.463451346608053
63868.928802582406,188518.0,162136.0,12113.0,12.473454116552602
63868.93880535234,188501.0,162141.0,12091.0,12.483456886489876
63868.94880812229,188499.0,162118.0,12079.0,12.493459656434425
63868.958810892225,188530.0,162130.0,12079.0,12.503462426371698
63868.96881366217,188506.0,162130.0,12073.0,12.513465196316247
63868.97881643211,188531.0,162138.0,12069.0,12.52346796625352
63868.98881920205,188532.0,162110.0,12052.0,12.533470736198069
63868.99882197199,188525.0,162110.0,12035.0,12.543473506135342
63869.00882474193,188532.0,162090.0,12041.0,12.553476276079891
63869.01882751188,188521.0,162069.0,12036.0,12.56347904602444
63869.028830281815,188507.0,162071.0,12043.0,12.573481815961713
63869.03883305176,188510.0,162105.0,12023.0,12.583484585906263
63869.0488358217,188483.0,162096.0,12014.0,12.593487355843536
63869.05883859164,188521.0,162105.0,12029.0,12.603490125788085
63869.06884136158,188564.0,162125.0,12020.0,12.613492895725358
63869.07884413152,188547.0,162100.0,12031.0,12.623495665669907
63869.08884690146,188524.0,162112.0,12005.0,12.63349843560718
63869.098849671405,188542.0,162093.0,11999.0,12.643501205551729
63869.10885244134,188545.0,162063.0,12038.0,12.653503975489002
63869.11885521129,188548.0,162096.0,12016.0,12.663506745433551
63869.128857981224,188521.0,162068.0,12004.0,12.673509515370824
63869.13886075117,188545.0,162118.0,12027.0,12.683512285315373
63869.148863521106,188522.0,162083.0,12016.0,12.693515055252647
63869.15886629105,188558.0,162079.0,12020.0,12.703517825197196
63869.16886906099,188512.0,162047.0,11986.0,12.713520595134469
63869.17887183093,188545.0,162063.0,12012.0,12.723523365079018
63869.18887460087,188564.0,162095.0,12045.0,12.733526135016291
63869.198877370814,188563.0,162083.0,12022.0,12.74352890496084
63869.20888014076,188545.0,162067.0,12017.0,12.753531674905389
63869.218882910696,188547.0,162086.0,12030.0,12.763534444842662
63869.22888568064,188549.0,162063.0,12024.0,12.773537214787211
63869.23888845058,188596.0,162083.0,12021.0,12.783539984724484
63869.24889122052,188607.0,162079.0,12015.0,12.793542754669033
63869.25889399046,188579.0,162065.0,12006.0,12.803545524606307
63869.268896760404,188554.0,162048.0,12010.0,12.813548294550856
63869.27889953034,188602.0,162072.0,12029.0,12.823551064488129
63869.288902300286,188577.0,162042.0,12027.0,12.833553834432678
63869.29890507022,188586.0,162046.0,12032.0,12.843556604369951
63869.30890784017,188551.0,162048.0,12020.0,12.8535593743145
63869.318910610105,188604.0,162065.0,12042.0,12.863562144251773
63869.32891338005,188600.0,162086.0,12031.0,12.873564914196322
63869.33891614999,188590.0,162075.0,12027.0,12.883567684133595
63869.34891891993,188638.0,162087.0,12043.0,12.893570454078144
63869.35892168987,188626.0,162083.0,12029.0,12.903573224015418
63869.36892445981,188605.0,162041.0,12067.0,12.913575993959967
63869.37892722975,188644.0,162085.0,12074.0,12.92357876389724
63869.388929999695,188606.0,162045.0,12050.0,12.933581533841789
63869.39893276963,188645.0,162080.0,12062.0,12.943584303779062
63869.40893553958,188630.0,162054.0,12055.0,12.953587073723611
63869.41893830952,188624.0,162065.0,12082.0,12.96358984366816
63869.42894107946,188600.0,162070.0,12059.0,12.973592613605433
63869.4389438494,188635.0,162092.0,12080.0,12.983595383549982
63869.44894661934,188647.0,162035.0,12075.0,12.993598153487255
63869.458949389285,188643.0,162061.0,12074.0,13.003600923431804
63869.46895215922,188653.0,162060.0,12071.0,13.013603693369078
63869.47895492917,188657.0,162060.0,12085.0,13.023606463313627
63869.488957699105,188644.0,162080.0,12088.0,13.0336092332509
63869.49896046905,188669.0,162054.0,12088.0,13.043612003195449
63869.508963238986,188612.0,162041.0,12059.0,13.053614773132722
63869.51896600893,188580.0,162060.0,12083.0,13.063617543077271
63869.52896877887,188591.0,162036.0,12062.0,13.073620313014544
63869.53897154881,188546.0,162039.0,12034.0,13.083623082959093
63869.54897431875,188559.0,162006.0,12033.0,13.093625852896366
63869.558977088695,188526.0,162009.0,11990.0,13.103628622840915
63869.56897985863,188510.0,161979.0,11993.0,13.113631392778188
63869.578982628576,188471.0,161995.0,11982.0,13.123634162722738
63869.58898539851,188481.0,161998.0,11931.0,13.13363693266001
63869.59898816846,188474.0,161957.0,11919.0,13.14363970260456
63869.6089909384,188452.0,161976.0,11879.0,13.153642472549109
63869.61899370834,188433.0,161928.0,11852.0,13.163645242486382
63869.628996478285,188451.0,161985.0,11863.0,13.173648012430931
63869.63899924822,188391.0,161949.0,11822.0,13.183650782368204
63869.649002018166,188415.0,161947.0,11833.0,13.193653552312753
63869.6590047881,188447.0,161930.0,11846.0,13.203656322250026
63869.66900755805,188411.0,161928.0,11792.0,13.213659092194575
63869.679010327985,188412.0,161946.0,11822.0,13.223661862131848
63869.68901309793,188396.0,161930.0,11782.0,13.233664632076398
63869.69901586787,188361.0,161936.0,11750.0,13.24366740201367
63869.70901863781,188364.0,161886.0,11790.0,13.25367017195822
63869.71902140775,188332.0,161900.0,11749.0,13.263672941895493
63869.729024177694,188362.0,161905.0,11752.0,13.273675711840042
63869.73902694763,188381.0,161924.0,11735.0,13.283678481777315
63869.749029717575,188361.0,161888.0,11732.0,13.293681251721864
63869.75903248751,188377.0,161918.0,11752.0,13.303684021659137
63869.76903525746,188376.0,161896.0,11718.0,13.313686791603686
63869.779038027395,188372.0,161878.0,11712.0,13.32368956154096
63869.78904079734,188352.0,161880.0,11701.0,13.333692331485508
63869.799043567284,188336.0,161869.0,11702.0,13.343695101430058
63869.80904633722,188365.0,161903.0,11710.0,13.35369787136733
63869.819049107165,188348.0,161931.0,11708.0,13.36370064131188
63869.8290518771,188328.0,161901.0,11667.0,13.373703411249153
63869.83905464705,188344.0,161899.0,11700.0,13.383706181193702
63869.849057416985,188335.0,161876.0,11700.0,13.393708951130975
63869.85906018693,188320.0,161865.0,11664.0,13.403711721075524
63869.86906295687,188329.0,161882.0,11676.0,13.413714491012797
63869.87906572681,188325.0,161837.0,11671.0,13.423717260957346
63869.88906849675,188336.0,161854.0,11665.0,13.43372003089462
63869.89907126669,188327.0,161879.0,11700.0,13.443722800839168
63869.90907403663,188311.0,161844.0,11671.0,13.453725570776442
63869.919076806575,188304.0,161879.0,11658.0,13.46372834072099
63869.92907957651,188329.0,161872.0,11655.0,13.473731110658264
63869.93908234646,188354.0,161866.0,11686.0,13.483733880602813
63869.949085116394,188334.0,161866.0,11642.0,13.493736650540086
63869.95908788634,188338.0,161867.0,11672.0,13.503739420484635
63869.969090656276,188294.0,161831.0,11660.0,13.513742190421908
63869.97909342622,188336.0,161845.0,11679.0,13.523744960366457
63869.989096196165,188348.0,161887.0,11694.0,13.533747730311006
63869.9990989661,188327.0,161844.0,11669.0,13.54375050024828
63870.00910173605,188337.0,161858.0,11667.0,13.553753270192828
63870.019104505984,188373.0,161890.0,11690.0,13.563756040130102
63870.02910727593,188312.0,161856.0,11675.0,13.57375881007465
63870.039110045866,188382.0,161858.0,11693.0,13.583761580011924
63870.04911281581,188361.0,161855.0,11690.0,13.593764349956473
63870.05911558575,188331.0,161833.0,11692.0,13.603767119893746
63870.06911835569,188381.0,161878.0,11709.0,13.613769889838295
63870.07912112563,188358.0,161871.0,11694.0,13.623772659775568
63870.089123895574,188362.0,161855.0,11691.0,13.633775429720117
63870.09912666551,188347.0,161822.0,11706.0,13.64377819965739
63870.109129435456,188347.0,161840.0,11678.0,13.65378096960194
63870.11913220539,188384.0,161874.0,11696.0,13.663783739539213
63870.12913497534,188357.0,161871.0,11713.0,13.673786509483762
63870.139137745275,188369.0,161853.0,11736.0,13.683789279421035
63870.14914051522,188393.0,161887.0,11744.0,13.693792049365584
63870.15914328516,188364.0,161854.0,11716.0,13.703794819302857
63870.1691460551,188381.0,161869.0,11735.0,13.713797589247406
63870.17914882504,188392.0,161851.0,11737.0,13.723800359184679
63870.18915159498,188348.0,161876.0,11726.0,13.733803129129228
63870.19915436493,188403.0,161866.0,11768.0,13.743805899073777
63870.209157134865,188379.0,161878.0,11756.0,13.75380866901105
63870.21915990481,188397.0,161879.0,11757.0,13.7638114389556
63870.22916267475,188405.0,161887.0,11739.0,13.773814208892873
63870.23916544469,188383.0,161861.0,11743.0,13.783816978837422
63870.24916821463,188398.0,161864.0,11754.0,13.793819748774695
63870.25917098457,188390.0,161890.0,11780.0,13.803822518719244
63870.26917375451,188393.0,161865.0,11771.0,13.813825288656517
63870.279176524455,188435.0,161895.0,11788.0,13.823828058601066
63870.28917929439,188370.0,161855.0,11773.0,13.83383082853834
63870.29918206434,188435.0,161904.0,11794.0,13.843833598482888
63870.309184834274,188462.0,161906.0,11798.0,13.853836368420161
63870.31918760422,188439.0,161882.0,11807.0,13.86383913836471
63870.329190374156,188439.0,161884.0,11792.0,13.873841908301983
63870.3391931441,188444.0,161903.0,11819.0,13.883844678246533
63870.34919591404,188419.0,161903.0,11863.0,13.893847448183806
63870.35919868398,188445.0,161900.0,11826.0,13.903850218128355
63870.36920145392,188474.0,161928.0,11849.0,13.913852988065628
63870.379204223864,188445.0,161902.0,11835.0,13.923855758010177
63870.38920699381,188422.0,161901.0,11846.0,13.933858527954726
63870.399209763746,188445.0,161903.0,11843.0,13.943861297892
63870.40921253369,188445.0,161915.0,11845.0,13.953864067836548
63870.41921530363,188473.0,161915.0,11862.0,13.963866837773821
63870.42921807357,188488.0,161918.0,11891.0,13.97386960771837
63870.43922084351,188444.0,161900.0,11881.0,13.983872377655644
63870.449223613454,188488.0,161911.0,11887.0,13.993875147600193
63870.45922638339,188485.0,161932.0,11903.0,14.003877917537466
63870.469229153336,188460.0,161945.0,11882.0,14.013880687482015
63870.47923192327,188518.0,161931.0,11930.0,14.023883457419288
63870.48923469322,188468.0,161931.0,11909.0,14.033886227363837
63870.499237463155,188502.0,161954.0,11894.0,14.04388899730111
63870.5092402331,188533.0,161942.0,11935.0,14.05389176724566
63870.51924300304,188496.0,161960.0,11939.0,14.063894537182932
63870.52924577298,188527.0,161974.0,11955.0,14.073897307127481
63870.53924854292,188498.0,161947.0,11932.0,14.083900077064754
63870.54925131286,188484.0,161926.0,11912.0,14.093902847009304
63870.5592540828,188476.0,161936.0,11933.0,14.103905616946577
63870.569256852745,188408.0,161896.0,11877.0,14.113908386891126
63870.57925962269,188403.0,161903.0,11882.0,14.123911156835675
63870.58926239263,188378.0,161928.0,11865.0,14.133913926772948
63870.59926516257,188333.0,161867.0,11794.0,14.143916696717497
63870.60926793251,188339.0,161884.0,11814.0,14.15391946665477
63870.61927070245,188313.0,161865.0,11759.0,14.16392223659932
63870.62927347239,188284.0,161849.0,11753.0,14.173925006536592
63870.639276242335,188236.0,161838.0,11713.0,14.183927776481141
63870.64927901227,188219.0,161783.0,11694.0,14.193930546418414
63870.65928178222,188242.0,161822.0,11675.0,14.203933316362964
63870.669284552154,188221.0,161807.0,11648.0,14.213936086300237
63870.6792873221,188195.0,161793.0,11629.0,14.223938856244786
63870.689290092036,188240.0,161821.0,11636.0,14.233941626182059
63870.69929286198,188206.0,161814.0,11606.0,14.243944396126608
63870.70929563192,188191.0,161782.0,11573.0,14.253947166063881
63870.71929840186,188167.0,161782.0,11590.0,14.26394993600843
63870.7293011718,188161.0,161754.0,11555.0,14.273952705945703
63870.739303941744,188170.0,161779.0,11569.0,14.283955475890252
63870.74930671168,188182.0,161764.0,11538.0,14.293958245827525
63870.759309481626,188158.0,161726.0,11514.0,14.303961015772074
63870.76931225156,188154.0,161766.0,11508.0,14.313963785709348
63870.77931502151,188129.0,161742.0,11510.0,14.323966555653897
63870.78931779145,188117.0,161774.0,11494.0,14.333969325598446
63870.79932056139,188110.0,161735.0,11466.0,14.343972095535719
63870.809323331334,188091.0,161743.0,11449.0,14.353974865480268
63870.81932610127,188121.0,161754.0,11472.0,14.363977635417541
63870.829328871216,188125.0,161745.0,11433.0,14.37398040536209
63870.83933164115,188115.0,161732.0,11440.0,14.383983175299363
63870.8493344111,188106.0,161748.0,11440.0,14.393985945243912
63870.859337181035,188113.0,161742.0,11441.0,14.403988715181185
63870.86933995098,188110.0,161731.0,11441.0,14.413991485125734
63870.87934272092,188073.0,161706.0,11419.0,14.423994255063008
63870.88934549086,188109.0,161748.0,11449.0,14.433997025007557
63870.8993482608,188059.0,161713.0,11381.0,14.44399979494483
63870.90935103074,188045.0,161711.0,11418.0,14.454002564889379
63870.91935380068,188040.0,161688.0,11388.0,14.464005334826652
63870.929356570625,188075.0,161709.0,11378.0,14.474008104771201
63870.93935934056,188070.0,161711.0,11425.0,14.484010874708474
63870.94936211051,188069.0,161731.0,11394.0,14.494013644653023
63870.959364880444,188053.0,161686.0,11375.0,14.504016414590296
63870.96936765039,188077.0,161712.0,11411.0,14.514019184534845
63870.97937042033,188042.0,161717.0,11371.0,14.524021954479394
63870.98937319027,188081.0,161690.0,11378.0,14.534024724416668
63870.999375960215,188096.0,161743.0,11391.0,14.544027494361217
63871.00937873015,188049.0,161694.0,11365.0,14.55403026429849
63871.0193815001,188100.0,161724.0,11382.0,14.564033034243039
63871.029384270034,188046.0,161670.0,11405.0,14.574035804180312
63871.03938703998,188046.0,161707.0,11382.0,14.584038574124861
63871.049389809916,188058.0,161709.0,11371.0,14.594041344062134
63871.05939257986,188046.0,161701.0,11399.0,14.604044114006683
63871.0693953498,188091.0,161730.0,11400.0,14.614046883943956
63871.07939811974,188113.0,161740.0,11415.0,14.624049653888505
63871.08940088968,188070.0,161715.0,11376.0,14.634052423825779
63871.099403659624,188115.0,161749.0,11417.0,14.644055193770328
63871.10940642956,188102.0,161722.0,11417.0,14.6540579637076
63871.119409199506,188102.0,161718.0,11438.0,14.66406073365215
63871.12941196944,188120.0,161741.0,11446.0,14.674063503589423
63871.13941473939,188095.0,161730.0,11408.0,14.684066273533972
63871.149417509325,188127.0,161760.0,11437.0,14.694069043471245
63871.15942027927,188129.0,161719.0,11425.0,14.704071813415794
63871.169423049214,188072.0,161715.0,11425.0,14.714074583360343
63871.17942581915,188077.0,161749.0,11429.0,14.724077353297616
63871.189428589096,188126.0,161741.0,11459.0,14.734080123242165
63871.19943135903,188145.0,161762.0,11453.0,14.744082893179439
63871.20943412898,188138.0,161775.0,11448.0,14.754085663123988
63871.219436898915,188115.0,161727.0,11450.0,14.76408843306126
63871.22943966886,188140.0,161747.0,11476.0,14.77409120300581
63871.2394424388,188152.0,161757.0,11482.0,14.784093972943083
63871.24944520874,188137.0,161743.0,11480.0,14.794096742887632
63871.25944797868,188137.0,161753.0,11485.0,14.804099512824905
63871.26945074862,188164.0,161773.0,11496.0,14.814102282769454
63871.27945351856,188186.0,161802.0,11525.0,14.824105052706727
63871.289456288505,188138.0,161768.0,11489.0,14.834107822651276
63871.29945905844,188216.0,161804.0,11536.0,14.84411059258855
63871.30946182839,188161.0,161775.0,11522.0,14.854113362533099
63871.319464598324,188168.0,161779.0,11496.0,14.864116132470372
63871.32946736827,188150.0,161781.0,11519.0,14.87411890241492
63871.339470138206,188197.0,161811.0,11565.0,14.884121672352194
63871.34947290815,188190.0,161790.0,11544.0,14.894124442296743
63871.359475678095,188216.0,161834.0,11588.0,14.904127212241292
63871.36947844803,188182.0,161755.0,11548.0,14.914129982178565
63871.37948121798,188227.0,161823.0,11585.0,14.924132752123114
63871.389483987914,188211.0,161816.0,11558.0,14.934135522060387
63871.39948675786,188199.0,161816.0,11571.0,14.944138292004936
63871.409489527796,188222.0,161813.0,11597.0,14.95414106194221
63871.41949229774,188176.0,161786.0,11589.0,14.964143831886759
63871.42949506768,188222.0,161823.0,11628.0,14.974146601824032
63871.43949783762,188222.0,161830.0,11612.0,14.98414937176858
63871.44950060756,188236.0,161840.0,11615.0,14.994152141705854
63871.459503377504,188230.0,161815.0,11614.0,15.004154911650403
63871.46950614744,188260.0,161828.0,11624.0,15.014157681587676
63871.479508917386,188243.0,161818.0,11632.0,15.024160451532225
63871.48951168732,188245.0,161820.0,11640.0,15.034163221469498
63871.49951445727,188290.0,161857.0,11681.0,15.044165991414047
63871.509517227205,188276.0,161853.0,11660.0,15.05416876135132
63871.51951999715,188322.0,161856.0,11695.0,15.06417153129587
63871.52952276709,188291.0,161854.0,11667.0,15.074174301233143
63871.53952553703,188264.0,161859.0,11665.0,15.084177071177692
63871.549528306976,188300.0,161862.0,11695.0,15.09417984112224
63871.55953107691,188256.0,161853.0,11671.0,15.104182611059514
63871.56953384686,188283.0,161886.0,11712.0,15.114185381004063
63871.579536616795,188332.0,161859.0,11747.0,15.124188150941336
63871.58953938674,188317.0,161858.0,11734.0,15.134190920885885
63871.59954215668,188317.0,161874.0,11739.0,15.144193690823158
63871.60954492662,188332.0,161864.0,11727.0,15.154196460767707
63871.61954769656,188310.0,161851.0,11754.0,15.16419923070498
63871.6295504665,188335.0,161886.0,11750.0,15.17420200064953
63871.63955323644,188310.0,161868.0,11752.0,15.184204770586803
63871.649556006385,188276.0,161877.0,11780.0,15.194207540531352
63871.65955877632,188294.0,161885.0,11712.0,15.204210310468625
63871.66956154627,188260.0,161865.0,11704.0,15.214213080413174
63871.679564316204,188226.0,161829.0,11713.0,15.224215850350447
63871.68956708615,188189.0,161807.0,11667.0,15.234218620294996
63871.699569856086,188159.0,161803.0,11623.0,15.24422139023227
63871.70957262603,188134.0,161806.0,11641.0,15.254224160176818
63871.71957539597,188109.0,161791.0,11584.0,15.264226930114091
63871.72957816591,188135.0,161812.0,11573.0,15.27422970005864
63871.73958093585,188064.0,161818.0,11519.0,15.284232469995914
63871.749583705794,188070.0,161778.0,11492.0,15.294235239940463
63871.75958647574,188066.0,161762.0,11485.0,15.304238009885012
63871.769589245676,188070.0,161767.0,11448.0,15.314240779822285
63871.77959201562,188021.0,161758.0,11468.0,15.324243549766834
63871.78959478556,188028.0,161743.0,11424.0,15.334246319704107
63871.7995975555,188015.0,161738.0,11427.0,15.344249089648656
63871.80960032544,188032.0,161769.0,11396.0,15.35425185958593
63871.819603095384,188002.0,161737.0,11389.0,15.364254629530478
63871.82960586532,187977.0,161715.0,11397.0,15.374257399467751
63871.839608635266,187995.0,161740.0,11381.0,15.3842601694123
63871.8496114052,187969.0,161696.0,11360.0,15.394262939349574
63871.85961417515,187967.0,161728.0,11364.0,15.404265709294123
63871.869616945085,188005.0,161734.0,11334.0,15.414268479231396
63871.87961971503,187978.0,161728.0,11350.0,15.424271249175945
63871.88962248497,187971.0,161744.0,11342.0,15.434274019113218
63871.89962525491,187951.0,161696.0,11334.0,15.444276789057767
63871.90962802485,187954.0,161699.0,11328.0,15.45427955899504
63871.91963079479,187960.0,161709.0,11336.0,15.46428232893959
63871.92963356473,187944.0,161690.0,11332.0,15.474285098876862
63871.939636334675,187947.0,161689.0,11297.0,15.484287868821411
63871.94963910462,187975.0,161719.0,11345.0,15.49429063876596
63871.95964187456,187985.0,161719.0,11334.0,15.504293408703234
63871.9696446445,187941.0,161683.0,11309.0,15.514296178647783
63871.97964741444,187943.0,161674.0,11310.0,15.524298948585056
63871.98965018438,187965.0,161707.0,11337.0,15.534301718529605
63871.99965295432,187953.0,161710.0,11302.0,15.544304488466878
63872.009655724265,187903.0,161683.0,11289.0,15.554307258411427
63872.0196584942,187895.0,161746.0,11291.0,15.5643100283487
63872.02966126415,187957.0,161722.0,11301.0,15.57431279829325
63872.039664034084,187938.0,161700.0,11292.0,15.584315568230522
63872.04966680403,187942.0,161735.0,11271.0,15.594318338175071
63872.059669573966,187956.0,161726.0,11306.0,15.604321108112345
63872.06967234391,187917.0,161693.0,11294.0,15.614323878056894
63872.07967511385,187937.0,161698.0,11296.0,15.624326647994167
63872.08967788379,187904.0,161684.0,11304.0,15.634329417938716
63872.09968065373,187898.0,161671.0,11307.0,15.644332187875989
63872.109683423674,187894.0,161657.0,11293.0,15.654334957820538
63872.11968619361,187944.0,161703.0,11302.0,15.664337727757811
63872.129688963556,187911.0,161730.0,11276.0,15.67434049770236
63872.13969173349,187982.0,161729.0,11304.0,15.684343267639633
63872.14969450344,187927.0,161697.0,11315.0,15.694346037584182
63872.15969727338,187961.0,161714.0,11310.0,15.704348807528731
63872.16970004332,187936.0,161700.0,11313.0,15.714351577466005
63872.179702813264,187953.0,161725.0,11306.0,15.724354347410554
63872.1897055832,187964.0,161705.0,11342.0,15.734357117347827
63872.199708353146,187957.0,161713.0,11336.0,15.744359887292376
63872.20971112308,187931.0,161696.0,11320.0,15.754362657229649
63872.21971389303,187957.0,161726.0,11353.0,15.764365427174198
63872.229716662965,187985.0,161725.0,11336.0,15.774368197111471
63872.23971943291,187978.0,161733.0,11368.0,15.78437096705602
63872.24972220285,188021.0,161689.0,11379.0,15.794373736993293
63872.25972497279,188019.0,161763.0,11387.0,15.804376506937842
63872.26972774273,188006.0,161753.0,11380.0,15.814379276875115
63872.27973051267,188008.0,161742.0,11386.0,15.824382046819665
63872.28973328261,187990.0,161718.0,11379.0,15.834384816756938
63872.299736052555,188020.0,161769.0,11414.0,15.844387586701487
63872.30973882249,188024.0,161772.0,11409.0,15.85439035663876
63872.31974159244,188014.0,161769.0,11411.0,15.864393126583309
63872.329744362374,188044.0,161787.0,11423.0,15.874395896520582
63872.33974713232,188019.0,161766.0,11424.0,15.884398666465131
63872.34974990226,188004.0,161752.0,11426.0,15.89440143640968
63872.3597526722,188053.0,161768.0,11437.0,15.904404206346953
63872.369755442145,188012.0,161759.0,11418.0,15.914406976291502
63872.37975821208,188068.0,161783.0,11464.0,15.924409746228775
63872.38976098203,188019.0,161770.0,11449.0,15.934412516173325
63872.399763751964,188057.0,161786.0,11460.0,15.944415286110598
63872.40976652191,188078.0,161810.0,11486.0,15.954418056055147
63872.419769291846,188034.0,161801.0,11464.0,15.96442082599242
63872.42977206179,188076.0,161812.0,11475.0,15.974423595936969
63872.43977483173,188089.0,161799.0,11483.0,15.984426365874242
63872.44977760167,188059.0,161811.0,11508.0,15.994429135818791
63872.45978037161,188074.0,161788.0,11491.0,16.004431905756064
63872.469783141554,188101.0,161818.0,11491.0,16.014434675700613
63872.47978591149,188096.0,161816.0,11533.0,16.024437445637886
63872.489788681436,188067.0,161811.0,11534.0,16.034440215582435
63872.49979145137,188076.0,161799.0,11539.0,16.04444298551971
63872.50979422132,188070.0,161796.0,11554.0,16.054445755464258
63872.519796991255,188102.0,161832.0,11531.0,16.06444852540153
63872.5297997612,188113.0,161832.0,11563.0,16.07445129534608
63872.539802531144,188165.0,161884.0,11557.0,16.08445406529063
63872.54980530108,188136.0,161829.0,11540.0,16.094456835227902
63872.559808071026,188163.0,161838.0,11615.0,16.10445960517245
63872.56981084096,188168.0,161888.0,11589.0,16.114462375109724
63872.57981361091,188178.0,161826.0,11615.0,16.124465145054273
63872.589816380845,188169.0,161829.0,11618.0,16.134467914991546
63872.59981915079,188137.0,161841.0,11620.0,16.144470684936095
63872.60982192073,188183.0,161883.0,11632.0,16.15447345487337
63872.61982469067,188183.0,161917.0,11676.0,16.164476224817918
63872.62982746061,188149.0,161865.0,11660.0,16.17447899475519
63872.63983023055,188211.0,161885.0,11641.0,16.18448176469974
63872.64983300049,188204.0,161881.0,11676.0,16.194484534637013
63872.659835770435,188205.0,161920.0,11651.0,16.204487304581562
63872.66983854037,188222.0,161906.0,11670.0,16.214490074518835
63872.67984131032,188237.0,161860.0,11680.0,16.224492844463384
63872.689844080254,188242.0,161900.0,11701.0,16.234495614400657
63872.6998468502,188239.0,161886.0,11712.0,16.244498384345206
63872.709849620136,188245.0,161906.0,11715.0,16.25450115428248
63872.71985239008,188219.0,161915.0,11715.0,16.26450392422703
63872.729855160025,188225.0,161907.0,11717.0,16.274506694171578
63872.73985792996,188185.0,161891.0,11702.0,16.28450946410885
63872.74986069991,188183.0,161869.0,11684.0,16.2945122340534
63872.759863469844,188157.0,161861.0,11703.0,16.304515003990673
63872.76986623979,188123.0,161863.0,11643.0,16.314517773935222
63872.779869009726,188103.0,161846.0,11609.0,16.324520543872495
63872.78987177967,188119.0,161854.0,11608.0,16.334523313817044
63872.79987454961,188069.0,161815.0,11562.0,16.344526083754317
63872.80987731955,188047.0,161820.0,11545.0,16.354528853698866
63872.81988008949,188057.0,161851.0,11528.0,16.36453162363614
63872.829882859434,187994.0,161819.0,11466.0,16.37453439358069
63872.83988562937,188040.0,161807.0,11504.0,16.38453716351796
63872.849888399316,188013.0,161805.0,11465.0,16.39453993346251
63872.85989116925,188031.0,161796.0,11445.0,16.404542703399784
63872.8698939392,188023.0,161798.0,11470.0,16.414545473344333
63872.879896709135,187953.0,161761.0,11423.0,16.424548243281606
63872.88989947908,187975.0,161794.0,11431.0,16.434551013226155
63872.89990224902,187946.0,161791.0,11428.0,16.44455378316343
63872.90990501896,187935.0,161759.0,11397.0,16.454556553107977
63872.919907788906,187991.0,161797.0,11417.0,16.464559323052526
63872.92991055884,187976.0,161779.0,11395.0,16.4745620929898
63872.93991332879,187967.0,161763.0,11406.0,16.48456486293435
63872.949916098725,187994.0,161801.0,11415.0,16.49456763287162
63872.95991886867,187981.0,161796.0,11388.0,16.50457040281617
63872.96992163861,187966.0,161771.0,11399.0,16.514573172753444
63872.97992440855,187960.0,161754.0,11401.0,16.524575942697993
63872.98992717849,187936.0,161741.0,11385.0,16.534578712635266
63872.99992994843,187966.0,161798.0,11413.0,16.544581482579815
63873.00993271837,187964.0,161767.0,11389.0,16.55458425251709
63873.019935488315,187935.0,161738.0,11379.0,16.564587022461637
63873.02993825825,187975.0,161790.0,11377.0,16.57458979239891
63873.0399410282,187944.0,161742.0,11378.0,16.58459256234346
63873.049943798134,187963.0,161771.0,11385.0,16.594595332280733
63873.05994656808,187978.0,161774.0,11393.0,16.60459810222528
63873.069949338016,187942.0,161759.0,11375.0,16.614600872162555
63873.07995210796,187966.0,161759.0,11386.0,16.624603642107104
63873.0899548779,187953.0,161769.0,11370.0,16.634606412044377
63873.09995764784,187927.0,161771.0,11385.0,16.644609181988926
63873.10996041778,187931.0,161768.0,11354.0,16.6546119519262
63873.119963187724,187931.0,161769.0,11356.0,16.66461472187075
63873.12996595767,187946.0,161762.0,11356.0,16.674617491815297
63873.139968727606,187966.0,161788.0,11343.0,16.68462026175257
63873.14997149755,187899.0,161720.0,11362.0,16.69462303169712
63873.15997426749,187960.0,161781.0,11391.0,16.704625801634393
63873.16997703743,187948.0,161768.0,11364.0,16.71462857157894
63873.17997980737,187970.0,161754.0,11367.0,16.724631341516215
63873.189982577314,187961.0,161734.0,11357.0,16.734634111460764
63873.19998534725,187993.0,161807.0,11400.0,16.744636881398037
63873.209988117196,187982.0,161776.0,11379.0,16.754639651342586
63873.21999088713,187948.0,161773.0,11400.0,16.76464242127986
63873.22999365708,188017.0,161793.0,11414.0,16.77464519122441
63873.239996427015,187983.0,161782.0,11365.0,16.78464796116168
63873.24999919696,187996.0,161794.0,11423.0,16.79465073110623
63873.2600019669,187978.0,161811.0,11406.0,16.804653501043504
63873.27000473684,188008.0,161791.0,11410.0,16.814656270988053
63873.28000750678,188020.0,161822.0,11446.0,16.824659040925326
63873.29001027672,187952.0,161779.0,11429.0,16.834661810869875
63873.30001304666,188018.0,161782.0,11438.0,16.844664580807148
63873.310015816605,188038.0,161820.0,11418.0,16.854667350751697
63873.32001858655,187991.0,161809.0,11445.0,16.864670120696246
63873.33002135649,188050.0,161810.0,11457.0,16.87467289063352
63873.34002412643,188039.0,161819.0,11460.0,16.88467566057807
63873.35002689637,188036.0,161809.0,11443.0,16.89467843051534
63873.36002966631,188053.0,161825.0,11496.0,16.90468120045989
63873.37003243625,188003.0,161784.0,11465.0,16.914683970397164
63873.380035206195,188053.0,161822.0,11485.0,16.924686740341713
63873.39003797613,188052.0,161834.0,11503.0,16.934689510278986
63873.40004074608,188048.0,161814.0,11460.0,16.944692280223535
63873.410043516014,188071.0,161837.0,11494.0,16.954695050160808
63873.42004628596,188086.0,161846.0,11518.0,16.964697820105357
63873.430049055896,188077.0,161810.0,11523.0,16.97470059004263
63873.44005182584,188081.0,161851.0,11520.0,16.98470335998718
63873.45005459578,188090.0,161817.0,11518.0,16.994706129924452
63873.46005736572,188108.0,161846.0,11542.0,17.004708899869
63873.47006013566,188088.0,161838.0,11550.0,17.014711669806275
63873.480062905604,188078.0,161840.0,11564.0,17.024714439750824
63873.49006567554,188091.0,161850.0,11538.0,17.034717209688097
63873.500068445486,188121.0,161859.0,11559.0,17.044719979632646
63873.51007121542,188161.0,161837.0,11582.0,17.05472274956992
63873.52007398537,188138.0,161862.0,11556.0,17.064725519514468
63873.53007675531,188145.0,161876.0,11607.0,17.074728289459017
63873.54007952525,188145.0,161869.0,11585.0,17.08473105939629
63873.550082295194,188173.0,161899.0,11609.0,17.09473382934084
63873.56008506513,188157.0,161846.0,11588.0,17.104736599278112
63873.570087835076,188162.0,161862.0,11619.0,17.11473936922266
63873.58009060501,188168.0,161895.0,11620.0,17.124742139159935
63873.59009337496,188197.0,161935.0,11646.0,17.134744909104484
63873.600096144895,188161.0,161900.0,11619.0,17.144747679041757
63873.61009891484,188208.0,161913.0,11655.0,17.154750448986306
63873.62010168478,188194.0,161899.0,11652.0,17.16475321892358
63873.63010445472,188176.0,161883.0,11656.0,17.174755988868128
63873.64010722466,188222.0,161932.0,11686.0,17.1847587588054
63873.6501099946,188221.0,161919.0,11669.0,17.19476152874995
63873.66011276454,188221.0,161921.0,11685.0,17.204764298687223
63873.670115534485,188231.0,161925.0,11690.0,17.214767068631772
63873.68011830442,188190.0,161904.0,11662.0,17.224769838569046
63873.69012107437,188233.0,161937.0,11702.0,17.234772608513595
63873.700123844304,188185.0,161905.0,11686.0,17.244775378450868
63873.71012661425,188164.0,161884.0,11699.0,17.254778148395417
63873.72012938419,188175.0,161916.0,11666.0,17.264780918339966
63873.73013215413,188115.0,161870.0,11638.0,17.27478368827724
63873.740134924075,188133.0,161876.0,11619.0,17.284786458221788
63873.75013769401,188091.0,161856.0,11597.0,17.29478922815906
63873.76014046396,188062.0,161856.0,11558.0,17.30479199810361
63873.770143233894,188063.0,161848.0,11563.0,17.314794768040883
63873.78014600384,188035.0,161840.0,11518.0,17.324797537985432
63873.790148773776,188066.0,161846.0,11488.0,17.334800307922706
63873.80015154372,188046.0,161874.0,11490.0,17.344803077867255
63873.81015431366,188004.0,161822.0,11465.0,17.354805847804528
63873.8201570836,188004.0,161816.0,11459.0,17.364808617749077
63873.83015985354,188027.0,161808.0,11468.0,17.37481138768635
63873.840162623485,188003.0,161805.0,11454.0,17.3848141576309
63873.85016539342,188024.0,161837.0,11457.0,17.394816927568172
63873.860168163366,187998.0,161824.0,11426.0,17.40481969751272
63873.8701709333,187983.0,161830.0,11435.0,17.414822467449994
63873.88017370325,187987.0,161841.0,11419.0,17.424825237394543
63873.890176473185,187979.0,161796.0,11427.0,17.434828007331816
63873.90017924313,187991.0,161819.0,11418.0,17.444830777276366
63873.910182013075,187998.0,161816.0,11392.0,17.454833547220915
63873.92018478301,187983.0,161813.0,11423.0,17.464836317158188
63873.930187552956,187987.0,161824.0,11411.0,17.474839087102737
63873.94019032289,187998.0,161812.0,11412.0,17.48484185704001
63873.95019309284,188014.0,161824.0,11406.0,17.49484462698456
63873.960195862775,188010.0,161816.0,11408.0,17.504847396921832
63873.97019863272,187975.0,161799.0,11431.0,17.51485016686638
63873.98020140266,187994.0,161825.0,11398.0,17.524852936803654
63873.9902041726,187968.0,161825.0,11434.0,17.534855706748203
63874.00020694254,188016.0,161846.0,11432.0,17.544858476685476
63874.01020971248,187999.0,161826.0,11403.0,17.554861246630026
63874.02021248242,188007.0,161825.0,11431.0,17.5648640165673
63874.030215252365,187991.0,161829.0,11419.0,17.574866786511848
63874.0402180223,187978.0,161780.0,11390.0,17.58486955644912
63874.05022079225,188004.0,161800.0,11419.0,17.59487232639367
63874.060223562185,187955.0,161815.0,11390.0,17.604875096330943
63874.07022633213,187986.0,161783.0,11407.0,17.614877866275492
63874.08022910207,188001.0,161827.0,11434.0,17.624880636212765
63874.09023187201,187959.0,161799.0,11383.0,17.634883406157314
63874.100234641955,187994.0,161816.0,11423.0,17.644886176101863
63874.11023741189,187963.0,161831.0,11404.0,17.654888946039136
63874.12024018184,187980.0,161800.0,11387.0,17.664891715983686
63874.130242951775,187976.0,161807.0,11426.0,17.67489448592096
63874.14024572172,187968.0,161798.0,11404.0,17.684897255865508
63874.15024849166,187994.0,161827.0,11413.0,17.69490002580278
63874.1602512616,187995.0,161802.0,11420.0,17.70490279574733
63874.17025403154,188009.0,161799.0,11405.0,17.714905565684603
63874.18025680148,188019.0,161866.0,11417.0,17.724908335629152
63874.19025957142,188025.0,161838.0,11440.0,17.734911105566425
63874.200262341365,188006.0,161824.0,11459.0,17.744913875510974
63874.2102651113,188034.0,161855.0,11446.0,17.754916645448247
63874.22026788125,187978.0,161809.0,11467.0,17.764919415392797
63874.230270651184,188031.0,161836.0,11462.0,17.77492218533007
63874.24027342113,188019.0,161835.0,11449.0,17.78492495527462
63874.250276191065,188014.0,161818.0,11453.0,17.794927725211892
63874.26027896101,188052.0,161881.0,11497.0,17.80493049515644
63874.27028173095,188053.0,161858.0,11487.0,17.814933265093714
63874.28028450089,188027.0,161830.0,11485.0,17.824936035038263
63874.29028727084,188064.0,161864.0,11470.0,17.834938804982812
63874.300290040774,188074.0,161884.0,11509.0,17.844941574920085
63874.31029281072,188059.0,161862.0,11503.0,17.854944344864634
63874.320295580656,188091.0,161861.0,11533.0,17.864947114801907
63874.3302983506,188085.0,161866.0,11536.0,17.874949884746457
63874.34030112054,188073.0,161857.0,11528.0,17.88495265468373
63874.35030389048,188117.0,161905.0,11551.0,17.89495542462828
63874.36030666042,188059.0,161848.0,11521.0,17.904958194565552
63874.370309430364,188050.0,161878.0,11538.0,17.9149609645101
63874.3803122003,188115.0,161871.0,11542.0,17.924963734447374
63874.390314970246,188118.0,161897.0,11562.0,17.934966504391923
63874.40031774018,188091.0,161890.0,11566.0,17.944969274329196
63874.41032051013,188128.0,161919.0,11595.0,17.954972044273745
63874.420323280065,188098.0,161886.0,11569.0,17.96497481421102
63874.43032605001,188128.0,161899.0,11596.0,17.974977584155567
63874.44032881995,188108.0,161920.0,11608.0,17.98498035409284
63874.45033158989,188103.0,161871.0,11586.0,17.99498312403739
63874.46033435983,188124.0,161901.0,11622.0,18.004985893974663
63874.47033712977,188153.0,161909.0,11618.0,18.014988663919212
63874.48033989971,188121.0,161923.0,11635.0,18.024991433856485
63874.490342669655,188157.0,161916.0,11658.0,18.034994203801034
63874.5003454396,188120.0,161887.0,11645.0,18.044996973745583
63874.51034820954,188148.0,161913.0,11646.0,18.054999743682856
63874.52035097948,188161.0,161945.0,11664.0,18.065002513627405
63874.53035374942,188140.0,161904.0,11655.0,18.07500528356468
63874.54035651936,188163.0,161971.0,11664.0,18.085008053509227
63874.5503592893,188181.0,161944.0,11675.0,18.0950108234465
63874.560362059245,188173.0,161921.0,11684.0,18.10501359339105
63874.57036482918,188216.0,161960.0,11671.0,18.115016363328323
63874.58036759913,188157.0,161963.0,11681.0,18.125019133272872
63874.590370369064,188224.0,161957.0,11715.0,18.135021903210145
63874.60037313901,188216.0,161943.0,11716.0,18.145024673154694
63874.610375908946,188168.0,161920.0,11703.0,18.155027443091967
63874.62037867889,188236.0,161975.0,11739.0,18.165030213036516
63874.63038144883,188226.0,161967.0,11743.0,18.17503298297379
63874.64038421877,188233.0,161997.0,11766.0,18.18503575291834
63874.65038698871,188224.0,161984.0,11755.0,18.19503852285561
63874.660389758654,188182.0,161945.0,11740.0,18.20504129280016
63874.67039252859,188202.0,161970.0,11726.0,18.215044062737434
63874.680395298536,188170.0,161986.0,11732.0,18.225046832681983
63874.69039806848,188134.0,161920.0,11694.0,18.235049602626532
63874.70040083842,188127.0,161933.0,11665.0,18.245052372563805
63874.71040360836,188103.0,161929.0,11642.0,18.255055142508354
63874.7204063783,188093.0,161896.0,11623.0,18.265057912445627
63874.730409148244,188046.0,161868.0,11587.0,18.275060682390176
63874.74041191818,188057.0,161922.0,11594.0,18.28506345232745
63874.750414688126,187993.0,161888.0,11503.0,18.295066222272
63874.76041745806,187970.0,161859.0,11556.0,18.30506899220927
63874.77042022801,187968.0,161840.0,11485.0,18.31507176215382
63874.780422997945,188016.0,161891.0,11498.0,18.325074532091094
63874.79042576789,187975.0,161868.0,11505.0,18.335077302035643
63874.80042853783,187984.0,161858.0,11463.0,18.345080071972916
63874.81043130777,187928.0,161819.0,11431.0,18.355082841917465
63874.82043407771,187936.0,161884.0,11445.0,18.365085611854738
63874.83043684765,187920.0,161853.0,11399.0,18.375088381799287
63874.84043961759,187945.0,161866.0,11413.0,18.38509115173656
63874.850442387535,187929.0,161845.0,11408.0,18.39509392168111
63874.86044515747,187937.0,161837.0,11419.0,18.405096691618382
63874.87044792742,187944.0,161838.0,11424.0,18.41509946156293
63874.880450697354,187918.0,161830.0,11384.0,18.425102231500205
63874.8904534673,187919.0,161830.0,11360.0,18.435105001444754
63874.90045623724,187893.0,161807.0,11368.0,18.445107771389303
63874.91045900718,187879.0,161807.0,11374.0,18.455110541326576
63874.920461777125,187914.0,161823.0,11373.0,18.465113311271125
63874.93046454706,187929.0,161847.0,11376.0,18.475116081208398
63874.94046731701,187933.0,161848.0,11396.0,18.485118851152947
63874.950470086944,187912.0,161823.0,11341.0,18.49512162109022
63874.96047285689,187916.0,161821.0,11371.0,18.50512439103477
63874.970475626826,187875.0,161818.0,11356.0,18.515127160972042
63874.98047839677,187925.0,161804.0,11341.0,18.52512993091659
63874.99048116671,187881.0,161792.0,11368.0,18.535132700853865
63875.00048393665,187900.0,161821.0,11358.0,18.545135470798414
63875.01048670659,187887.0,161789.0,11349.0,18.555138240735687
63875.020489476534,187829.0,161786.0,11338.0,18.565141010680236
63875.03049224647,187847.0,161807.0,11336.0,18.57514378061751
63875.040495016416,187867.0,161799.0,11352.0,18.585146550562058
63875.05049778635,187896.0,161794.0,11366.0,18.59514932049933
63875.0605005563,187872.0,161766.0,11354.0,18.60515209044388
63875.070503326235,187864.0,161793.0,11324.0,18.615154860381153
63875.08050609618,187877.0,161808.0,11340.0,18.625157630325702
63875.090508866124,187863.0,161799.0,11324.0,18.63516040027025
63875.10051163606,187866.0,161835.0,11352.0,18.645163170207525
63875.110514406006,187838.0,161792.0,11352.0,18.655165940152074
63875.12051717594,187862.0,161808.0,11347.0,18.665168710089347
63875.13051994589,187848.0,161783.0,11324.0,18.675171480033896
63875.140522715825,187889.0,161819.0,11366.0,18.68517424997117
63875.15052548577,187912.0,161839.0,11398.0,18.695177019915718
63875.16052825571,187895.0,161806.0,11369.0,18.70517978985299
63875.17053102565,187890.0,161808.0,11373.0,18.71518255979754
63875.18053379559,187919.0,161803.0,11367.0,18.725185329734813
63875.19053656553,187906.0,161807.0,11369.0,18.735188099679362
63875.20053933547,187904.0,161827.0,11378.0,18.745190869616636
63875.210542105415,187904.0,161850.0,11400.0,18.755193639561185
63875.22054487535,187884.0,161798.0,11382.0,18.765196409498458
63875.2305476453,187903.0,161818.0,11374.0,18.775199179443007
63875.240550415234,187912.0,161827.0,11397.0,18.78520194938028
63875.25055318518,187911.0,161833.0,11428.0,18.79520471932483
63875.260555955116,187903.0,161828.0,11419.0,18.805207489262102
63875.27055872506,187899.0,161808.0,11417.0,18.81521025920665
63875.280561495005,187917.0,161831.0,11439.0,18.8252130291512
63875.29056426494,187889.0,161802.0,11459.0,18.835215799088473
63875.30056703489,187937.0,161845.0,11431.0,18.845218569033023
63875.310569804824,187957.0,161866.0,11466.0,18.855221338970296
63875.32057257477,187949.0,161847.0,11455.0,18.865224108914845
63875.330575344706,187928.0,161825.0,11451.0,18.875226878852118
63875.34057811465,187929.0,161839.0,11464.0,18.885229648796667
63875.35058088459,187948.0,161862.0,11498.0,18.89523241873394
63875.36058365453,187947.0,161846.0,11472.0,18.90523518867849
63875.37058642447,187980.0,161842.0,11501.0,18.915237958615762
63875.380589194414,187926.0,161835.0,11474.0,18.92524072856031
63875.39059196435,187966.0,161861.0,11514.0,18.935243498497584
63875.400594734296,187958.0,161850.0,11499.0,18.945246268442133
63875.41059750423,187929.0,161897.0,11493.0,18.955249038379407
63875.42060027418,187951.0,161831.0,11481.0,18.965251808323956
63875.430603044115,187991.0,161878.0,11547.0,18.97525457826123
63875.44060581406,187971.0,161860.0,11514.0,18.985257348205778
63875.450608584,187955.0,161849.0,11520.0,18.99526011814305
63875.46061135394,187950.0,161874.0,11507.0,19.0052628880876
63875.470614123886,187996.0,161904.0,11553.0,19.01526565803215
63875.48061689382,188002.0,161882.0,11560.0,19.025268427969422
63875.49061966377,188016.0,161909.0,11564.0,19.03527119791397
63875.500622433705,187980.0,161857.0,11538.0,19.045273967851244
63875.51062520365,188011.0,161902.0,11553.0,19.055276737795793
63875.52062797359,188020.0,161896.0,11584.0,19.065279507733067
63875.53063074353,188020.0,161873.0,11608.0,19.075282277677616
63875.54063351347,188017.0,161910.0,11618.0,19.08528504761489
63875.55063628341,188025.0,161891.0,11619.0,19.095287817559438
63875.56063905335,188036.0,161903.0,11608.0,19.10529058749671
63875.570641823295,188046.0,161902.0,11619.0,19.11529335744126
63875.58064459323,188034.0,161897.0,11634.0,19.125296127378533
