timestamp,time_from_start_sec,PPG_1,PPG_2,PPG_3
62847.76665753874,0.0,106470.0,18300.0,882.0
62847.77665545212,0.0099979133810848,106485.0,18286.0,896.0
62847.786653365496,0.019995826754893642,106503.0,18315.0,904.0
62847.79665127888,0.02999374013597844,106445.0,18324.0,910.0
62847.80664919226,0.03999165351706324,106473.0,18303.0,891.0
62847.81664710563,0.049989566890872084,106471.0,18293.0,902.0
62847.82664501901,0.05998748027195688,106463.0,18301.0,869.0
62847.836642932394,0.06998539365304168,106484.0,18317.0,879.0
62847.84664084577,0.07998330702685053,106467.0,18298.0,891.0
62847.85663875915,0.08998122040793533,106468.0,18296.0,886.0
62847.86663667253,0.09997913378902012,106432.0,18280.0,899.0
62847.876634585904,0.10997704716282897,106466.0,18275.0,882.0
62847.886632499285,0.11997496054391377,106460.0,18292.0,907.0
62847.896630412666,0.12997287392499857,106467.0,18299.0,886.0
62847.90662832604,0.1399707872988074,106455.0,18277.0,886.0
62847.91662623942,0.1499687006798922,106472.0,18343.0,932.0
62847.9266241528,0.159966614060977,106468.0,18304.0,891.0
62847.936622066176,0.16996452743478585,106438.0,18287.0,899.0
62847.94661997956,0.17996244081587065,106461.0,18285.0,901.0
62847.95661789294,0.18996035419695545,106452.0,18294.0,884.0
62847.96661580631,0.1999582675707643,106472.0,18298.0,897.0
62847.97661371969,0.2099561809518491,106458.0,18301.0,909.0
62847.986611633074,0.2199540943329339,106473.0,18307.0,904.0
62847.99660954645,0.22995200770674273,106492.0,18334.0,869.0
62848.00660745983,0.23994992108782753,106458.0,18310.0,888.0
62848.01660537321,0.24994783446891233,106467.0,18273.0,897.0
62848.026603286584,0.2599457478427212,106461.0,18308.0,903.0
62848.036601199965,0.269943661223806,106470.0,18292.0,909.0
62848.046599113346,0.2799415746048908,106437.0,18299.0,875.0
62848.05659702672,0.2899394879786996,106440.0,18276.0,882.0
62848.0665949401,0.2999374013597844,106438.0,18275.0,908.0
62848.07659285348,0.3099353147408692,106436.0,18300.0,899.0
62848.08659076686,0.319933228121954,106467.0,18302.0,889.0
62848.09658868024,0.32993114149576286,106460.0,18282.0,880.0
62848.10658659362,0.33992905487684766,106455.0,18325.0,920.0
62848.116584507,0.34992696825793246,106488.0,18324.0,900.0
62848.12658242037,0.3599248816317413,106476.0,18293.0,896.0
62848.136580333754,0.3699227950128261,106462.0,18295.0,892.0
62848.146578247135,0.3799207083939109,106456.0,18328.0,921.0
62848.15657616051,0.38991862176771974,106442.0,18289.0,869.0
62848.16657407389,0.39991653514880454,106473.0,18302.0,900.0
62848.17657198727,0.40991444852988934,106494.0,18352.0,897.0
62848.186569900645,0.4199123619036982,106462.0,18290.0,871.0
62848.196567814026,0.429910275284783,106490.0,18318.0,914.0
62848.20656572741,0.4399081886658678,106470.0,18281.0,881.0
62848.21656364078,0.4499061020396766,106443.0,18282.0,906.0
62848.22656155416,0.4599040154207614,106497.0,18320.0,903.0
62848.23655946754,0.4699019288018462,106445.0,18288.0,904.0
62848.24655738092,0.47989984217565507,106469.0,18310.0,906.0
62848.2565552943,0.48989775555673987,106465.0,18317.0,902.0
62848.26655320768,0.49989566893782467,106462.0,18302.0,869.0
62848.27655112105,0.5098935823116335,106477.0,18304.0,877.0
62848.286549034434,0.5198914956927183,106477.0,18302.0,896.0
62848.296546947815,0.5298894090738031,106479.0,18292.0,918.0
62848.30654486119,0.539887322447612,106450.0,18289.0,897.0
62848.31654277457,0.5498852358286968,106477.0,18286.0,913.0
62848.32654068795,0.5598831492097815,106455.0,18304.0,886.0
62848.336538601325,0.5698810625835904,106464.0,18280.0,890.0
62848.346536514706,0.5798789759646752,106504.0,18318.0,900.0
62848.35653442809,0.58987688934576,106457.0,18298.0,887.0
62848.36653234146,0.5998748027195688,106485.0,18303.0,919.0
62848.37653025484,0.6098727161006536,106484.0,18319.0,893.0
62848.38652816822,0.6198706294817384,106474.0,18297.0,904.0
62848.3965260816,0.6298685428555473,106499.0,18337.0,922.0
62848.40652399498,0.6398664562366321,106474.0,18278.0,870.0
62848.41652190836,0.6498643696177169,106505.0,18294.0,891.0
62848.42651982173,0.6598622829915257,106479.0,18308.0,884.0
62848.436517735114,0.6698601963726105,106458.0,18300.0,878.0
62848.446515648495,0.6798581097536953,106516.0,18316.0,865.0
62848.45651356187,0.6898560231275042,106482.0,18304.0,896.0
62848.46651147525,0.699853936508589,106475.0,18301.0,911.0
62848.47650938863,0.7098518498896738,106491.0,18314.0,892.0
62848.486507302005,0.7198497632634826,106486.0,18283.0,909.0
62848.496505215386,0.7298476766445674,106504.0,18314.0,888.0
62848.50650312877,0.7398455900256522,106480.0,18273.0,894.0
62848.51650104214,0.749843503399461,106492.0,18311.0,905.0
62848.52649895552,0.7598414167805458,106472.0,18301.0,886.0
62848.5364968689,0.7698393301616306,106488.0,18303.0,890.0
62848.54649478228,0.7798372435354395,106508.0,18310.0,899.0
62848.55649269566,0.7898351569165243,106501.0,18300.0,857.0
62848.56649060904,0.7998330702976091,106533.0,18327.0,903.0
62848.57648852241,0.8098309836714179,106464.0,18278.0,875.0
62848.58648643579,0.8198288970525027,106491.0,18298.0,889.0
62848.596484349175,0.8298268104335875,106527.0,18327.0,907.0
62848.60648226255,0.8398247238073964,106479.0,18292.0,868.0
62848.61648017593,0.8498226371884812,106507.0,18309.0,885.0
62848.62647808931,0.859820550569566,106514.0,18314.0,881.0
62848.636476002685,0.8698184639433748,106493.0,18301.0,893.0
62848.646473916066,0.8798163773244596,106497.0,18321.0,896.0
62848.65647182945,0.8898142907055444,106514.0,18319.0,881.0
62848.66646974283,0.8998122040866292,106510.0,18281.0,883.0
62848.6764676562,0.909810117460438,106484.0,18266.0,887.0
62848.68646556958,0.9198080308415229,106492.0,18291.0,905.0
62848.696463482964,0.9298059442226076,106512.0,18302.0,898.0
62848.70646139634,0.9398038575964165,106446.0,18336.0,874.0
62848.71645930972,0.9498017709775013,106479.0,18286.0,860.0
62848.7264572231,0.9597996843585861,106493.0,18303.0,892.0
62848.73645513647,0.9697975977323949,106517.0,18303.0,898.0
62848.746453049855,0.9797955111134797,106483.0,18324.0,925.0
62848.756450963236,0.9897934244945645,106481.0,18289.0,874.0
62848.76644887661,0.9997913378683734,106512.0,18321.0,914.0
62848.77644678999,1.0097892512494582,106510.0,18307.0,901.0
62848.78644470337,1.019787164630543,106517.0,18291.0,882.0
62848.796442616745,1.0297850780043518,106515.0,18311.0,900.0
62848.80644053013,1.0397829913854366,106471.0,18298.0,876.0
62848.81643844351,1.0497809047665214,106501.0,18307.0,902.0
62848.82643635688,1.0597788181403303,106509.0,18303.0,926.0
62848.83643427026,1.069776731521415,106467.0,18262.0,874.0
62848.84643218364,1.0797746449024999,106508.0,18314.0,887.0
62848.85643009702,1.0897725582763087,106500.0,18302.0,896.0
62848.8664280104,1.0997704716573935,106476.0,18325.0,901.0
62848.87642592378,1.1097683850384783,106490.0,18320.0,882.0
62848.88642383715,1.1197662984122871,106499.0,18306.0,884.0
62848.896421750535,1.129764211793372,106494.0,18309.0,899.0
62848.906419663916,1.1397621251744567,106501.0,18311.0,871.0
62848.91641757729,1.1497600385482656,106496.0,18291.0,895.0
62848.92641549067,1.1597579519293504,106484.0,18290.0,887.0
62848.93641340405,1.1697558653104352,106495.0,18306.0,892.0
62848.946411317425,1.179753778684244,106500.0,18313.0,910.0
62848.95640923081,1.1897516920653288,106480.0,18276.0,874.0
62848.96640714419,1.1997496054464136,106522.0,18316.0,898.0
62848.97640505756,1.2097475188202225,106511.0,18289.0,906.0
62848.98640297094,1.2197454322013073,106473.0,18333.0,878.0
62848.99640088432,1.229743345582392,106499.0,18324.0,920.0
62849.0063987977,1.239741258956201,106492.0,18274.0,901.0
62849.01639671108,1.2497391723372857,106498.0,18306.0,910.0
62849.02639462446,1.2597370857183705,106483.0,18287.0,890.0
62849.03639253783,1.2697349990921794,106488.0,18310.0,897.0
62849.046390451214,1.2797329124732642,106496.0,18339.0,925.0
62849.056388364595,1.289730825854349,106514.0,18308.0,917.0
62849.06638627797,1.2997287392281578,106502.0,18334.0,894.0
62849.07638419135,1.3097266526092426,106502.0,18304.0,871.0
62849.08638210473,1.3197245659903274,106545.0,18323.0,926.0
62849.096380018105,1.3297224793641362,106490.0,18302.0,886.0
62849.106377931486,1.339720392745221,106506.0,18331.0,893.0
62849.11637584487,1.3497183061263058,106492.0,18293.0,880.0
62849.12637375824,1.3597162195001147,106465.0,18286.0,876.0
62849.13637167162,1.3697141328811995,106517.0,18327.0,881.0
62849.146369585,1.3797120462622843,106514.0,18309.0,900.0
62849.15636749838,1.3897099596360931,106489.0,18286.0,933.0
62849.16636541176,1.399707873017178,106523.0,18317.0,905.0
62849.17636332514,1.4097057863982627,106488.0,18292.0,878.0
62849.18636123851,1.4197036997720716,106511.0,18303.0,894.0
62849.196359151894,1.4297016131531564,106495.0,18288.0,887.0
62849.206357065275,1.4396995265342412,106478.0,18297.0,883.0
62849.21635497865,1.44969743990805,106507.0,18306.0,883.0
62849.22635289203,1.4596953532891348,106505.0,18309.0,895.0
62849.23635080541,1.4696932666702196,106504.0,18289.0,915.0
62849.24634871879,1.4796911800513044,106508.0,18307.0,873.0
62849.256346632166,1.4896890934251132,106522.0,18321.0,922.0
62849.26634454555,1.499687006806198,106514.0,18300.0,891.0
62849.27634245893,1.5096849201872828,106509.0,18282.0,875.0
62849.2863403723,1.5196828335610917,106531.0,18324.0,920.0
62849.29633828568,1.5296807469421765,106508.0,18282.0,894.0
62849.306336199064,1.5396786603232613,106514.0,18295.0,897.0
62849.31633411244,1.5496765736970701,106543.0,18322.0,899.0
62849.32633202582,1.559674487078155,106473.0,18315.0,891.0
62849.3363299392,1.5696724004592397,106534.0,18339.0,907.0
62849.346327852574,1.5796703138330486,106506.0,18309.0,889.0
62849.356325765955,1.5896682272141334,106504.0,18302.0,868.0
62849.366323679336,1.5996661405952182,106518.0,18272.0,897.0
62849.37632159271,1.609664053969027,106509.0,18308.0,881.0
62849.38631950609,1.6196619673501118,106509.0,18317.0,891.0
62849.39631741947,1.6296598807311966,106484.0,18321.0,891.0
62849.406315332846,1.6396577941050055,106505.0,18295.0,876.0
62849.41631324623,1.6496557074860903,106551.0,18316.0,903.0
62849.42631115961,1.659653620867175,106526.0,18305.0,900.0
62849.43630907298,1.669651534240984,106524.0,18318.0,932.0
62849.44630698636,1.6796494476220687,106510.0,18319.0,883.0
62849.456304899744,1.6896473610031535,106536.0,18338.0,920.0
62849.46630281312,1.6996452743769623,106529.0,18307.0,901.0
62849.4763007265,1.7096431877580471,106491.0,18292.0,881.0
62849.48629863988,1.719641101139132,106551.0,18315.0,880.0
62849.496296553254,1.7296390145129408,106499.0,18308.0,880.0
62849.506294466635,1.7396369278940256,106525.0,18347.0,893.0
62849.516292380016,1.7496348412751104,106538.0,18311.0,929.0
62849.52629029339,1.7596327546489192,106513.0,18300.0,873.0
62849.53628820677,1.769630668030004,106561.0,18323.0,905.0
62849.54628612015,1.7796285814110888,106538.0,18315.0,898.0
62849.556284033526,1.7896264947848977,106507.0,18295.0,873.0
62849.56628194691,1.7996244081659825,106487.0,18301.0,888.0
62849.57627986029,1.8096223215470673,106513.0,18325.0,886.0
62849.58627777366,1.819620234920876,106531.0,18311.0,899.0
62849.59627568704,1.829618148301961,106536.0,18311.0,868.0
62849.606273600424,1.8396160616830457,106509.0,18297.0,873.0
62849.6162715138,1.8496139750568545,106531.0,18311.0,887.0
62849.62626942718,1.8596118884379393,106528.0,18312.0,891.0
62849.63626734056,1.8696098018190241,106504.0,18277.0,873.0
62849.646265253934,1.879607715192833,106507.0,18279.0,890.0
62849.656263167315,1.8896056285739178,106528.0,18325.0,909.0
62849.666261080696,1.8996035419550026,106505.0,18302.0,874.0
62849.67625899407,1.9096014553288114,106486.0,18287.0,914.0
62849.68625690745,1.9195993687098962,106534.0,18297.0,915.0
62849.69625482083,1.929597282090981,106481.0,18290.0,897.0
62849.706252734206,1.9395951954647899,106528.0,18308.0,905.0
62849.71625064759,1.9495931088458747,106494.0,18309.0,902.0
62849.72624856097,1.9595910222269595,106508.0,18333.0,902.0
62849.73624647434,1.9695889356007683,106497.0,18329.0,902.0
62849.74624438772,1.979586848981853,106514.0,18306.0,883.0
62849.756242301104,1.989584762362938,106512.0,18311.0,899.0
62849.76624021448,1.9995826757367468,106537.0,18294.0,890.0
62849.77623812786,2.0095805891178316,106493.0,18292.0,917.0
62849.78623604124,2.0195785024989164,106508.0,18302.0,896.0
62849.796233954614,2.029576415872725,106509.0,18333.0,890.0
62849.806231867995,2.03957432925381,106485.0,18284.0,876.0
62849.816229781376,2.049572242634895,106505.0,18277.0,872.0
62849.82622769476,2.0595701560159796,106517.0,18325.0,907.0
62849.83622560813,2.0695680693897884,106514.0,18306.0,891.0
62849.84622352151,2.0795659827708732,106486.0,18312.0,919.0
62849.85622143489,2.089563896151958,106532.0,18312.0,911.0
62849.86621934827,2.099561809525767,106489.0,18292.0,903.0
62849.87621726165,2.1095597229068517,106512.0,18304.0,886.0
62849.88621517503,2.1195576362879365,106530.0,18305.0,929.0
62849.8962130884,2.1295555496617453,106512.0,18302.0,869.0
62849.906211001784,2.13955346304283,106497.0,18298.0,901.0
62849.916208915165,2.149551376423915,106511.0,18307.0,911.0
62849.92620682854,2.1595492897977238,106510.0,18305.0,879.0
62849.93620474192,2.1695472031788086,106528.0,18328.0,870.0
62849.9462026553,2.1795451165598934,106517.0,18318.0,913.0
62849.956200568675,2.189543029933702,106521.0,18307.0,884.0
62849.966198482056,2.199540943314787,106509.0,18304.0,880.0
62849.97619639544,2.209538856695872,106528.0,18303.0,909.0
62849.98619430881,2.2195367700696806,106515.0,18280.0,884.0
62849.99619222219,2.2295346834507654,106515.0,18305.0,896.0
62850.00619013557,2.2395325968318502,106527.0,18328.0,900.0
62850.01618804895,2.249530510205659,106487.0,18316.0,912.0
62850.02618596233,2.259528423586744,106475.0,18299.0,878.0
62850.03618387571,2.2695263369678287,106503.0,18285.0,873.0
62850.04618178908,2.2795242503416375,106493.0,18302.0,885.0
62850.056179702464,2.2895221637227223,106521.0,18316.0,913.0
62850.066177615845,2.299520077103807,106498.0,18302.0,890.0
62850.07617552922,2.309517990477616,106511.0,18311.0,894.0
62850.0861734426,2.3195159038587008,106530.0,18316.0,907.0
62850.09617135598,2.3295138172397856,106511.0,18305.0,877.0
62850.106169269355,2.3395117306135944,106522.0,18328.0,901.0
62850.116167182736,2.349509643994679,106510.0,18320.0,897.0
62850.12616509612,2.359507557375764,106511.0,18310.0,897.0
62850.13616300949,2.369505470749573,106537.0,18340.0,917.0
62850.14616092287,2.3795033841306577,106531.0,18303.0,924.0
62850.15615883625,2.3895012975117425,106530.0,18308.0,891.0
62850.16615674963,2.3994992108855513,106540.0,18303.0,896.0
62850.17615466301,2.409497124266636,106538.0,18333.0,917.0
62850.18615257639,2.419495037647721,106502.0,18309.0,864.0
62850.19615048976,2.4294929510215297,106537.0,18309.0,887.0
62850.206148403144,2.4394908644026145,106558.0,18300.0,889.0
62850.216146316525,2.4494887777836993,106540.0,18325.0,883.0
62850.2261442299,2.459486691157508,106548.0,18316.0,924.0
62850.23614214328,2.469484604538593,106534.0,18313.0,893.0
62850.24614005666,2.4794825179196778,106525.0,18317.0,878.0
62850.256137970035,2.4894804312934866,106530.0,18320.0,914.0
62850.266135883416,2.4994783446745714,106520.0,18304.0,869.0
62850.2761337968,2.509476258055656,106530.0,18299.0,903.0
62850.28613171017,2.519474171429465,106500.0,18302.0,885.0
62850.29612962355,2.52947208481055,106510.0,18294.0,919.0
62850.30612753693,2.5394699981916347,106543.0,18337.0,912.0
62850.31612545031,2.5494679115654435,106518.0,18308.0,906.0
62850.32612336369,2.5594658249465283,106508.0,18287.0,891.0
62850.33612127707,2.569463738327613,106571.0,18326.0,914.0
62850.34611919044,2.579461651701422,106533.0,18326.0,924.0
62850.35611710382,2.5894595650825067,106522.0,18299.0,886.0
62850.366115017205,2.5994574784635915,106525.0,18293.0,913.0
62850.37611293058,2.6094553918374004,106557.0,18305.0,920.0
62850.38611084396,2.619453305218485,106539.0,18310.0,871.0
62850.39610875734,2.62945121859957,106537.0,18304.0,900.0
62850.40610667072,2.639449131980655,106531.0,18270.0,892.0
62850.416104584096,2.6494470453544636,106539.0,18327.0,889.0
62850.42610249748,2.6594449587355484,106546.0,18319.0,918.0
62850.43610041086,2.6694428721166332,106486.0,18296.0,845.0
62850.44609832423,2.679440785490442,106536.0,18291.0,888.0
62850.45609623761,2.689438698871527,106519.0,18304.0,889.0
62850.466094150994,2.6994366122526117,106563.0,18320.0,911.0
62850.47609206437,2.7094345256264205,106523.0,18314.0,890.0
62850.48608997775,2.7194324390075053,106527.0,18307.0,893.0
62850.49608789113,2.72943035238859,106522.0,18302.0,872.0
62850.5060858045,2.739428265762399,106496.0,18289.0,886.0
62850.516083717885,2.7494261791434838,106495.0,18289.0,886.0
62850.526081631266,2.7594240925245686,106510.0,18310.0,884.0
62850.53607954464,2.7694220058983774,106514.0,18305.0,889.0
62850.54607745802,2.779419919279462,106502.0,18314.0,877.0
62850.5560753714,2.789417832660547,106495.0,18279.0,892.0
62850.566073284775,2.799415746034356,106528.0,18281.0,899.0
62850.57607119816,2.8094136594154406,106495.0,18289.0,933.0
62850.58606911154,2.8194115727965254,106513.0,18294.0,893.0
62850.59606702491,2.8294094861703343,106509.0,18324.0,885.0
62850.60606493829,2.839407399551419,106519.0,18314.0,900.0
62850.61606285167,2.849405312932504,106497.0,18306.0,893.0
62850.62606076505,2.8594032263063127,106496.0,18314.0,890.0
62850.63605867843,2.8694011396873975,106501.0,18332.0,889.0
62850.64605659181,2.8793990530684823,106518.0,18306.0,889.0
62850.65605450518,2.889396966442291,106504.0,18314.0,878.0
62850.666052418565,2.899394879823376,106479.0,18333.0,904.0
62850.676050331946,2.9093927932044608,106489.0,18310.0,876.0
62850.68604824532,2.9193907065782696,106522.0,18313.0,898.0
62850.6960461587,2.9293886199593544,106469.0,18306.0,860.0
62850.70604407208,2.939386533340439,106490.0,18315.0,868.0
62850.716041985455,2.949384446714248,106486.0,18293.0,885.0
62850.72603989884,2.959382360095333,106518.0,18311.0,898.0
62850.73603781222,2.9693802734764176,106527.0,18325.0,899.0
62850.74603572559,2.9793781868502265,106522.0,18278.0,890.0
62850.75603363897,2.9893761002313113,106481.0,18277.0,874.0
62850.76603155235,2.999374013612396,106511.0,18304.0,898.0
62850.77602946573,3.009371926986205,106484.0,18326.0,907.0
62850.78602737911,3.0193698403672897,106494.0,18306.0,878.0
62850.79602529249,3.0293677537483745,106503.0,18308.0,873.0
62850.80602320586,3.0393656671221834,106517.0,18310.0,891.0
62850.816021119244,3.049363580503268,106465.0,18307.0,889.0
62850.826019032625,3.059361493884353,106509.0,18308.0,912.0
62850.836016946,3.069359407258162,106484.0,18310.0,874.0
62850.84601485938,3.0793573206392466,106510.0,18307.0,894.0
62850.85601277276,3.0893552340203314,106518.0,18305.0,880.0
62850.866010686135,3.0993531473941403,106539.0,18333.0,863.0
62850.876008599516,3.109351060775225,106521.0,18330.0,905.0
62850.8860065129,3.11934897415631,106524.0,18305.0,891.0
62850.89600442627,3.1293468875301187,106531.0,18318.0,913.0
62850.90600233965,3.1393448009112035,106527.0,18287.0,918.0
62850.91600025303,3.1493427142922883,106510.0,18287.0,888.0
62850.92599816641,3.159340627666097,106517.0,18298.0,882.0
62850.93599607979,3.169338541047182,106533.0,18311.0,911.0
62850.94599399317,3.1793364544282667,106481.0,18316.0,895.0
62850.95599190654,3.1893343678020756,106500.0,18314.0,906.0
62850.965989819924,3.1993322811831604,106531.0,18331.0,890.0
62850.975987733305,3.209330194564245,106517.0,18304.0,859.0
62850.98598564669,3.21932810794533,106472.0,18313.0,873.0
62850.99598356006,3.229326021319139,106494.0,18317.0,886.0
62851.00598147344,3.2393239347002236,106517.0,18313.0,897.0
62851.01597938682,3.2493218480813084,106538.0,18302.0,883.0
62851.025977300196,3.2593197614551173,106522.0,18291.0,882.0
62851.03597521358,3.269317674836202,106529.0,18306.0,920.0
62851.04597312696,3.279315588217287,106534.0,18303.0,871.0
62851.05597104033,3.2893135015910957,106491.0,18302.0,910.0
62851.06596895371,3.2993114149721805,106521.0,18335.0,910.0
62851.075966867094,3.3093093283532653,106495.0,18284.0,892.0
62851.08596478047,3.319307241727074,106525.0,18304.0,893.0
62851.09596269385,3.329305155108159,106472.0,18294.0,880.0
62851.10596060723,3.3393030684892437,106500.0,18302.0,882.0
62851.115958520604,3.3493009818630526,106498.0,18283.0,899.0
62851.125956433985,3.3592988952441374,106502.0,18309.0,891.0
62851.135954347366,3.369296808625222,106521.0,18311.0,894.0
62851.14595226074,3.379294721999031,106552.0,18333.0,863.0
62851.15595017412,3.389292635380116,106518.0,18290.0,878.0
62851.1659480875,3.3992905487612006,106535.0,18312.0,884.0
62851.175946000876,3.4092884621350095,106523.0,18314.0,895.0
62851.18594391426,3.4192863755160943,106548.0,18291.0,901.0
62851.19594182764,3.429284288897179,106527.0,18278.0,881.0
62851.20593974101,3.439282202270988,106512.0,18276.0,877.0
62851.21593765439,3.4492801156520727,106531.0,18309.0,892.0
62851.225935567774,3.4592780290331575,106526.0,18323.0,914.0
62851.23593348115,3.4692759424069664,106507.0,18280.0,874.0
62851.24593139453,3.479273855788051,106502.0,18284.0,877.0
62851.25592930791,3.489271769169136,106523.0,18308.0,891.0
62851.265927221284,3.499269682542945,106518.0,18296.0,911.0
62851.275925134665,3.5092675959240296,106492.0,18286.0,875.0
62851.285923048046,3.5192655093051144,106519.0,18343.0,916.0
62851.29592096142,3.5292634226789232,106533.0,18324.0,884.0
62851.3059188748,3.539261336060008,106534.0,18305.0,878.0
62851.31591678818,3.549259249441093,106520.0,18309.0,900.0
62851.325914701556,3.5592571628149017,106523.0,18293.0,878.0
62851.33591261494,3.5692550761959865,106531.0,18312.0,889.0
62851.34591052832,3.5792529895770713,106533.0,18307.0,890.0
62851.35590844169,3.58925090295088,106528.0,18310.0,914.0
62851.36590635507,3.599248816331965,106516.0,18280.0,886.0
62851.375904268454,3.6092467297130497,106512.0,18312.0,889.0
62851.38590218183,3.6192446430868586,106514.0,18319.0,908.0
62851.39590009521,3.6292425564679434,106495.0,18311.0,885.0
62851.40589800859,3.639240469849028,106534.0,18300.0,917.0
62851.415895921964,3.649238383222837,106512.0,18317.0,891.0
62851.425893835345,3.659236296603922,106488.0,18306.0,879.0
62851.435891748726,3.6692342099850066,106457.0,18316.0,891.0
62851.4458896621,3.6792321233588154,106470.0,18286.0,869.0
62851.45588757548,3.6892300367399002,106491.0,18316.0,898.0
62851.46588548886,3.699227950120985,106474.0,18335.0,906.0
62851.475883402236,3.709225863494794,106473.0,18324.0,883.0
62851.48588131562,3.7192237768758787,106502.0,18306.0,889.0
62851.495879229,3.7292216902569635,106468.0,18297.0,873.0
62851.50587714237,3.7392196036307723,106483.0,18292.0,892.0
62851.51587505575,3.749217517011857,106497.0,18322.0,905.0
62851.525872969134,3.759215430392942,106483.0,18265.0,889.0
62851.53587088251,3.7692133437667508,106496.0,18305.0,892.0
62851.54586879589,3.7792112571478356,106497.0,18288.0,944.0
62851.55586670927,3.7892091705289204,106481.0,18284.0,911.0
62851.56586462265,3.799207083910005,106477.0,18321.0,891.0
62851.575862536025,3.809204997283814,106498.0,18310.0,895.0
62851.585860449406,3.819202910664899,106483.0,18299.0,889.0
62851.59585836279,3.8292008240459836,106534.0,18327.0,869.0
62851.60585627616,3.8391987374197925,106479.0,18311.0,903.0
62851.61585418954,3.8491966508008773,106507.0,18317.0,878.0
62851.62585210292,3.859194564181962,106522.0,18327.0,872.0
62851.6358500163,3.869192477555771,106495.0,18297.0,916.0
62851.64584792968,3.8791903909368557,106457.0,18263.0,873.0
62851.65584584306,3.8891883043179405,106496.0,18311.0,901.0
62851.66584375643,3.8991862176917493,106517.0,18317.0,904.0
62851.675841669814,3.909184131072834,106482.0,18298.0,866.0
62851.685839583195,3.919182044453919,106511.0,18320.0,916.0
62851.69583749657,3.9291799578277278,106500.0,18309.0,887.0
62851.70583540995,3.9391778712088126,106468.0,18288.0,885.0
62851.71583332333,3.9491757845898974,106513.0,18310.0,900.0
62851.725831236705,3.959173697963706,106461.0,18291.0,881.0
62851.735829150086,3.969171611344791,106489.0,18304.0,894.0
62851.74582706347,3.979169524725876,106476.0,18285.0,893.0
62851.75582497684,3.9891674380996847,106475.0,18297.0,888.0
62851.76582289022,3.9991653514807695,106491.0,18326.0,872.0
62851.7758208036,4.009163264861854,106481.0,18306.0,906.0
62851.78581871698,4.019161178235663,106470.0,18320.0,896.0
62851.79581663036,4.029159091616748,106491.0,18294.0,881.0
62851.80581454374,4.039157004997833,106506.0,18315.0,906.0
62851.81581245711,4.0491549183716415,106493.0,18304.0,880.0
62851.825810370494,4.059152831752726,106490.0,18279.0,899.0
62851.835808283875,4.069150745133811,106522.0,18309.0,907.0
62851.84580619725,4.07914865850762,106503.0,18314.0,910.0
62851.85580411063,4.089146571888705,106510.0,18308.0,918.0
62851.86580202401,4.09914448526979,106506.0,18323.0,903.0
62851.875799937385,4.109142398643598,106499.0,18307.0,872.0
62851.885797850766,4.119140312024683,106524.0,18316.0,915.0
62851.89579576415,4.129138225405768,106489.0,18284.0,897.0
62851.90579367752,4.139136138779577,106484.0,18302.0,900.0
62851.9157915909,4.149134052160662,106498.0,18310.0,896.0
62851.92578950428,4.1591319655417465,106467.0,18285.0,872.0
62851.93578741766,4.169129878915555,106513.0,18327.0,875.0
62851.94578533104,4.17912779229664,106497.0,18307.0,893.0
62851.95578324442,4.189125705677725,106496.0,18296.0,888.0
62851.96578115779,4.199123619051534,106498.0,18328.0,897.0
62851.975779071174,4.2091215324326186,106508.0,18299.0,905.0
62851.985776984555,4.219119445813703,106499.0,18304.0,898.0
62851.99577489793,4.229117359187512,106494.0,18287.0,891.0
62852.00577281131,4.239115272568597,106506.0,18333.0,905.0
62852.01577072469,4.249113185949682,106482.0,18303.0,880.0
62852.025768638065,4.259111099323491,106517.0,18326.0,911.0
62852.035766551446,4.269109012704575,106523.0,18288.0,915.0
62852.04576446483,4.27910692608566,106519.0,18320.0,889.0
62852.0557623782,4.289104839459469,106514.0,18330.0,905.0
62852.06576029158,4.299102752840554,106508.0,18313.0,887.0
62852.07575820496,4.309100666221639,106471.0,18307.0,870.0
62852.08575611834,4.3190985795954475,106509.0,18320.0,922.0
62852.09575403172,4.329096492976532,106474.0,18301.0,891.0
62852.1057519451,4.339094406357617,106498.0,18311.0,903.0
62852.11574985847,4.349092319731426,106514.0,18305.0,873.0
62852.125747771854,4.359090233112511,106479.0,18296.0,872.0
62852.135745685235,4.369088146493596,106502.0,18325.0,900.0
62852.145743598616,4.37908605987468,106518.0,18305.0,902.0
62852.15574151199,4.389083973248489,106451.0,18256.0,879.0
62852.16573942537,4.399081886629574,106518.0,18293.0,888.0
62852.17573733875,4.409079800010659,106486.0,18290.0,909.0
62852.185735252126,4.419077713384468,106495.0,18300.0,881.0
62852.19573316551,4.429075626765552,106467.0,18323.0,891.0
62852.20573107889,4.439073540146637,106479.0,18306.0,878.0
62852.21572899226,4.449071453520446,106503.0,18287.0,883.0
62852.22572690564,4.459069366901531,106503.0,18311.0,884.0
62852.235724819024,4.469067280282616,106481.0,18300.0,899.0
62852.2457227324,4.4790651936564245,106498.0,18324.0,891.0
62852.25572064578,4.489063107037509,106496.0,18333.0,926.0
62852.26571855916,4.499061020418594,106490.0,18310.0,906.0
62852.27571647253,4.509058933792403,106469.0,18287.0,874.0
62852.285714385915,4.519056847173488,106500.0,18324.0,890.0
62852.295712299296,4.529054760554573,106461.0,18280.0,884.0
62852.30571021267,4.539052673928381,106468.0,18298.0,890.0
62852.31570812605,4.549050587309466,106479.0,18316.0,907.0
62852.32570603943,4.559048500690551,106473.0,18293.0,881.0
62852.335703952805,4.56904641406436,106501.0,18309.0,890.0
62852.34570186619,4.579044327445445,106483.0,18301.0,901.0
62852.35569977957,4.5890422408265295,106457.0,18307.0,874.0
62852.36569769294,4.599040154200338,106460.0,18333.0,877.0
62852.37569560632,4.609038067581423,106492.0,18307.0,899.0
62852.3856935197,4.619035980962508,106477.0,18314.0,886.0
62852.39569143308,4.629033894336317,106466.0,18296.0,861.0
62852.40568934646,4.6390318077174015,106464.0,18310.0,915.0
62852.41568725984,4.649029721098486,106438.0,18282.0,870.0
62852.42568517321,4.659027634472295,106466.0,18315.0,882.0
62852.435683086595,4.66902554785338,106467.0,18287.0,901.0
62852.445680999976,4.679023461234465,106432.0,18272.0,875.0
62852.45567891335,4.689021374608274,106505.0,18326.0,914.0
62852.46567682673,4.699019287989358,106471.0,18301.0,883.0
62852.47567474011,4.709017201370443,106460.0,18291.0,905.0
62852.485672653485,4.719015114744252,106501.0,18309.0,907.0
62852.49567056687,4.729013028125337,106462.0,18289.0,905.0
62852.50566848025,4.739010941506422,106471.0,18307.0,897.0
62852.51566639362,4.7490088548802305,106472.0,18286.0,890.0
62852.525664307,4.759006768261315,106444.0,18280.0,895.0
62852.53566222038,4.7690046816424,106488.0,18314.0,914.0
62852.54566013376,4.779002595016209,106445.0,18300.0,874.0
62852.55565804714,4.789000508397294,106476.0,18288.0,863.0
62852.56565596052,4.7989984217783785,106485.0,18307.0,863.0
62852.57565387389,4.808996335152187,106484.0,18308.0,903.0
62852.585651787274,4.818994248533272,106469.0,18300.0,889.0
62852.595649700655,4.828992161914357,106473.0,18305.0,885.0
62852.60564761403,4.838990075288166,106492.0,18296.0,896.0
62852.61564552741,4.848987988669251,106451.0,18301.0,869.0
62852.62564344079,4.858985902050335,106478.0,18295.0,902.0
62852.635641354165,4.868983815424144,106482.0,18300.0,896.0
62852.645639267546,4.878981728805229,106437.0,18300.0,871.0
62852.65563718093,4.888979642186314,106499.0,18326.0,902.0
62852.6656350943,4.898977555560123,106452.0,18299.0,900.0
62852.67563300768,4.9089754689412075,106480.0,18314.0,892.0
62852.68563092106,4.918973382322292,106500.0,18341.0,896.0
62852.69562883444,4.928971295696101,106437.0,18282.0,883.0
62852.70562674782,4.938969209077186,106437.0,18322.0,855.0
62852.7156246612,4.948967122458271,106470.0,18298.0,908.0
62852.72562257458,4.9589650358393556,106508.0,18299.0,872.0
62852.735620487954,4.968962949213164,106492.0,18320.0,864.0
62852.745618401335,4.978960862594249,106481.0,18283.0,881.0
62852.75561631472,4.988958775975334,106485.0,18304.0,892.0
62852.76561422809,4.998956689349143,106486.0,18310.0,918.0
62852.77561214147,5.008954602730228,106476.0,18332.0,914.0
62852.78561005485,5.018952516111312,106454.0,18292.0,874.0
62852.795607968226,5.028950429485121,106486.0,18310.0,888.0
62852.80560588161,5.038948342866206,106493.0,18308.0,869.0
62852.81560379499,5.048946256247291,106502.0,18292.0,916.0
62852.82560170836,5.0589441696211,106487.0,18316.0,912.0
62852.83559962174,5.0689420830021845,106463.0,18296.0,892.0
62852.845597535124,5.078939996383269,106477.0,18307.0,883.0
62852.8555954485,5.088937909757078,106483.0,18275.0,890.0
62852.86559336188,5.098935823138163,106493.0,18326.0,904.0
62852.87559127526,5.108933736519248,106487.0,18302.0,899.0
62852.885589188634,5.118931649893057,106464.0,18327.0,912.0
62852.895587102015,5.128929563274141,106460.0,18306.0,868.0
62852.905585015396,5.138927476655226,106486.0,18308.0,852.0
62852.91558292877,5.148925390029035,106494.0,18303.0,895.0
62852.92558084215,5.15892330341012,106488.0,18312.0,911.0
62852.93557875553,5.168921216791205,106472.0,18319.0,894.0
62852.945576668906,5.1789191301650135,106470.0,18295.0,891.0
62852.95557458229,5.188917043546098,106457.0,18277.0,881.0
62852.96557249567,5.198914956927183,106464.0,18280.0,882.0
62852.97557040904,5.208912870300992,106475.0,18304.0,891.0
62852.98556832242,5.218910783682077,106502.0,18330.0,916.0
62852.995566235804,5.2289086970631615,106486.0,18311.0,889.0
62853.00556414918,5.23890661043697,106511.0,18304.0,913.0
62853.01556206256,5.248904523818055,106473.0,18280.0,893.0
62853.02555997594,5.25890243719914,106517.0,18327.0,888.0
62853.035557889314,5.268900350572949,106497.0,18308.0,891.0
62853.045555802695,5.278898263954034,106467.0,18325.0,890.0
62853.055553716076,5.288896177335118,106467.0,18328.0,887.0
62853.06555162945,5.298894090708927,106457.0,18284.0,879.0
62853.07554954283,5.308892004090012,106486.0,18310.0,892.0
62853.08554745621,5.318889917471097,106499.0,18281.0,891.0
62853.095545369586,5.328887830844906,106497.0,18296.0,894.0
62853.10554328297,5.3388857442259905,106478.0,18291.0,888.0
62853.11554119635,5.348883657607075,106489.0,18311.0,882.0
62853.12553910972,5.358881570980884,106499.0,18338.0,890.0
62853.1355370231,5.368879484361969,106453.0,18289.0,874.0
62853.145534936484,5.378877397743054,106494.0,18327.0,872.0
62853.15553284986,5.388875311116863,106470.0,18314.0,869.0
62853.16553076324,5.398873224497947,106460.0,18293.0,906.0
62853.17552867662,5.408871137879032,106463.0,18321.0,882.0
62853.185526589994,5.418869051252841,106467.0,18315.0,863.0
62853.195524503375,5.428866964633926,106465.0,18306.0,904.0
62853.205522416756,5.438864878015011,106455.0,18325.0,886.0
62853.21552033013,5.4488627913888195,106402.0,18293.0,863.0
62853.22551824351,5.458860704769904,106431.0,18318.0,899.0
62853.23551615689,5.468858618150989,106430.0,18298.0,881.0
62853.245514070266,5.478856531524798,106451.0,18294.0,896.0
62853.25551198365,5.488854444905883,106470.0,18307.0,890.0
62853.26550989703,5.4988523582869675,106469.0,18280.0,874.0
62853.2755078104,5.508850271660776,106459.0,18296.0,896.0
62853.28550572378,5.518848185041861,106455.0,18305.0,899.0
62853.295503637164,5.528846098422946,106449.0,18297.0,896.0
62853.305501550545,5.538844011804031,106430.0,18295.0,859.0
62853.31549946392,5.54884192517784,106480.0,18330.0,871.0
62853.3254973773,5.558839838558924,106457.0,18310.0,895.0
62853.33549529068,5.568837751940009,106450.0,18281.0,900.0
62853.345493204055,5.578835665313818,106449.0,18331.0,909.0
62853.355491117436,5.588833578694903,106416.0,18267.0,910.0
62853.36548903082,5.598831492075988,106453.0,18302.0,894.0
62853.37548694419,5.6088294054497965,106442.0,18298.0,904.0
62853.38548485757,5.618827318830881,106424.0,18278.0,875.0
62853.39548277095,5.628825232211966,106440.0,18320.0,907.0
62853.40548068433,5.638823145585775,106459.0,18304.0,892.0
62853.41547859771,5.64882105896686,106481.0,18296.0,909.0
62853.42547651109,5.6588189723479445,106456.0,18296.0,869.0
62853.43547442446,5.668816885721753,106471.0,18310.0,906.0
62853.445472337844,5.678814799102838,106448.0,18305.0,888.0
62853.455470251225,5.688812712483923,106444.0,18294.0,881.0
62853.4654681646,5.698810625857732,106496.0,18329.0,907.0
62853.47546607798,5.708808539238817,106447.0,18279.0,874.0
62853.48546399136,5.718806452619901,106438.0,18299.0,885.0
62853.495461904735,5.72880436599371,106436.0,18302.0,890.0
62853.505459818116,5.738802279374795,106419.0,18299.0,869.0
62853.5154577315,5.74880019275588,106456.0,18300.0,860.0
62853.52545564487,5.758798106129689,106459.0,18291.0,898.0
62853.53545355825,5.7687960195107735,106437.0,18297.0,889.0
62853.54545147163,5.778793932891858,106460.0,18272.0,893.0
62853.55544938501,5.788791846265667,106444.0,18304.0,905.0
62853.56544729839,5.798789759646752,106459.0,18298.0,890.0
62853.57544521177,5.808787673027837,106492.0,18329.0,885.0
62853.58544312514,5.818785586401646,106479.0,18303.0,914.0
62853.595441038524,5.82878349978273,106480.0,18317.0,923.0
62853.605438951905,5.838781413163815,106457.0,18298.0,884.0
62853.61543686528,5.848779326537624,106436.0,18290.0,918.0
62853.62543477866,5.858777239918709,106454.0,18287.0,884.0
62853.63543269204,5.868775153299794,106452.0,18318.0,921.0
62853.645430605415,5.878773066673602,106474.0,18290.0,888.0
62853.655428518796,5.888770980054687,106460.0,18292.0,882.0
62853.66542643218,5.898768893435772,106484.0,18315.0,894.0
62853.67542434555,5.908766806809581,106451.0,18295.0,879.0
62853.68542225893,5.918764720190666,106468.0,18300.0,889.0
62853.69542017231,5.9287626335717505,106459.0,18304.0,875.0
62853.70541808569,5.938760546945559,106465.0,18273.0,895.0
62853.71541599907,5.948758460326644,106451.0,18309.0,885.0
62853.72541391245,5.958756373707729,106463.0,18306.0,904.0
62853.73541182582,5.968754287081538,106479.0,18323.0,911.0
62853.745409739204,5.978752200462623,106489.0,18344.0,891.0
62853.755407652585,5.988750113843707,106480.0,18306.0,928.0
62853.76540556596,5.998748027217516,106465.0,18288.0,898.0
62853.77540347934,6.008745940598601,106484.0,18320.0,865.0
62853.78540139272,6.018743853979686,106490.0,18314.0,901.0
62853.795399306095,6.028741767353495,106500.0,18329.0,919.0
62853.805397219476,6.0387396807345795,106482.0,18306.0,891.0
62853.81539513286,6.048737594115664,106427.0,18298.0,904.0
62853.82539304623,6.058735507489473,106482.0,18323.0,919.0
62853.83539095961,6.068733420870558,106493.0,18315.0,911.0
62853.84538887299,6.078731334251643,106465.0,18297.0,911.0
62853.85538678637,6.0887292476254515,106458.0,18301.0,888.0
62853.86538469975,6.098727161006536,106489.0,18301.0,902.0
62853.87538261313,6.108725074387621,106461.0,18279.0,891.0
62853.8853805265,6.11872298776143,106444.0,18305.0,901.0
62853.895378439884,6.128720901142515,106488.0,18294.0,918.0
62853.905376353265,6.1387188145236,106449.0,18284.0,886.0
62853.915374266646,6.148716727904684,106456.0,18297.0,885.0
62853.92537218002,6.158714641278493,106488.0,18297.0,911.0
62853.9353700934,6.168712554659578,106471.0,18309.0,896.0
62853.94536800678,6.178710468040663,106471.0,18271.0,874.0
62853.955365920156,6.188708381414472,106464.0,18265.0,875.0
62853.96536383354,6.1987062947955565,106446.0,18292.0,889.0
62853.97536174692,6.208704208176641,106482.0,18308.0,884.0
62853.98535966029,6.21870212155045,106473.0,18291.0,877.0
62853.99535757367,6.228700034931535,106501.0,18303.0,900.0
62854.005355487054,6.23869794831262,106469.0,18311.0,870.0
62854.01535340043,6.2486958616864285,106495.0,18290.0,900.0
62854.02535131381,6.258693775067513,106458.0,18319.0,932.0
62854.03534922719,6.268691688448598,106468.0,18304.0,893.0
62854.04534714056,6.278689601822407,106475.0,18293.0,917.0
62854.055345053945,6.288687515203492,106470.0,18309.0,890.0
62854.065342967326,6.298685428584577,106453.0,18327.0,913.0
62854.0753408807,6.308683341958385,106432.0,18282.0,876.0
62854.08533879408,6.31868125533947,106437.0,18286.0,877.0
62854.09533670746,6.328679168720555,106457.0,18303.0,893.0
62854.105334620835,6.338677082094364,106468.0,18303.0,856.0
62854.11533253422,6.348674995475449,106462.0,18288.0,873.0
62854.1253304476,6.3586729088565335,106429.0,18275.0,879.0
62854.13532836097,6.368670822230342,106453.0,18311.0,898.0
62854.14532627435,6.378668735611427,106459.0,18310.0,884.0
62854.155324187734,6.388666648992512,106415.0,18304.0,882.0
62854.16532210111,6.398664562366321,106458.0,18321.0,925.0
62854.17532001449,6.4086624757474056,106450.0,18306.0,894.0
62854.18531792787,6.41866038912849,106452.0,18322.0,917.0
62854.19531584124,6.428658302502299,106443.0,18323.0,907.0
62854.205313754625,6.438656215883384,106428.0,18277.0,865.0
62854.215311668006,6.448654129264469,106457.0,18307.0,886.0
62854.22530958138,6.458652042638278,106433.0,18317.0,898.0
62854.23530749476,6.468649956019362,106432.0,18295.0,868.0
62854.24530540814,6.478647869400447,106464.0,18330.0,877.0
62854.255303321515,6.488645782774256,106459.0,18306.0,894.0
62854.2653012349,6.498643696155341,106442.0,18301.0,879.0
62854.27529914828,6.508641609536426,106476.0,18315.0,873.0
62854.28529706165,6.5186395229102345,106427.0,18287.0,886.0
62854.29529497503,6.528637436291319,106447.0,18306.0,884.0
62854.30529288841,6.538635349672404,106429.0,18292.0,921.0
62854.31529080179,6.548633263046213,106467.0,18282.0,906.0
62854.32528871517,6.558631176427298,106411.0,18301.0,879.0
62854.33528662855,6.568629089808383,106456.0,18308.0,890.0
62854.34528454192,6.578627003182191,106473.0,18291.0,908.0
62854.355282455304,6.588624916563276,106435.0,18314.0,884.0
62854.365280368685,6.598622829944361,106462.0,18313.0,918.0
62854.37527828206,6.60862074331817,106449.0,18304.0,888.0
62854.38527619544,6.618618656699255,106494.0,18308.0,922.0
62854.39527410882,6.628616570080339,106462.0,18295.0,916.0
62854.405272022195,6.638614483454148,106434.0,18285.0,871.0
62854.415269935576,6.648612396835233,106466.0,18326.0,910.0
62854.42526784896,6.658610310216318,106470.0,18314.0,864.0
62854.43526576233,6.668608223590127,106450.0,18290.0,865.0
62854.44526367571,6.6786061369712115,106476.0,18331.0,914.0
62854.45526158909,6.688604050352296,106454.0,18310.0,886.0
62854.46525950247,6.698601963726105,106477.0,18316.0,906.0
62854.47525741585,6.70859987710719,106474.0,18289.0,901.0
62854.48525532923,6.718597790488275,106466.0,18330.0,899.0
62854.49525324261,6.72859570386936,106460.0,18303.0,881.0
62854.505251155984,6.738593617243168,106450.0,18284.0,887.0
62854.515249069365,6.748591530624253,106468.0,18283.0,884.0
62854.52524698275,6.758589444005338,106474.0,18320.0,913.0
62854.53524489612,6.768587357379147,106450.0,18299.0,897.0
62854.5452428095,6.778585270760232,106435.0,18310.0,875.0
62854.55524072288,6.7885831841413165,106438.0,18295.0,889.0
62854.565238636256,6.798581097515125,106472.0,18324.0,908.0
62854.57523654964,6.80857901089621,106460.0,18307.0,918.0
62854.58523446302,6.818576924277295,106470.0,18315.0,893.0
62854.59523237639,6.828574837651104,106478.0,18293.0,894.0
62854.60523028977,6.8385727510321885,106444.0,18290.0,871.0
62854.615228203154,6.848570664413273,106481.0,18301.0,901.0
62854.62522611653,6.858568577787082,106466.0,18325.0,894.0
62854.63522402991,6.868566491168167,106462.0,18289.0,885.0
62854.64522194329,6.878564404549252,106482.0,18321.0,885.0
62854.655219856664,6.888562317923061,106446.0,18288.0,871.0
62854.665217770045,6.898560231304145,106458.0,18315.0,887.0
62854.675215683426,6.90855814468523,106423.0,18284.0,878.0
62854.6852135968,6.918556058059039,106441.0,18311.0,878.0
62854.69521151018,6.928553971440124,106425.0,18294.0,890.0
62854.70520942356,6.938551884821209,106457.0,18306.0,908.0
62854.715207336936,6.9485497981950175,106439.0,18304.0,882.0
62854.72520525032,6.958547711576102,106467.0,18310.0,891.0
62854.7352031637,6.968545624957187,106491.0,18300.0,923.0
62854.74520107707,6.978543538330996,106472.0,18307.0,889.0
62854.75519899045,6.988541451712081,106462.0,18286.0,892.0
62854.765196903834,6.9985393650931655,106450.0,18308.0,912.0
62854.77519481721,7.008537278466974,106461.0,18283.0,874.0
62854.78519273059,7.018535191848059,106472.0,18298.0,890.0
62854.79519064397,7.028533105229144,106471.0,18303.0,906.0
62854.805188557344,7.038531018602953,106489.0,18328.0,874.0
62854.815186470725,7.048528931984038,106491.0,18283.0,938.0
62854.825184384106,7.058526845365122,106451.0,18315.0,893.0
62854.83518229748,7.068524758738931,106440.0,18300.0,868.0
62854.84518021086,7.078522672120016,106473.0,18333.0,907.0
62854.85517812424,7.088520585501101,106442.0,18320.0,876.0
62854.865176037616,7.09851849887491,106480.0,18299.0,892.0
62854.875173951,7.1085164122559945,106487.0,18343.0,875.0
62854.88517186438,7.118514325637079,106473.0,18283.0,874.0
62854.89516977775,7.128512239010888,106483.0,18316.0,908.0
62854.90516769113,7.138510152391973,106473.0,18312.0,886.0
62854.915165604514,7.148508065773058,106465.0,18281.0,887.0
62854.92516351789,7.158505979146867,106479.0,18296.0,893.0
62854.93516143127,7.168503892527951,106464.0,18308.0,901.0
62854.94515934465,7.178501805909036,106441.0,18301.0,877.0
62854.955157258024,7.188499719282845,106413.0,18301.0,898.0
62854.965155171405,7.19849763266393,106462.0,18292.0,896.0
62854.975153084786,7.208495546045015,106439.0,18297.0,891.0
62854.98515099816,7.2184934594188235,106452.0,18306.0,890.0
62854.99514891154,7.228491372799908,106444.0,18306.0,888.0
62855.00514682492,7.238489286180993,106462.0,18307.0,927.0
62855.015144738296,7.248487199554802,106461.0,18308.0,911.0
62855.02514265168,7.258485112935887,106449.0,18306.0,894.0
62855.03514056506,7.2684830263169715,106455.0,18284.0,874.0
62855.04513847843,7.27848093969078,106468.0,18311.0,891.0
62855.05513639181,7.288478853071865,106445.0,18291.0,874.0
62855.065134305194,7.29847676645295,106460.0,18305.0,892.0
62855.075132218575,7.308474679834035,106441.0,18308.0,910.0
62855.08513013195,7.318472593207844,106442.0,18295.0,871.0
62855.09512804533,7.328470506588928,106466.0,18293.0,912.0
62855.10512595871,7.338468419970013,106442.0,18312.0,894.0
62855.115123872085,7.348466333343822,106407.0,18309.0,890.0
62855.125121785466,7.358464246724907,106416.0,18312.0,899.0
62855.13511969885,7.368462160105992,106451.0,18308.0,896.0
62855.14511761222,7.3784600734798005,106453.0,18300.0,891.0
62855.1551155256,7.388457986860885,106452.0,18295.0,866.0
62855.16511343898,7.39845590024197,106446.0,18315.0,905.0
62855.17511135236,7.408453813615779,106452.0,18311.0,883.0
62855.18510926574,7.418451726996864,106446.0,18293.0,890.0
62855.19510717912,7.4284496403779485,106431.0,18277.0,892.0
62855.20510509249,7.438447553751757,106463.0,18307.0,889.0
62855.215103005874,7.448445467132842,106466.0,18318.0,880.0
62855.225100919255,7.458443380513927,106446.0,18298.0,860.0
62855.23509883263,7.468441293887736,106442.0,18287.0,912.0
62855.24509674601,7.478439207268821,106467.0,18313.0,909.0
62855.25509465939,7.488437120649905,106431.0,18289.0,885.0
62855.265092572765,7.498435034023714,106437.0,18303.0,924.0
62855.275090486146,7.508432947404799,106458.0,18308.0,889.0
62855.28508839953,7.518430860785884,106431.0,18285.0,887.0
62855.2950863129,7.528428774159693,106438.0,18327.0,903.0
62855.30508422628,7.5384266875407775,106420.0,18299.0,857.0
62855.31508213966,7.548424600921862,106448.0,18304.0,886.0
62855.32508005304,7.558422514295671,106471.0,18317.0,889.0
62855.33507796642,7.568420427676756,106439.0,18291.0,896.0
62855.3450758798,7.578418341057841,106430.0,18281.0,877.0
62855.35507379317,7.58841625443165,106441.0,18317.0,890.0
62855.365071706554,7.598414167812734,106455.0,18297.0,882.0
62855.375069619935,7.608412081193819,106433.0,18272.0,870.0
62855.38506753331,7.618409994567628,106426.0,18291.0,899.0
62855.39506544669,7.628407907948713,106450.0,18303.0,897.0
62855.40506336007,7.638405821329798,106423.0,18290.0,862.0
62855.415061273445,7.6484037347036065,106444.0,18312.0,885.0
62855.425059186826,7.658401648084691,106435.0,18293.0,886.0
62855.43505710021,7.668399561465776,106460.0,18312.0,904.0
62855.44505501358,7.678397474839585,106433.0,18330.0,913.0
62855.45505292696,7.68839538822067,106406.0,18271.0,878.0
62855.46505084034,7.6983933016017545,106474.0,18305.0,908.0
62855.47504875372,7.708391214975563,106430.0,18260.0,874.0
62855.4850466671,7.718389128356648,106415.0,18266.0,891.0
62855.49504458048,7.728387041737733,106477.0,18323.0,876.0
62855.50504249385,7.738384955111542,106446.0,18296.0,875.0
62855.515040407234,7.748382868492627,106471.0,18307.0,901.0
62855.525038320615,7.758380781873711,106483.0,18303.0,906.0
62855.53503623399,7.76837869524752,106468.0,18289.0,893.0
62855.54503414737,7.778376608628605,106461.0,18280.0,894.0
62855.55503206075,7.78837452200969,106460.0,18305.0,902.0
62855.565029974125,7.798372435383499,106450.0,18298.0,891.0
62855.575027887506,7.8083703487645835,106429.0,18303.0,884.0
62855.58502580089,7.818368262145668,106485.0,18313.0,922.0
62855.59502371426,7.828366175519477,106455.0,18299.0,895.0
62855.60502162764,7.838364088900562,106471.0,18316.0,881.0
62855.61501954102,7.848362002281647,106448.0,18306.0,915.0
62855.6250174544,7.8583599156554556,106439.0,18288.0,875.0
62855.63501536778,7.86835782903654,106464.0,18296.0,888.0
62855.64501328116,7.878355742417625,106473.0,18332.0,886.0
62855.65501119454,7.88835365579871,106437.0,18310.0,893.0
62855.665009107914,7.898351569172519,106496.0,18330.0,911.0
62855.675007021295,7.908349482553604,106470.0,18307.0,889.0
62855.685004934676,7.918347395934688,106449.0,18293.0,896.0
62855.69500284805,7.928345309308497,106489.0,18315.0,903.0
62855.70500076143,7.938343222689582,106437.0,18290.0,897.0
62855.71499867481,7.948341136070667,106467.0,18309.0,892.0
62855.724996588186,7.958339049444476,106471.0,18313.0,896.0
62855.73499450157,7.9683369628255605,106429.0,18307.0,881.0
62855.74499241495,7.978334876206645,106438.0,18326.0,893.0
62855.75499032832,7.988332789580454,106467.0,18309.0,885.0
62855.7649882417,7.998330702961539,106506.0,18305.0,881.0
62855.774986155084,8.008328616342624,106482.0,18298.0,861.0
62855.78498406846,8.018326529716433,106480.0,18314.0,902.0
62855.79498198184,8.028324443097517,106476.0,18305.0,894.0
62855.80497989522,8.038322356478602,106453.0,18326.0,892.0
62855.81497780859,8.048320269852411,106469.0,18279.0,895.0
62855.824975721975,8.058318183233496,106452.0,18288.0,869.0
62855.834973635356,8.06831609661458,106466.0,18311.0,878.0
62855.84497154873,8.07831400998839,106490.0,18334.0,897.0
62855.85496946211,8.088311923369474,106429.0,18303.0,871.0
62855.86496737549,8.098309836750559,106473.0,18323.0,919.0
62855.874965288865,8.108307750124368,106435.0,18285.0,913.0
62855.88496320225,8.118305663505453,106435.0,18300.0,874.0
62855.89496111563,8.128303576886537,106472.0,18315.0,909.0
62855.904959029,8.138301490260346,106432.0,18300.0,882.0
62855.91495694238,8.148299403641431,106450.0,18296.0,895.0
62855.924954855764,8.158297317022516,106472.0,18328.0,884.0
62855.93495276914,8.168295230396325,106454.0,18301.0,909.0
62855.94495068252,8.17829314377741,106445.0,18298.0,858.0
62855.9549485959,8.188291057158494,106448.0,18308.0,905.0
62855.96494650927,8.198288970532303,106450.0,18312.0,897.0
62855.974944422655,8.208286883913388,106446.0,18304.0,895.0
62855.984942336036,8.218284797294473,106455.0,18323.0,911.0
62855.99494024941,8.228282710668282,106440.0,18311.0,885.0
62856.00493816279,8.238280624049366,106464.0,18317.0,899.0
62856.01493607617,8.248278537430451,106420.0,18275.0,877.0
62856.024933989545,8.25827645080426,106413.0,18300.0,878.0
62856.03493190293,8.268274364185345,106464.0,18300.0,919.0
62856.04492981631,8.27827227756643,106445.0,18329.0,895.0
62856.05492772968,8.288270190940239,106429.0,18297.0,885.0
62856.06492564306,8.298268104321323,106449.0,18288.0,905.0
62856.07492355644,8.308266017702408,106432.0,18291.0,889.0
62856.08492146982,8.318263931076217,106455.0,18313.0,891.0
62856.0949193832,8.328261844457302,106458.0,18299.0,899.0
62856.10491729658,8.338259757838387,106431.0,18307.0,865.0
62856.11491520995,8.348257671212195,106463.0,18333.0,900.0
62856.124913123334,8.35825558459328,106448.0,18317.0,904.0
62856.134911036715,8.368253497974365,106413.0,18278.0,911.0
62856.14490895009,8.378251411348174,106439.0,18315.0,882.0
62856.15490686347,8.388249324729259,106453.0,18289.0,908.0
62856.16490477685,8.398247238110343,106444.0,18300.0,880.0
62856.174902690225,8.408245151484152,106440.0,18287.0,889.0
62856.18490060361,8.418243064865237,106427.0,18292.0,893.0
62856.19489851699,8.428240978246322,106445.0,18331.0,908.0
62856.20489643036,8.43823889162013,106447.0,18312.0,898.0
62856.21489434374,8.448236805001216,106433.0,18311.0,877.0
62856.22489225712,8.4582347183823,106442.0,18299.0,875.0
62856.234890170505,8.468232631763385,106480.0,18311.0,905.0
62856.24488808388,8.478230545137194,106450.0,18307.0,889.0
62856.25488599726,8.488228458518279,106434.0,18311.0,877.0
62856.26488391064,8.498226371899364,106436.0,18293.0,876.0
62856.274881824014,8.508224285273172,106391.0,18306.0,860.0
62856.284879737395,8.518222198654257,106440.0,18302.0,894.0
62856.29487765078,8.528220112035342,106445.0,18307.0,853.0
62856.30487556415,8.53821802540915,106453.0,18296.0,883.0
62856.31487347753,8.548215938790236,106467.0,18332.0,911.0
62856.32487139091,8.55821385217132,106461.0,18308.0,895.0
62856.334869304286,8.56821176554513,106468.0,18299.0,888.0
62856.34486721767,8.578209678926214,106444.0,18292.0,883.0
62856.35486513105,8.588207592307299,106482.0,18339.0,911.0
62856.36486304442,8.598205505681108,106463.0,18310.0,895.0
62856.3748609578,8.608203419062193,106439.0,18296.0,878.0
62856.384858871184,8.618201332443277,106463.0,18307.0,894.0
62856.39485678456,8.628199245817086,106477.0,18339.0,885.0
62856.40485469794,8.638197159198171,106469.0,18339.0,894.0
62856.41485261132,8.648195072579256,106436.0,18321.0,914.0
62856.424850524694,8.658192985953065,106455.0,18299.0,894.0
62856.434848438075,8.66819089933415,106457.0,18325.0,899.0
62856.44484635146,8.678188812715234,106462.0,18305.0,885.0
62856.45484426483,8.688186726089043,106440.0,18303.0,868.0
62856.46484217821,8.698184639470128,106469.0,18300.0,864.0
62856.47484009159,8.708182552851213,106455.0,18284.0,888.0
62856.484838004966,8.718180466225022,106471.0,18298.0,892.0
62856.49483591835,8.728178379606106,106479.0,18325.0,899.0
62856.50483383173,8.738176292987191,106468.0,18296.0,877.0
62856.5148317451,8.748174206361,106471.0,18318.0,912.0
62856.52482965848,8.758172119742085,106469.0,18306.0,892.0
62856.534827571864,8.76817003312317,106441.0,18311.0,851.0
62856.54482548524,8.778167946496978,106439.0,18329.0,891.0
62856.55482339862,8.788165859878063,106487.0,18315.0,907.0
62856.564821312,8.798163773259148,106461.0,18305.0,902.0
62856.574819225374,8.808161686632957,106459.0,18306.0,869.0
62856.584817138755,8.818159600014042,106484.0,18321.0,901.0
62856.594815052136,8.828157513395126,106469.0,18306.0,890.0
62856.60481296551,8.838155426768935,106461.0,18305.0,886.0
62856.61481087889,8.84815334015002,106479.0,18293.0,902.0
62856.62480879227,8.858151253531105,106514.0,18322.0,885.0
62856.634806705646,8.868149166904914,106495.0,18329.0,874.0
62856.64480461903,8.878147080285999,106461.0,18313.0,877.0
62856.65480253241,8.888144993667083,106494.0,18286.0,914.0
62856.66480044578,8.898142907040892,106461.0,18312.0,896.0
62856.67479835916,8.908140820421977,106437.0,18284.0,918.0
62856.684796272544,8.918138733803062,106464.0,18300.0,902.0
62856.69479418592,8.92813664717687,106459.0,18322.0,889.0
62856.7047920993,8.938134560557955,106449.0,18286.0,873.0
62856.71479001268,8.94813247393904,106430.0,18307.0,884.0
62856.724787926054,8.958130387312849,106448.0,18304.0,874.0
62856.734785839435,8.968128300693934,106474.0,18319.0,887.0
62856.744783752816,8.978126214075019,106477.0,18301.0,875.0
62856.75478166619,8.988124127448827,106489.0,18338.0,913.0
62856.76477957957,8.998122040829912,106461.0,18289.0,879.0
62856.77477749295,9.008119954210997,106484.0,18310.0,898.0
62856.784775406326,9.018117867584806,106477.0,18337.0,892.0
62856.79477331971,9.02811578096589,106443.0,18303.0,870.0
62856.80477123309,9.038113694346976,106508.0,18350.0,936.0
62856.81476914647,9.04811160772806,106455.0,18310.0,884.0
62856.82476705984,9.05810952110187,106433.0,18300.0,889.0
62856.834764973224,9.068107434482954,106469.0,18326.0,905.0
62856.844762886605,9.078105347864039,106444.0,18293.0,880.0
62856.85476079998,9.088103261237848,106463.0,18307.0,887.0
62856.86475871336,9.098101174618932,106440.0,18296.0,889.0
62856.87475662674,9.108099088000017,106419.0,18304.0,889.0
62856.884754540115,9.118097001373826,106416.0,18298.0,861.0
62856.894752453496,9.12809491475491,106458.0,18318.0,894.0
62856.90475036688,9.138092828135996,106457.0,18302.0,872.0
62856.91474828025,9.148090741509805,106456.0,18294.0,880.0
62856.92474619363,9.15808865489089,106459.0,18284.0,864.0
62856.93474410701,9.168086568271974,106433.0,18289.0,872.0
62856.94474202039,9.178084481645783,106453.0,18303.0,895.0
62856.95473993377,9.188082395026868,106472.0,18318.0,905.0
62856.96473784715,9.198080308407953,106419.0,18321.0,865.0
62856.97473576052,9.208078221781761,106446.0,18307.0,890.0
62856.984733673904,9.218076135162846,106427.0,18303.0,873.0
62856.994731587285,9.228074048543931,106447.0,18308.0,913.0
62857.00472950066,9.23807196191774,106475.0,18318.0,896.0
62857.01472741404,9.248069875298825,106478.0,18310.0,888.0
62857.02472532742,9.25806778867991,106458.0,18311.0,874.0
62857.034723240795,9.268065702053718,106462.0,18289.0,885.0
62857.044721154176,9.278063615434803,106445.0,18309.0,903.0
62857.05471906756,9.288061528815888,106463.0,18314.0,895.0
62857.06471698093,9.298059442189697,106409.0,18291.0,872.0
62857.07471489431,9.308057355570782,106460.0,18315.0,880.0
62857.08471280769,9.318055268951866,106439.0,18286.0,899.0
62857.09471072107,9.328053182325675,106459.0,18299.0,900.0
62857.10470863445,9.33805109570676,106448.0,18284.0,878.0
62857.11470654783,9.348049009087845,106464.0,18318.0,881.0
62857.1247044612,9.358046922461654,106453.0,18293.0,877.0
62857.134702374584,9.368044835842738,106457.0,18311.0,894.0
62857.144700287965,9.378042749223823,106448.0,18305.0,874.0
62857.15469820134,9.388040662597632,106497.0,18336.0,859.0
62857.16469611472,9.398038575978717,106468.0,18317.0,909.0
62857.1746940281,9.408036489359802,106455.0,18311.0,891.0
62857.184691941475,9.41803440273361,106495.0,18292.0,909.0
62857.194689854856,9.428032316114695,106481.0,18298.0,887.0
62857.20468776824,9.43803022949578,106451.0,18329.0,907.0
62857.21468568161,9.448028142869589,106466.0,18300.0,884.0
62857.22468359499,9.458026056250674,106478.0,18334.0,877.0
62857.23468150837,9.468023969631759,106450.0,18326.0,897.0
62857.24467942175,9.478021883005567,106486.0,18334.0,903.0
62857.25467733513,9.488019796386652,106464.0,18307.0,889.0
62857.26467524851,9.498017709767737,106452.0,18280.0,905.0
62857.27467316188,9.508015623141546,106473.0,18295.0,904.0
62857.284671075264,9.51801353652263,106437.0,18279.0,881.0
62857.294668988645,9.528011449903715,106477.0,18314.0,895.0
62857.30466690202,9.538009363277524,106446.0,18326.0,898.0
62857.3146648154,9.548007276658609,106485.0,18294.0,888.0
62857.32466272878,9.558005190039694,106450.0,18307.0,866.0
62857.334660642155,9.568003103413503,106473.0,18304.0,868.0
62857.344658555536,9.578001016794587,106473.0,18303.0,909.0
62857.35465646892,9.587998930175672,106472.0,18326.0,909.0
62857.36465438229,9.597996843549481,106480.0,18296.0,888.0
62857.37465229567,9.607994756930566,106457.0,18313.0,862.0
62857.38465020905,9.61799267031165,106506.0,18312.0,888.0
62857.394648122434,9.627990583692736,106456.0,18297.0,897.0
62857.40464603581,9.637988497066544,106493.0,18300.0,910.0
62857.41464394919,9.64798641044763,106504.0,18306.0,929.0
62857.42464186257,9.657984323828714,106479.0,18334.0,887.0
62857.434639775944,9.667982237202523,106501.0,18327.0,876.0
62857.444637689325,9.677980150583608,106495.0,18309.0,890.0
62857.454635602706,9.687978063964692,106451.0,18284.0,909.0
62857.46463351608,9.697975977338501,106452.0,18329.0,896.0
62857.47463142946,9.707973890719586,106483.0,18296.0,880.0
62857.48462934284,9.71797180410067,106510.0,18309.0,895.0
62857.494627256216,9.72796971747448,106462.0,18315.0,877.0
62857.5046251696,9.737967630855564,106477.0,18307.0,888.0
62857.51462308298,9.74796554423665,106496.0,18334.0,887.0
62857.52462099635,9.757963457610458,106471.0,18291.0,881.0
62857.53461890973,9.767961370991543,106512.0,18286.0,903.0
62857.544616823114,9.777959284372628,106493.0,18312.0,896.0
62857.55461473649,9.787957197746437,106493.0,18287.0,875.0
62857.56461264987,9.797955111127521,106514.0,18334.0,908.0
62857.57461056325,9.807953024508606,106486.0,18304.0,866.0
62857.58460847662,9.817950937882415,106495.0,18302.0,890.0
62857.594606390005,9.8279488512635,106526.0,18317.0,885.0
62857.604604303386,9.837946764644585,106475.0,18299.0,880.0
62857.61460221676,9.847944678018393,106489.0,18279.0,875.0
62857.62460013014,9.857942591399478,106501.0,18315.0,894.0
62857.63459804352,9.867940504780563,106511.0,18311.0,875.0
62857.644595956896,9.877938418154372,106481.0,18342.0,908.0
62857.65459387028,9.887936331535457,106485.0,18327.0,886.0
62857.66459178366,9.897934244916542,106497.0,18310.0,893.0
62857.67458969703,9.90793215829035,106498.0,18320.0,889.0
62857.68458761041,9.917930071671435,106485.0,18299.0,911.0
62857.694585523794,9.92792798505252,106501.0,18315.0,880.0
62857.70458343717,9.937925898426329,106512.0,18318.0,894.0
62857.71458135055,9.947923811807414,106495.0,18324.0,869.0
62857.72457926393,9.957921725188498,106518.0,18307.0,887.0
62857.7345771773,9.967919638562307,106460.0,18273.0,878.0
62857.744575090685,9.977917551943392,106492.0,18312.0,897.0
62857.754573004066,9.987915465324477,106469.0,18310.0,909.0
62857.76457091744,9.997913378698286,106526.0,18338.0,898.0
62857.77456883082,10.00791129207937,106484.0,18299.0,887.0
62857.7845667442,10.017909205460455,106486.0,18320.0,891.0
62857.794564657575,10.027907118834264,106478.0,18332.0,921.0
62857.80456257096,10.037905032215349,106468.0,18300.0,878.0
62857.81456048434,10.047902945596434,106485.0,18314.0,896.0
62857.82455839771,10.057900858970243,106483.0,18311.0,885.0
62857.83455631109,10.067898772351327,106498.0,18307.0,924.0
62857.84455422447,10.077896685732412,106493.0,18310.0,893.0
62857.85455213785,10.087894599106221,106491.0,18296.0,883.0
62857.86455005123,10.097892512487306,106465.0,18292.0,883.0
62857.87454796461,10.10789042586839,106484.0,18310.0,889.0
62857.88454587798,10.1178883392422,106488.0,18298.0,883.0
62857.894543791364,10.127886252623284,106494.0,18272.0,884.0
62857.904541704745,10.137884166004369,106477.0,18317.0,888.0
62857.91453961812,10.147882079378178,106495.0,18330.0,912.0
62857.9245375315,10.157879992759263,106449.0,18307.0,869.0
62857.93453544488,10.167877906140347,106501.0,18329.0,917.0
62857.944533358255,10.177875819514156,106491.0,18311.0,896.0
62857.95453127164,10.187873732895241,106489.0,18340.0,907.0
62857.96452918502,10.197871646276326,106507.0,18328.0,909.0
62857.9745270984,10.20786955965741,106499.0,18316.0,877.0
62857.98452501177,10.21786747303122,106490.0,18310.0,883.0
62857.99452292515,10.227865386412304,106470.0,18305.0,900.0
62858.004520838535,10.23786329979339,106459.0,18283.0,862.0
62858.01451875191,10.247861213167198,106506.0,18342.0,865.0
62858.02451666529,10.257859126548283,106489.0,18313.0,892.0
62858.03451457867,10.267857039929368,106467.0,18309.0,899.0
62858.044512492044,10.277854953303176,106504.0,18324.0,901.0
62858.054510405425,10.287852866684261,106504.0,18297.0,888.0
62858.06450831881,10.297850780065346,106491.0,18310.0,869.0
62858.07450623218,10.307848693439155,106474.0,18287.0,907.0
62858.08450414556,10.31784660682024,106480.0,18310.0,895.0
62858.09450205894,10.327844520201324,106455.0,18323.0,895.0
62858.104499972316,10.337842433575133,106478.0,18313.0,921.0
62858.1144978857,10.347840346956218,106491.0,18317.0,892.0
62858.12449579908,10.357838260337303,106534.0,18308.0,856.0
62858.13449371245,10.367836173711112,106512.0,18333.0,896.0
62858.14449162583,10.377834087092197,106474.0,18319.0,872.0
62858.154489539214,10.387832000473281,106498.0,18307.0,897.0
62858.16448745259,10.39782991384709,106517.0,18330.0,885.0
62858.17448536597,10.407827827228175,106484.0,18296.0,888.0
62858.18448327935,10.41782574060926,106518.0,18326.0,911.0
62858.194481192724,10.427823653983069,106492.0,18315.0,888.0
62858.204479106105,10.437821567364153,106472.0,18318.0,869.0
62858.21447701949,10.447819480745238,106524.0,18334.0,915.0
62858.22447493286,10.457817394119047,106488.0,18293.0,877.0
62858.23447284624,10.467815307500132,106497.0,18305.0,897.0
62858.24447075962,10.477813220881217,106476.0,18330.0,916.0
62858.254468672996,10.487811134255026,106477.0,18298.0,894.0
62858.26446658638,10.49780904763611,106516.0,18325.0,905.0
62858.27446449976,10.507806961017195,106506.0,18318.0,904.0
62858.28446241313,10.517804874391004,106485.0,18289.0,861.0
62858.29446032651,10.527802787772089,106546.0,18339.0,866.0
62858.304458239894,10.537800701153174,106497.0,18297.0,910.0
62858.31445615327,10.547798614526982,106515.0,18306.0,894.0
62858.32445406665,10.557796527908067,106511.0,18303.0,897.0
62858.33445198003,10.567794441289152,106511.0,18306.0,896.0
62858.344449893404,10.57779235466296,106521.0,18281.0,905.0
62858.354447806785,10.587790268044046,106509.0,18320.0,895.0
62858.364445720166,10.59778818142513,106485.0,18331.0,904.0
62858.37444363354,10.60778609479894,106504.0,18285.0,870.0
62858.38444154692,10.617784008180024,106531.0,18334.0,915.0
62858.3944394603,10.627781921561109,106498.0,18290.0,870.0
62858.404437373676,10.637779834934918,106500.0,18324.0,876.0
62858.41443528706,10.647777748316003,106533.0,18335.0,903.0
62858.42443320044,10.657775661697087,106474.0,18294.0,867.0
62858.43443111381,10.667773575070896,106517.0,18321.0,887.0
62858.44442902719,10.677771488451981,106526.0,18331.0,904.0
62858.454426940574,10.687769401833066,106490.0,18306.0,873.0
62858.46442485395,10.697767315206875,106493.0,18290.0,885.0
62858.47442276733,10.70776522858796,106517.0,18312.0,894.0
62858.48442068071,10.717763141969044,106494.0,18301.0,902.0
62858.494418594084,10.727761055342853,106520.0,18312.0,906.0
62858.504416507465,10.737758968723938,106487.0,18302.0,887.0
62858.514414420846,10.747756882105023,106518.0,18317.0,896.0
62858.52441233422,10.757754795478832,106514.0,18315.0,889.0
62858.5344102476,10.767752708859916,106497.0,18307.0,920.0
62858.54440816098,10.777750622241001,106482.0,18314.0,896.0
62858.55440607436,10.787748535622086,106522.0,18307.0,892.0
62858.56440398774,10.797746448995895,106550.0,18304.0,901.0
62858.57440190112,10.80774436237698,106505.0,18318.0,872.0
62858.5843998145,10.817742275758064,106548.0,18331.0,899.0
62858.59439772787,10.827740189131873,106516.0,18322.0,895.0
62858.604395641254,10.837738102512958,106512.0,18307.0,878.0
62858.614393554635,10.847736015894043,106523.0,18338.0,923.0
62858.62439146801,10.857733929267852,106495.0,18289.0,856.0
62858.63438938139,10.867731842648936,106518.0,18309.0,893.0
62858.64438729477,10.877729756030021,106535.0,18338.0,892.0
62858.654385208145,10.88772766940383,106514.0,18293.0,869.0
62858.664383121526,10.897725582784915,106519.0,18344.0,902.0
62858.67438103491,10.907723496166,106511.0,18315.0,891.0
62858.68437894828,10.917721409539809,106474.0,18288.0,889.0
62858.69437686166,10.927719322920893,106500.0,18302.0,885.0
62858.70437477504,10.937717236301978,106501.0,18314.0,905.0
62858.71437268842,10.947715149675787,106496.0,18314.0,872.0
62858.7243706018,10.957713063056872,106461.0,18312.0,884.0
62858.73436851518,10.967710976437957,106513.0,18321.0,919.0
62858.74436642855,10.977708889811765,106497.0,18323.0,865.0
62858.754364341934,10.98770680319285,106495.0,18316.0,897.0
62858.764362255315,10.997704716573935,106475.0,18324.0,888.0
62858.77436016869,11.007702629947744,106515.0,18326.0,877.0
62858.78435808207,11.017700543328829,106529.0,18331.0,916.0
62858.79435599545,11.027698456709913,106461.0,18299.0,849.0
62858.804353908825,11.037696370083722,106480.0,18285.0,898.0
62858.814351822206,11.047694283464807,106532.0,18334.0,882.0
62858.82434973559,11.057692196845892,106490.0,18294.0,878.0
62858.83434764896,11.0676901102197,106528.0,18310.0,912.0
62858.84434556234,11.077688023600786,106502.0,18333.0,884.0
62858.85434347572,11.08768593698187,106491.0,18305.0,878.0
62858.8643413891,11.09768385035568,106518.0,18308.0,899.0
62858.87433930248,11.107681763736764,106490.0,18291.0,873.0
62858.88433721586,11.117679677117849,106502.0,18316.0,890.0
62858.89433512923,11.127677590491658,106462.0,18307.0,881.0
62858.904333042614,11.137675503872742,106531.0,18294.0,898.0
62858.914330955995,11.147673417253827,106507.0,18314.0,866.0
62858.92432886937,11.157671330627636,106539.0,18328.0,922.0
62858.93432678275,11.16766924400872,106483.0,18310.0,913.0
62858.94432469613,11.177667157389806,106509.0,18327.0,887.0
62858.954322609505,11.187665070763614,106506.0,18300.0,893.0
62858.964320522886,11.1976629841447,106513.0,18317.0,894.0
62858.97431843627,11.207660897525784,106491.0,18308.0,922.0
62858.98431634964,11.217658810899593,106518.0,18330.0,892.0
62858.99431426302,11.227656724280678,106477.0,18307.0,871.0
62859.0043121764,11.237654637661763,106514.0,18308.0,883.0
62859.01431008978,11.247652551035571,106497.0,18319.0,880.0
62859.02430800316,11.257650464416656,106476.0,18291.0,884.0
62859.03430591654,11.267648377797741,106532.0,18299.0,889.0
62859.04430382991,11.27764629117155,106507.0,18314.0,888.0
62859.054301743294,11.287644204552635,106475.0,18338.0,884.0
62859.064299656675,11.29764211793372,106512.0,18337.0,916.0
62859.07429757005,11.307640031307528,106493.0,18282.0,887.0
62859.08429548343,11.317637944688613,106514.0,18319.0,897.0
62859.09429339681,11.327635858069698,106513.0,18309.0,869.0
62859.104291310185,11.337633771443507,106521.0,18332.0,897.0
62859.114289223566,11.347631684824592,106498.0,18303.0,885.0
62859.12428713695,11.357629598205676,106504.0,18309.0,887.0
62859.13428505033,11.367627511586761,106535.0,18343.0,902.0
62859.1442829637,11.37762542496057,106516.0,18282.0,884.0
62859.15428087708,11.387623338341655,106495.0,18314.0,903.0
62859.164278790464,11.39762125172274,106525.0,18308.0,886.0
62859.17427670384,11.407619165096548,106483.0,18318.0,881.0
62859.18427461722,11.417617078477633,106544.0,18330.0,931.0
62859.1942725306,11.427614991858718,106487.0,18277.0,873.0
62859.204270443974,11.437612905232527,106509.0,18308.0,892.0
62859.214268357355,11.447610818613612,106510.0,18322.0,891.0
62859.224266270736,11.457608731994696,106485.0,18308.0,876.0
62859.23426418411,11.467606645368505,106512.0,18321.0,897.0
62859.24426209749,11.47760455874959,106528.0,18319.0,892.0
62859.25426001087,11.487602472130675,106515.0,18314.0,882.0
62859.264257924246,11.497600385504484,106539.0,18342.0,894.0
62859.27425583763,11.507598298885569,106478.0,18312.0,870.0
62859.28425375101,11.517596212266653,106529.0,18319.0,883.0
62859.29425166438,11.527594125640462,106516.0,18298.0,888.0
62859.30424957776,11.537592039021547,106536.0,18320.0,932.0
62859.314247491144,11.547589952402632,106525.0,18287.0,883.0
62859.32424540452,11.55758786577644,106542.0,18334.0,910.0
62859.3342433179,11.567585779157525,106528.0,18343.0,904.0
62859.34424123128,11.57758369253861,106497.0,18306.0,880.0
62859.35423914465,11.587581605912419,106518.0,18305.0,865.0
62859.364237058035,11.597579519293504,106535.0,18314.0,892.0
62859.374234971416,11.607577432674589,106523.0,18298.0,881.0
62859.38423288479,11.617575346048397,106545.0,18340.0,893.0
62859.39423079817,11.627573259429482,106508.0,18297.0,872.0
62859.40422871155,11.637571172810567,106519.0,18315.0,894.0
62859.414226624926,11.647569086184376,106541.0,18345.0,909.0
62859.42422453831,11.65756699956546,106517.0,18313.0,878.0
62859.43422245169,11.667564912946546,106558.0,18333.0,891.0
62859.44422036506,11.677562826320354,106522.0,18314.0,880.0
62859.45421827844,11.68756073970144,106526.0,18289.0,917.0
62859.464216191824,11.697558653082524,106550.0,18338.0,907.0
62859.4742141052,11.707556566456333,106519.0,18303.0,870.0
62859.48421201858,11.717554479837418,106523.0,18319.0,904.0
62859.49420993196,11.727552393218502,106539.0,18328.0,885.0
62859.50420784533,11.737550306592311,106507.0,18332.0,901.0
62859.514205758715,11.747548219973396,106498.0,18317.0,876.0
62859.524203672096,11.75754613335448,106547.0,18315.0,911.0
62859.53420158547,11.76754404672829,106517.0,18301.0,893.0
62859.54419949885,11.777541960109374,106508.0,18306.0,879.0
62859.55419741223,11.78753987349046,106538.0,18326.0,919.0
62859.564195325605,11.797537786864268,106504.0,18321.0,887.0
62859.57419323899,11.807535700245353,106513.0,18335.0,892.0
62859.58419115237,11.817533613626438,106451.0,18265.0,865.0
62859.59418906574,11.827531527000247,106486.0,18295.0,876.0
62859.60418697912,11.837529440381331,106522.0,18335.0,876.0
62859.6141848925,11.847527353762416,106511.0,18316.0,898.0
62859.62418280588,11.857525267136225,106504.0,18299.0,900.0
62859.63418071926,11.86752318051731,106550.0,18323.0,905.0
62859.64417863264,11.877521093898395,106493.0,18302.0,893.0
62859.65417654601,11.887519007272203,106509.0,18321.0,886.0
62859.664174459394,11.897516920653288,106495.0,18329.0,902.0
62859.674172372776,11.907514834034373,106502.0,18303.0,889.0
62859.68417028615,11.917512747408182,106481.0,18341.0,884.0
62859.69416819953,11.927510660789267,106491.0,18316.0,884.0
62859.70416611291,11.937508574170351,106537.0,18304.0,911.0
62859.714164026285,11.94750648754416,106492.0,18302.0,881.0
62859.72416193967,11.957504400925245,106523.0,18345.0,919.0
62859.73415985305,11.96750231430633,106510.0,18317.0,881.0
62859.74415776643,11.977500227687415,106478.0,18284.0,872.0
62859.7541556798,11.987498141061224,106536.0,18331.0,902.0
62859.76415359318,11.997496054442308,106529.0,18308.0,889.0
62859.774151506565,12.007493967823393,106512.0,18310.0,886.0
62859.78414941994,12.017491881197202,106504.0,18355.0,896.0
62859.79414733332,12.027489794578287,106493.0,18289.0,870.0
62859.8041452467,12.037487707959372,106536.0,18331.0,900.0
62859.814143160074,12.04748562133318,106528.0,18312.0,895.0
62859.824141073455,12.057483534714265,106531.0,18305.0,886.0
62859.83413898684,12.06748144809535,106540.0,18332.0,908.0
62859.84413690021,12.077479361469159,106494.0,18318.0,896.0
62859.85413481359,12.087477274850244,106486.0,18311.0,878.0
62859.86413272697,12.097475188231329,106468.0,18335.0,888.0
62859.874130640346,12.107473101605137,106470.0,18296.0,862.0
62859.88412855373,12.117471014986222,106534.0,18330.0,869.0
62859.89412646711,12.127468928367307,106508.0,18313.0,886.0
62859.90412438048,12.137466841741116,106504.0,18347.0,901.0
62859.91412229386,12.1474647551222,106495.0,18294.0,872.0
62859.924120207244,12.157462668503285,106525.0,18346.0,898.0
62859.93411812062,12.167460581877094,106518.0,18315.0,901.0
62859.944116034,12.177458495258179,106495.0,18278.0,871.0
62859.95411394738,12.187456408639264,106495.0,18310.0,909.0
62859.964111860754,12.197454322013073,106479.0,18321.0,892.0
62859.974109774135,12.207452235394157,106520.0,18317.0,891.0
62859.98410768752,12.217450148775242,106519.0,18305.0,899.0
62859.99410560089,12.227448062149051,106512.0,18319.0,859.0
62860.00410351427,12.237445975530136,106524.0,18295.0,893.0
62860.01410142765,12.24744388891122,106525.0,18311.0,889.0
62860.024099341026,12.25744180228503,106499.0,18347.0,901.0
62860.03409725441,12.267439715666114,106486.0,18312.0,883.0
62860.04409516779,12.2774376290472,106532.0,18316.0,903.0
62860.05409308116,12.287435542421008,106530.0,18319.0,889.0
62860.06409099454,12.297433455802093,106516.0,18310.0,872.0
62860.074088907924,12.307431369183178,106487.0,18302.0,863.0
62860.0840868213,12.317429282556986,106538.0,18321.0,912.0
62860.09408473468,12.327427195938071,106519.0,18319.0,899.0
62860.10408264806,12.337425109319156,106538.0,18299.0,888.0
62860.114080561434,12.347423022692965,106518.0,18287.0,866.0
62860.124078474815,12.35742093607405,106550.0,18340.0,912.0
62860.134076388196,12.367418849455134,106518.0,18314.0,887.0
62860.14407430157,12.377416762828943,106508.0,18294.0,912.0
62860.15407221495,12.387414676210028,106553.0,18338.0,909.0
62860.16407012833,12.397412589591113,106544.0,18329.0,862.0
62860.174068041706,12.407410502964922,106525.0,18309.0,883.0
62860.18406595509,12.417408416346007,106521.0,18325.0,901.0
62860.19406386847,12.427406329727091,106521.0,18306.0,874.0
62860.20406178184,12.4374042431009,106519.0,18337.0,896.0
62860.21405969522,12.447402156481985,106547.0,18307.0,873.0
62860.224057608604,12.45740006986307,106533.0,18325.0,899.0
62860.23405552198,12.467397983236879,106531.0,18305.0,878.0
62860.24405343536,12.477395896617963,106558.0,18342.0,905.0
62860.25405134874,12.487393809999048,106509.0,18298.0,873.0
62860.264049262114,12.497391723372857,106513.0,18320.0,900.0
62860.274047175495,12.507389636753942,106509.0,18298.0,870.0
62860.284045088876,12.517387550135027,106558.0,18330.0,913.0
62860.29404300225,12.527385463508836,106566.0,18342.0,905.0
62860.30404091563,12.53738337688992,106538.0,18315.0,889.0
62860.31403882901,12.547381290271005,106504.0,18307.0,892.0
62860.32403674239,12.55737920365209,106542.0,18339.0,910.0
62860.33403465577,12.567377117025899,106541.0,18318.0,908.0
62860.34403256915,12.577375030406984,106541.0,18321.0,898.0
62860.35403048253,12.587372943788068,106535.0,18315.0,922.0
62860.3640283959,12.597370857161877,106519.0,18306.0,893.0
62860.374026309284,12.607368770542962,106523.0,18338.0,897.0
62860.384024222665,12.617366683924047,106546.0,18333.0,914.0
62860.39402213604,12.627364597297856,106510.0,18301.0,891.0
62860.40402004942,12.63736251067894,106524.0,18314.0,871.0
62860.4140179628,12.647360424060025,106530.0,18294.0,895.0
62860.424015876175,12.657358337433834,106521.0,18314.0,889.0
62860.434013789556,12.667356250814919,106502.0,18306.0,890.0
62860.44401170294,12.677354164196004,106501.0,18335.0,900.0
62860.45400961631,12.687352077569813,106502.0,18316.0,877.0
62860.46400752969,12.697349990950897,106516.0,18320.0,887.0
62860.47400544307,12.707347904331982,106483.0,18338.0,882.0
62860.48400335645,12.717345817705791,106506.0,18329.0,888.0
62860.49400126983,12.727343731086876,106493.0,18318.0,888.0
62860.50399918321,12.73734164446796,106505.0,18317.0,897.0
62860.51399709658,12.74733955784177,106489.0,18295.0,913.0
62860.523995009964,12.757337471222854,106500.0,18336.0,913.0
62860.533992923345,12.767335384603939,106535.0,18350.0,907.0
62860.54399083672,12.777333297977748,106504.0,18322.0,897.0
62860.5539887501,12.787331211358833,106514.0,18326.0,892.0
62860.56398666348,12.797329124739917,106497.0,18307.0,891.0
62860.573984576855,12.807327038113726,106516.0,18331.0,858.0
62860.583982490236,12.817324951494811,106503.0,18305.0,880.0
62860.59398040362,12.827322864875896,106480.0,18307.0,891.0
62860.60397831699,12.837320778249705,106511.0,18317.0,896.0
62860.61397623037,12.84731869163079,106478.0,18343.0,895.0
62860.62397414375,12.857316605011874,106508.0,18306.0,891.0
62860.63397205713,12.867314518385683,106503.0,18302.0,893.0
62860.64396997051,12.877312431766768,106516.0,18340.0,876.0
62860.65396788389,12.887310345147853,106507.0,18313.0,867.0
62860.66396579726,12.897308258521662,106499.0,18312.0,885.0
62860.673963710644,12.907306171902746,106534.0,18298.0,911.0
62860.683961624025,12.917304085283831,106511.0,18278.0,892.0
62860.6939595374,12.92730199865764,106521.0,18313.0,905.0
62860.70395745078,12.937299912038725,106509.0,18319.0,887.0
62860.71395536416,12.94729782541981,106473.0,18331.0,874.0
62860.723953277535,12.957295738793619,106489.0,18332.0,893.0
62860.733951190916,12.967293652174703,106542.0,18334.0,911.0
62860.7439491043,12.977291565555788,106517.0,18310.0,894.0
62860.75394701767,12.987289478929597,106526.0,18325.0,906.0
62860.76394493105,12.997287392310682,106541.0,18331.0,885.0
62860.77394284443,13.007285305691767,106527.0,18345.0,889.0
62860.78394075781,13.017283219065575,106478.0,18330.0,914.0
62860.79393867119,13.02728113244666,106508.0,18300.0,886.0
62860.80393658457,13.037279045827745,106501.0,18306.0,896.0
62860.81393449794,13.047276959201554,106532.0,18330.0,865.0
62860.823932411324,13.057274872582639,106495.0,18314.0,889.0
62860.833930324705,13.067272785963723,106482.0,18335.0,898.0
62860.84392823808,13.077270699337532,106510.0,18341.0,879.0
62860.85392615146,13.087268612718617,106528.0,18300.0,912.0
62860.86392406484,13.097266526099702,106513.0,18312.0,916.0
62860.873921978215,13.10726443947351,106505.0,18322.0,903.0
62860.883919891596,13.117262352854596,106506.0,18300.0,886.0
62860.89391780498,13.12726026623568,106511.0,18308.0,889.0
62860.90391571836,13.137258179616765,106516.0,18313.0,911.0
62860.91391363173,13.147256092990574,106509.0,18330.0,875.0
62860.92391154511,13.157254006371659,106495.0,18298.0,880.0
62860.933909458494,13.167251919752744,106517.0,18311.0,917.0
62860.94390737187,13.177249833126552,106509.0,18310.0,907.0
62860.95390528525,13.187247746507637,106508.0,18342.0,891.0
62860.96390319863,13.197245659888722,106513.0,18326.0,892.0
62860.973901112004,13.20724357326253,106532.0,18316.0,907.0
62860.983899025385,13.217241486643616,106540.0,18337.0,911.0
62860.993896938766,13.2272394000247,106513.0,18312.0,898.0
62861.00389485214,13.23723731339851,106503.0,18343.0,878.0
62861.01389276552,13.247235226779594,106518.0,18322.0,885.0
62861.0238906789,13.257233140160679,106525.0,18303.0,910.0
62861.033888592276,13.267231053534488,106506.0,18306.0,888.0
62861.04388650566,13.277228966915573,106465.0,18268.0,869.0
62861.05388441904,13.287226880296657,106493.0,18332.0,903.0
62861.06388233241,13.297224793670466,106498.0,18293.0,891.0
62861.07388024579,13.307222707051551,106529.0,18309.0,881.0
62861.083878159174,13.317220620432636,106485.0,18293.0,876.0
62861.09387607255,13.327218533806445,106497.0,18331.0,886.0
62861.10387398593,13.33721644718753,106552.0,18334.0,916.0
62861.11387189931,13.347214360568614,106526.0,18318.0,887.0
62861.12386981268,13.357212273942423,106486.0,18315.0,877.0
62861.133867726065,13.367210187323508,106481.0,18342.0,898.0
62861.143865639446,13.377208100704593,106539.0,18294.0,895.0
62861.15386355282,13.387206014078401,106522.0,18313.0,890.0
62861.1638614662,13.397203927459486,106534.0,18318.0,910.0
62861.17385937958,13.407201840840571,106539.0,18313.0,903.0
62861.183857292956,13.41719975421438,106540.0,18324.0,898.0
62861.19385520634,13.427197667595465,106515.0,18315.0,892.0
62861.20385311972,13.43719558097655,106533.0,18343.0,876.0
62861.21385103309,13.447193494350358,106521.0,18285.0,880.0
62861.22384894647,13.457191407731443,106545.0,18292.0,911.0
62861.233846859854,13.467189321112528,106526.0,18298.0,894.0
62861.24384477323,13.477187234486337,106486.0,18310.0,877.0
62861.25384268661,13.487185147867422,106560.0,18322.0,916.0
62861.26384059999,13.497183061248506,106493.0,18283.0,884.0
62861.27383851336,13.507180974622315,106522.0,18320.0,894.0
62861.283836426745,13.5171788880034,106507.0,18297.0,896.0
62861.293834340126,13.527176801384485,106533.0,18331.0,908.0
62861.3038322535,13.537174714758294,106511.0,18300.0,900.0
62861.31383016688,13.547172628139379,106480.0,18299.0,875.0
62861.32382808026,13.557170541520463,106510.0,18304.0,874.0
62861.333825993635,13.567168454894272,106524.0,18330.0,869.0
62861.34382390702,13.577166368275357,106518.0,18318.0,883.0
62861.3538218204,13.587164281656442,106507.0,18315.0,891.0
62861.36381973377,13.59716219503025,106487.0,18317.0,881.0
62861.37381764715,13.607160108411335,106514.0,18305.0,906.0
62861.38381556053,13.61715802179242,106521.0,18321.0,911.0
62861.39381347391,13.627155935166229,106506.0,18319.0,888.0
62861.40381138729,13.637153848547314,106482.0,18324.0,899.0
62861.41380930067,13.647151761928399,106487.0,18309.0,879.0
62861.42380721404,13.657149675302207,106529.0,18338.0,901.0
62861.433805127424,13.667147588683292,106487.0,18310.0,894.0
62861.443803040806,13.677145502064377,106485.0,18330.0,881.0
62861.45380095418,13.687143415438186,106515.0,18314.0,918.0
62861.46379886756,13.69714132881927,106452.0,18275.0,860.0
62861.47379678094,13.707139242200356,106488.0,18311.0,880.0
62861.48379469432,13.71713715558144,106472.0,18292.0,880.0
62861.4937926077,13.72713506895525,106474.0,18303.0,875.0
62861.50379052108,13.737132982336334,106469.0,18279.0,876.0
62861.51378843446,13.747130895717419,106488.0,18312.0,873.0
62861.52378634783,13.757128809091228,106495.0,18300.0,905.0
62861.53378426121,13.767126722472312,106492.0,18319.0,890.0
62861.543782174595,13.777124635853397,106496.0,18297.0,909.0
62861.55378008797,13.787122549227206,106483.0,18320.0,888.0
62861.56377800135,13.79712046260829,106502.0,18298.0,901.0
62861.57377591473,13.807118375989376,106459.0,18322.0,899.0
62861.583773828104,13.817116289363184,106465.0,18303.0,885.0
62861.593771741485,13.82711420274427,106500.0,18319.0,906.0
62861.60376965487,13.837112116125354,106484.0,18302.0,890.0
62861.61376756824,13.847110029499163,106475.0,18307.0,893.0
62861.62376548162,13.857107942880248,106510.0,18332.0,907.0
62861.633763395,13.867105856261333,106478.0,18290.0,871.0
62861.643761308376,13.877103769635141,106490.0,18315.0,886.0
62861.65375922176,13.887101683016226,106497.0,18335.0,909.0
62861.66375713514,13.897099596397311,106478.0,18299.0,883.0
62861.67375504851,13.90709750977112,106484.0,18308.0,903.0
62861.68375296189,13.917095423152205,106488.0,18306.0,897.0
62861.693750875274,13.92709333653329,106470.0,18311.0,884.0
62861.70374878865,13.937091249907098,106498.0,18329.0,898.0
62861.71374670203,13.947089163288183,106490.0,18301.0,902.0
62861.72374461541,13.957087076669268,106487.0,18309.0,899.0
62861.733742528784,13.967084990043077,106485.0,18285.0,885.0
62861.743740442165,13.977082903424161,106521.0,18337.0,912.0
62861.75373835555,13.987080816805246,106458.0,18321.0,893.0
62861.76373626892,13.997078730179055,106501.0,18315.0,892.0
62861.7737341823,14.00707664356014,106514.0,18306.0,902.0
62861.78373209568,14.017074556941225,106495.0,18331.0,867.0
62861.793730009056,14.027072470315034,106502.0,18332.0,919.0
62861.80372792244,14.037070383696118,106506.0,18307.0,888.0
62861.81372583582,14.047068297077203,106485.0,18309.0,868.0
62861.82372374919,14.057066210451012,106509.0,18325.0,927.0
62861.83372166257,14.067064123832097,106463.0,18291.0,873.0
62861.843719575954,14.077062037213182,106483.0,18304.0,875.0
62861.85371748933,14.08705995058699,106507.0,18325.0,884.0
62861.86371540271,14.097057863968075,106493.0,18300.0,892.0
62861.87371331609,14.10705577734916,106491.0,18335.0,906.0
62861.883711229464,14.117053690722969,106501.0,18313.0,884.0
62861.893709142845,14.127051604104054,106513.0,18296.0,883.0
62861.903707056226,14.137049517485138,106521.0,18310.0,887.0
62861.9137049696,14.147047430858947,106484.0,18299.0,904.0
62861.92370288298,14.157045344240032,106493.0,18311.0,884.0
62861.93370079636,14.167043257621117,106461.0,18315.0,873.0
62861.943698709736,14.177041170994926,106522.0,18324.0,895.0
62861.95369662312,14.18703908437601,106495.0,18310.0,872.0
62861.9636945365,14.197036997757095,106502.0,18319.0,892.0
62861.97369244987,14.207034911130904,106478.0,18327.0,906.0
62861.98369036325,14.217032824511989,106496.0,18339.0,900.0
62861.993688276634,14.227030737893074,106495.0,18328.0,925.0
62862.00368619001,14.237028651266883,106491.0,18317.0,904.0
62862.01368410339,14.247026564647967,106494.0,18328.0,859.0
62862.02368201677,14.257024478029052,106518.0,18307.0,866.0
62862.033679930144,14.267022391402861,106487.0,18303.0,887.0
62862.043677843525,14.277020304783946,106498.0,18312.0,888.0
62862.053675756906,14.28701821816503,106491.0,18306.0,888.0
62862.06367367029,14.297016131546116,106501.0,18312.0,912.0
62862.07367158366,14.307014044919924,106498.0,18286.0,890.0
62862.08366949704,14.31701195830101,106504.0,18313.0,883.0
62862.09366741042,14.327009871682094,106475.0,18307.0,911.0
62862.1036653238,14.337007785055903,106442.0,18308.0,864.0
62862.11366323718,14.347005698436988,106510.0,18320.0,901.0
62862.12366115056,14.357003611818072,106505.0,18316.0,891.0
62862.13365906393,14.367001525191881,106485.0,18305.0,887.0
62862.143656977314,14.376999438572966,106522.0,18349.0,900.0
62862.153654890695,14.38699735195405,106479.0,18297.0,884.0
62862.16365280407,14.39699526532786,106504.0,18314.0,887.0
62862.17365071745,14.406993178708944,106489.0,18324.0,896.0
62862.18364863083,14.41699109209003,106495.0,18317.0,870.0
62862.193646544205,14.426989005463838,106541.0,18322.0,884.0
62862.203644457586,14.436986918844923,106505.0,18312.0,872.0
62862.21364237097,14.446984832226008,106483.0,18288.0,918.0
62862.22364028434,14.456982745599817,106490.0,18328.0,898.0
62862.23363819772,14.466980658980901,106509.0,18304.0,901.0
62862.2436361111,14.476978572361986,106465.0,18286.0,866.0
62862.25363402448,14.486976485735795,106462.0,18273.0,893.0
62862.26363193786,14.49697439911688,106480.0,18343.0,903.0
62862.27362985124,14.506972312497965,106446.0,18311.0,867.0
62862.28362776461,14.516970225871773,106453.0,18311.0,864.0
62862.293625677994,14.526968139252858,106491.0,18304.0,891.0
62862.303623591375,14.536966052633943,106469.0,18315.0,866.0
62862.31362150475,14.546963966007752,106470.0,18314.0,902.0
62862.32361941813,14.556961879388837,106453.0,18290.0,884.0
62862.33361733151,14.566959792769921,106475.0,18317.0,897.0
62862.343615244885,14.57695770614373,106479.0,18333.0,908.0
62862.353613158266,14.586955619524815,106444.0,18298.0,867.0
62862.36361107165,14.5969535329059,106473.0,18316.0,852.0
62862.37360898502,14.606951446279709,106488.0,18295.0,922.0
62862.3836068984,14.616949359660794,106440.0,18315.0,899.0
62862.39360481178,14.626947273041878,106500.0,18327.0,900.0
62862.40360272516,14.636945186415687,106457.0,18296.0,891.0
62862.41360063854,14.646943099796772,106474.0,18311.0,898.0
62862.42359855192,14.656941013177857,106465.0,18287.0,883.0
62862.43359646529,14.666938926551666,106465.0,18334.0,908.0
62862.443594378674,14.67693683993275,106462.0,18302.0,867.0
62862.453592292055,14.686934753313835,106473.0,18306.0,886.0
62862.46359020543,14.696932666687644,106466.0,18305.0,923.0
62862.47358811881,14.706930580068729,106469.0,18302.0,877.0
62862.48358603219,14.716928493449814,106490.0,18319.0,880.0
62862.493583945565,14.726926406823623,106473.0,18317.0,883.0
62862.503581858946,14.736924320204707,106464.0,18306.0,876.0
62862.51357977233,14.746922233585792,106478.0,18296.0,890.0
62862.5235776857,14.756920146959601,106441.0,18291.0,862.0
62862.53357559908,14.766918060340686,106475.0,18317.0,885.0
62862.54357351246,14.77691597372177,106481.0,18312.0,853.0
62862.55357142584,14.78691388709558,106459.0,18300.0,867.0
62862.56356933922,14.796911800476664,106474.0,18309.0,891.0
62862.5735672526,14.806909713857749,106468.0,18312.0,895.0
62862.58356516597,14.816907627231558,106482.0,18295.0,885.0
62862.593563079354,14.826905540612643,106490.0,18330.0,917.0
62862.603560992735,14.836903453993727,106468.0,18285.0,881.0
62862.61355890611,14.846901367367536,106478.0,18305.0,892.0
62862.62355681949,14.856899280748621,106436.0,18311.0,877.0
62862.63355473287,14.866897194129706,106495.0,18312.0,938.0
62862.64355264625,14.87689510751079,106451.0,18285.0,885.0
62862.653550559626,14.8868930208846,106458.0,18295.0,887.0
62862.66354847301,14.896890934265684,106482.0,18326.0,890.0
62862.67354638639,14.90688884764677,106464.0,18285.0,872.0
62862.68354429976,14.916886761020578,106489.0,18323.0,919.0
62862.69354221314,14.926884674401663,106481.0,18321.0,890.0
62862.703540126524,14.936882587782748,106484.0,18327.0,878.0
62862.7135380399,14.946880501156556,106510.0,18320.0,896.0
62862.72353595328,14.956878414537641,106474.0,18304.0,893.0
62862.73353386666,14.966876327918726,106481.0,18314.0,888.0
62862.743531780034,14.976874241292535,106483.0,18296.0,902.0
62862.753529693415,14.98687215467362,106467.0,18284.0,891.0
62862.763527606796,14.996870068054704,106504.0,18302.0,902.0
62862.77352552017,15.006867981428513,106500.0,18321.0,895.0
62862.78352343355,15.016865894809598,106504.0,18343.0,905.0
62862.79352134693,15.026863808190683,106488.0,18339.0,920.0
62862.803519260306,15.036861721564492,106507.0,18308.0,922.0
62862.81351717369,15.046859634945577,106498.0,18320.0,900.0
62862.82351508707,15.056857548326661,106493.0,18321.0,873.0
62862.83351300044,15.06685546170047,106530.0,18316.0,909.0
62862.84351091382,15.076853375081555,106467.0,18277.0,865.0
62862.853508827204,15.08685128846264,106496.0,18313.0,897.0
62862.86350674058,15.096849201836449,106474.0,18337.0,879.0
62862.87350465396,15.106847115217533,106486.0,18296.0,865.0
62862.88350256734,15.116845028598618,106496.0,18310.0,855.0
62862.89350048071,15.126842941972427,106492.0,18314.0,889.0
62862.903498394095,15.136840855353512,106472.0,18275.0,907.0
62862.913496307476,15.146838768734597,106517.0,18308.0,910.0
62862.92349422085,15.156836682108406,106506.0,18295.0,907.0
62862.93349213423,15.16683459548949,106477.0,18322.0,875.0
62862.94349004761,15.176832508870575,106498.0,18301.0,895.0
62862.953487960986,15.186830422244384,106513.0,18319.0,858.0
62862.96348587437,15.196828335625469,106483.0,18292.0,877.0
62862.97348378775,15.206826249006554,106496.0,18308.0,904.0
62862.98348170112,15.216824162380362,106489.0,18334.0,901.0
62862.9934796145,15.226822075761447,106475.0,18296.0,902.0
62863.003477527884,15.236819989142532,106516.0,18292.0,900.0
62863.01347544126,15.24681790251634,106504.0,18330.0,907.0
62863.02347335464,15.256815815897426,106498.0,18319.0,883.0
62863.03347126802,15.26681372927851,106487.0,18290.0,891.0
62863.04346918139,15.27681164265232,106469.0,18291.0,876.0
62863.053467094775,15.286809556033404,106514.0,18330.0,904.0
62863.063465008156,15.296807469414489,106500.0,18319.0,894.0
62863.07346292153,15.306805382788298,106485.0,18314.0,910.0
62863.08346083491,15.316803296169383,106508.0,18314.0,889.0
62863.09345874829,15.326801209550467,106522.0,18306.0,916.0
62863.103456661665,15.336799122924276,106505.0,18309.0,887.0
62863.11345457505,15.346797036305361,106483.0,18288.0,885.0
62863.12345248843,15.356794949686446,106526.0,18342.0,914.0
62863.1334504018,15.366792863060255,106479.0,18328.0,893.0
62863.14344831518,15.37679077644134,106492.0,18322.0,895.0
62863.15344622856,15.386788689822424,106532.0,18300.0,892.0
62863.16344414194,15.396786603196233,106490.0,18302.0,879.0
62863.17344205532,15.406784516577318,106490.0,18340.0,914.0
62863.1834399687,15.416782429958403,106479.0,18312.0,893.0
62863.19343788207,15.426780343332211,106442.0,18316.0,883.0
62863.203435795454,15.436778256713296,106470.0,18333.0,879.0
62863.213433708836,15.446776170094381,106500.0,18301.0,890.0
62863.22343162222,15.456774083475466,106485.0,18323.0,892.0
62863.23342953559,15.466771996849275,106518.0,18342.0,908.0
62863.24342744897,15.47676991023036,106465.0,18315.0,864.0
62863.25342536235,15.486767823611444,106475.0,18344.0,896.0
62863.26342327573,15.496765736985253,106475.0,18317.0,897.0
62863.27342118911,15.506763650366338,106475.0,18297.0,877.0
62863.28341910249,15.516761563747423,106464.0,18282.0,882.0
62863.29341701586,15.526759477121232,106500.0,18331.0,906.0
62863.30341492924,15.536757390502316,106455.0,18298.0,874.0
62863.313412842625,15.546755303883401,106467.0,18309.0,884.0
62863.323410756,15.55675321725721,106486.0,18330.0,910.0
62863.33340866938,15.566751130638295,106485.0,18320.0,859.0
62863.34340658276,15.57674904401938,106475.0,18302.0,889.0
62863.353404496134,15.586746957393188,106474.0,18314.0,900.0
62863.363402409515,15.596744870774273,106463.0,18304.0,888.0
62863.3734003229,15.606742784155358,106460.0,18318.0,902.0
62863.38339823627,15.616740697529167,106483.0,18310.0,889.0
62863.39339614965,15.626738610910252,106498.0,18291.0,890.0
62863.40339406303,15.636736524291337,106487.0,18316.0,863.0
62863.413391976406,15.646734437665145,106493.0,18301.0,905.0
62863.42338988979,15.65673235104623,106473.0,18307.0,897.0
62863.43338780317,15.666730264427315,106461.0,18331.0,884.0
62863.44338571654,15.676728177801124,106447.0,18291.0,899.0
62863.45338362992,15.686726091182209,106491.0,18320.0,894.0
62863.463381543304,15.696724004563293,106470.0,18309.0,888.0
62863.47337945668,15.706721917937102,106449.0,18290.0,870.0
62863.48337737006,15.716719831318187,106436.0,18315.0,885.0
62863.49337528344,15.726717744699272,106492.0,18326.0,894.0
62863.503373196814,15.73671565807308,106484.0,18302.0,888.0
62863.513371110195,15.746713571454166,106455.0,18289.0,909.0
62863.52336902358,15.75671148483525,106498.0,18321.0,894.0
62863.53336693695,15.76670939820906,106456.0,18304.0,883.0
62863.54336485033,15.776707311590144,106482.0,18314.0,897.0
62863.55336276371,15.786705224971229,106490.0,18324.0,896.0
62863.563360677086,15.796703138345038,106498.0,18293.0,887.0
62863.57335859047,15.806701051726122,106503.0,18314.0,864.0
62863.58335650385,15.816698965107207,106480.0,18310.0,906.0
62863.59335441722,15.826696878481016,106481.0,18290.0,888.0
62863.6033523306,15.8366947918621,106459.0,18310.0,880.0
62863.613350243984,15.846692705243186,106443.0,18324.0,892.0
62863.62334815736,15.856690618616994,106477.0,18309.0,887.0
62863.63334607074,15.86668853199808,106479.0,18281.0,891.0
62863.64334398412,15.876686445379164,106473.0,18297.0,869.0
62863.653341897494,15.886684358752973,106469.0,18294.0,861.0
62863.663339810875,15.896682272134058,106514.0,18323.0,908.0
62863.673337724256,15.906680185515143,106484.0,18321.0,893.0
62863.68333563763,15.916678098888951,106464.0,18298.0,883.0
62863.69333355101,15.926676012270036,106464.0,18306.0,875.0
62863.70333146439,15.936673925651121,106512.0,18309.0,906.0
62863.713329377766,15.94667183902493,106473.0,18305.0,883.0
62863.72332729115,15.956669752406015,106468.0,18333.0,902.0
62863.73332520453,15.9666676657871,106511.0,18326.0,903.0
62863.7433231179,15.976665579160908,106512.0,18326.0,873.0
62863.75332103128,15.986663492541993,106498.0,18317.0,884.0
62863.763318944664,15.996661405923078,106462.0,18306.0,852.0
62863.77331685804,16.006659319296887,106472.0,18295.0,874.0
62863.78331477142,16.01665723267797,106507.0,18327.0,911.0
62863.7933126848,16.026655146059056,106491.0,18321.0,895.0
62863.80331059818,16.03665305944014,106500.0,18312.0,887.0
62863.813308511555,16.04665097281395,106495.0,18324.0,889.0
62863.823306424936,16.056648886195035,106483.0,18304.0,890.0
62863.83330433832,16.06664679957612,106511.0,18333.0,909.0
62863.84330225169,16.07664471294993,106498.0,18329.0,884.0
62863.85330016507,16.086642626331013,106512.0,18340.0,919.0
62863.86329807845,16.096640539712098,106527.0,18324.0,905.0
62863.87329599183,16.106638453085907,106494.0,18314.0,890.0
62863.88329390521,16.11663636646699,106510.0,18334.0,901.0
62863.89329181859,16.126634279848076,106498.0,18317.0,869.0
62863.90328973196,16.136632193221885,106494.0,18332.0,899.0
62863.913287645344,16.14663010660297,106500.0,18307.0,883.0
62863.923285558725,16.156628019984055,106484.0,18283.0,902.0
62863.9332834721,16.166625933357864,106498.0,18292.0,884.0
62863.94328138548,16.17662384673895,106497.0,18338.0,911.0
62863.95327929886,16.186621760120033,106503.0,18314.0,888.0
62863.963277212235,16.196619673493842,106490.0,18302.0,869.0
62863.973275125616,16.206617586874927,106496.0,18285.0,886.0
62863.983273039,16.21661550025601,106477.0,18306.0,873.0
62863.99327095237,16.22661341362982,106481.0,18312.0,891.0
62864.00326886575,16.236611327010905,106494.0,18324.0,902.0
62864.01326677913,16.24660924039199,106479.0,18297.0,895.0
62864.02326469251,16.2566071537658,106506.0,18314.0,907.0
62864.03326260589,16.266605067146884,106494.0,18313.0,891.0
62864.04326051927,16.27660298052797,106479.0,18287.0,882.0
62864.05325843264,16.286600893901777,106461.0,18291.0,875.0
62864.063256346024,16.296598807282862,106487.0,18337.0,912.0
62864.073254259405,16.306596720663947,106488.0,18308.0,891.0
62864.08325217278,16.316594634037756,106483.0,18316.0,876.0
62864.09325008616,16.32659254741884,106498.0,18301.0,913.0
62864.10324799954,16.336590460799925,106506.0,18342.0,908.0
62864.113245912915,16.346588374173734,106470.0,18310.0,893.0
62864.123243826296,16.35658628755482,106449.0,18308.0,870.0
62864.13324173968,16.366584200935904,106456.0,18299.0,888.0
62864.14323965305,16.376582114309713,106501.0,18322.0,907.0
62864.15323756643,16.386580027690798,106469.0,18316.0,890.0
62864.16323547981,16.396577941071882,106490.0,18336.0,871.0
62864.17323339319,16.40657585444569,106430.0,18313.0,861.0
62864.18323130657,16.416573767826776,106462.0,18317.0,877.0
62864.19322921995,16.42657168120786,106477.0,18316.0,898.0
62864.20322713332,16.43656959458167,106479.0,18347.0,887.0
62864.213225046704,16.446567507962754,106444.0,18335.0,869.0
62864.223222960085,16.45656542134384,106483.0,18342.0,873.0
62864.23322087346,16.466563334717648,106455.0,18302.0,873.0
62864.24321878684,16.476561248098733,106460.0,18339.0,906.0
62864.25321670022,16.486559161479818,106445.0,18308.0,869.0
62864.263214613595,16.496557074853627,106480.0,18344.0,903.0
62864.273212526976,16.50655498823471,106481.0,18314.0,889.0
62864.28321044036,16.516552901615796,106491.0,18305.0,885.0
62864.29320835373,16.526550814989605,106462.0,18307.0,897.0
62864.30320626711,16.53654872837069,106439.0,18310.0,893.0
62864.31320418049,16.546546641751775,106491.0,18310.0,918.0
62864.32320209387,16.556544555125583,106478.0,18313.0,886.0
62864.33320000725,16.56654246850667,106472.0,18319.0,864.0
62864.34319792063,16.576540381887753,106476.0,18300.0,870.0
62864.353195834,16.586538295261562,106495.0,18321.0,886.0
62864.363193747384,16.596536208642647,106444.0,18298.0,909.0
62864.373191660765,16.60653412202373,106456.0,18299.0,893.0
62864.383189574146,16.616532035404816,106446.0,18305.0,871.0
62864.39318748752,16.626529948778625,106485.0,18333.0,883.0
62864.4031854009,16.63652786215971,106463.0,18306.0,889.0
62864.41318331428,16.646525775540795,106479.0,18314.0,901.0
62864.423181227656,16.656523688914604,106480.0,18316.0,901.0
62864.43317914104,16.66652160229569,106437.0,18298.0,897.0
62864.44317705442,16.676519515676773,106466.0,18309.0,891.0
62864.45317496779,16.686517429050582,106462.0,18305.0,905.0
62864.46317288117,16.696515342431667,106470.0,18328.0,888.0
62864.473170794554,16.70651325581275,106451.0,18290.0,908.0
62864.48316870793,16.71651116918656,106472.0,18314.0,894.0
62864.49316662131,16.726509082567645,106483.0,18306.0,915.0
62864.50316453469,16.73650699594873,106465.0,18324.0,876.0
62864.513162448064,16.74650490932254,106482.0,18333.0,917.0
62864.523160361445,16.756502822703624,106464.0,18310.0,899.0
62864.533158274826,16.76650073608471,106472.0,18312.0,874.0
62864.5431561882,16.776498649458517,106477.0,18344.0,911.0
62864.55315410158,16.786496562839602,106449.0,18300.0,870.0
62864.56315201496,16.796494476220687,106471.0,18318.0,886.0
62864.573149928336,16.806492389594496,106470.0,18305.0,878.0
62864.58314784172,16.81649030297558,106478.0,18298.0,859.0
62864.5931457551,16.826488216356665,106473.0,18338.0,902.0
62864.60314366847,16.836486129730474,106480.0,18310.0,886.0
62864.61314158185,16.84648404311156,106489.0,18305.0,887.0
62864.623139495234,16.856481956492644,106480.0,18277.0,875.0
62864.63313740861,16.866479869866453,106421.0,18281.0,882.0
62864.64313532199,16.876477783247537,106479.0,18307.0,883.0
62864.65313323537,16.886475696628622,106439.0,18334.0,882.0
62864.66313114874,16.89647361000243,106467.0,18311.0,914.0
62864.673129062125,16.906471523383516,106485.0,18314.0,863.0
62864.683126975506,16.9164694367646,106486.0,18308.0,890.0
62864.69312488888,16.92646735013841,106482.0,18319.0,905.0
62864.70312280226,16.936465263519494,106465.0,18311.0,874.0
62864.71312071564,16.94646317690058,106517.0,18334.0,913.0
62864.723118629016,16.956461090274388,106486.0,18306.0,879.0
62864.7331165424,16.966459003655473,106487.0,18301.0,880.0
62864.74311445578,16.976456917036558,106502.0,18350.0,864.0
62864.75311236915,16.986454830410366,106454.0,18327.0,873.0
62864.76311028253,16.99645274379145,106493.0,18323.0,887.0
62864.773108195914,17.006450657172536,106453.0,18284.0,876.0
62864.78310610929,17.016448570546345,106471.0,18295.0,872.0
62864.79310402267,17.02644648392743,106505.0,18300.0,890.0
62864.80310193605,17.036444397308514,106499.0,18314.0,889.0
62864.81309984942,17.046442310682323,106470.0,18293.0,909.0
62864.823097762805,17.056440224063408,106478.0,18311.0,888.0
62864.833095676186,17.066438137444493,106471.0,18279.0,863.0
62864.84309358956,17.0764360508183,106496.0,18311.0,893.0
62864.85309150294,17.086433964199387,106474.0,18318.0,891.0
62864.86308941632,17.09643187758047,106506.0,18322.0,891.0
62864.873087329695,17.10642979095428,106531.0,18338.0,919.0
62864.88308524308,17.116427704335365,106497.0,18312.0,902.0
62864.89308315646,17.12642561771645,106533.0,18317.0,922.0
62864.90308106983,17.13642353109026,106489.0,18315.0,863.0
62864.91307898321,17.146421444471343,106508.0,18338.0,903.0
62864.92307689659,17.156419357852428,106498.0,18317.0,860.0
62864.93307480997,17.166417271226237,106505.0,18295.0,910.0
62864.94307272335,17.176415184607322,106500.0,18331.0,899.0
62864.95307063673,17.186413097988407,106473.0,18282.0,884.0
62864.9630685501,17.196411011362216,106487.0,18323.0,887.0
62864.973066463484,17.2064089247433,106489.0,18292.0,877.0
62864.983064376866,17.216406838124385,106466.0,18288.0,875.0
62864.99306229025,17.22640475150547,106470.0,18333.0,873.0
62865.00306020362,17.23640266487928,106472.0,18311.0,891.0
62865.013058117,17.246400578260364,106488.0,18339.0,905.0
62865.02305603038,17.25639849164145,106507.0,18310.0,889.0
62865.03305394376,17.266396405015257,106453.0,18334.0,886.0
62865.04305185714,17.276394318396342,106460.0,18294.0,877.0
62865.05304977052,17.286392231777427,106474.0,18304.0,887.0
62865.06304768389,17.296390145151236,106498.0,18346.0,881.0
62865.07304559727,17.30638805853232,106495.0,18294.0,889.0
62865.083043510655,17.316385971913405,106507.0,18331.0,883.0
62865.09304142403,17.326383885287214,106483.0,18326.0,880.0
62865.10303933741,17.3363817986683,106469.0,18302.0,895.0
62865.11303725079,17.346379712049384,106493.0,18326.0,909.0
62865.123035164164,17.356377625423193,106467.0,18303.0,893.0
62865.133033077545,17.366375538804277,106481.0,18314.0,882.0
62865.14303099093,17.376373452185362,106486.0,18314.0,897.0
62865.1530289043,17.38637136555917,106450.0,18297.0,874.0
62865.16302681768,17.396369278940256,106414.0,18331.0,874.0
62865.17302473106,17.40636719232134,106474.0,18322.0,892.0
62865.183022644436,17.41636510569515,106477.0,18317.0,872.0
62865.19302055782,17.426363019076234,106481.0,18323.0,866.0
62865.2030184712,17.43636093245732,106491.0,18329.0,908.0
62865.21301638457,17.446358845831128,106489.0,18317.0,889.0
62865.22301429795,17.456356759212213,106485.0,18302.0,870.0
62865.233012211334,17.466354672593297,106497.0,18297.0,909.0
62865.24301012471,17.476352585967106,106468.0,18301.0,867.0
62865.25300803809,17.48635049934819,106492.0,18319.0,894.0
62865.26300595147,17.496348412729276,106513.0,18309.0,902.0
62865.273003864844,17.506346326103085,106506.0,18333.0,921.0
62865.283001778225,17.51634423948417,106492.0,18341.0,894.0
62865.29299969161,17.526342152865254,106472.0,18301.0,912.0
62865.30299760498,17.536340066239063,106450.0,18302.0,902.0
62865.31299551836,17.546337979620148,106494.0,18313.0,890.0
62865.32299343174,17.556335893001233,106465.0,18301.0,897.0
62865.332991345116,17.56633380637504,106481.0,18316.0,888.0
62865.3429892585,17.576331719756126,106474.0,18332.0,890.0
62865.35298717188,17.58632963313721,106517.0,18312.0,913.0
62865.36298508525,17.59632754651102,106503.0,18335.0,879.0
62865.37298299863,17.606325459892105,106492.0,18312.0,894.0
62865.382980912014,17.61632337327319,106474.0,18308.0,888.0
62865.39297882539,17.626321286647,106482.0,18307.0,881.0
62865.40297673877,17.636319200028083,106511.0,18321.0,918.0
62865.41297465215,17.646317113409168,106484.0,18322.0,888.0
62865.422972565524,17.656315026782977,106486.0,18319.0,874.0
62865.432970478905,17.66631294016406,106486.0,18333.0,906.0
62865.442968392286,17.676310853545147,106461.0,18308.0,869.0
62865.45296630566,17.686308766918955,106498.0,18307.0,890.0
62865.46296421904,17.69630668030004,106501.0,18321.0,915.0
62865.47296213242,17.706304593681125,106454.0,18303.0,875.0
62865.482960045796,17.716302507054934,106494.0,18296.0,900.0
62865.49295795918,17.72630042043602,106494.0,18316.0,882.0
62865.50295587256,17.736298333817103,106466.0,18311.0,875.0
62865.51295378593,17.746296247190912,106474.0,18350.0,887.0
62865.52295169931,17.756294160571997,106500.0,18324.0,895.0
62865.532949612694,17.766292073953082,106487.0,18315.0,891.0
62865.54294752607,17.77628998732689,106505.0,18315.0,851.0
62865.55294543945,17.786287900707975,106472.0,18298.0,879.0
62865.56294335283,17.79628581408906,106487.0,18320.0,888.0
62865.57294126621,17.806283727470145,106496.0,18309.0,888.0
62865.582939179585,17.816281640843954,106506.0,18339.0,871.0
62865.592937092966,17.82627955422504,106476.0,18280.0,875.0
62865.60293500635,17.836277467606124,106525.0,18340.0,873.0
62865.61293291972,17.846275380979932,106506.0,18326.0,877.0
62865.6229308331,17.856273294361017,106483.0,18306.0,925.0
62865.63292874648,17.866271207742102,106524.0,18338.0,907.0
62865.64292665986,17.87626912111591,106481.0,18304.0,873.0
62865.65292457324,17.886267034496996,106510.0,18313.0,913.0
62865.66292248662,17.89626494787808,106507.0,18331.0,894.0
62865.67292039999,17.90626286125189,106477.0,18303.0,887.0
62865.682918313374,17.916260774632974,106484.0,18321.0,908.0
62865.692916226755,17.92625868801406,106495.0,18321.0,893.0
62865.70291414013,17.936256601387868,106490.0,18305.0,890.0
62865.71291205351,17.946254514768953,106503.0,18321.0,859.0
62865.72290996689,17.956252428150037,106529.0,18322.0,904.0
62865.732907880265,17.966250341523846,106489.0,18293.0,879.0
62865.742905793646,17.97624825490493,106503.0,18315.0,896.0
62865.75290370703,17.986246168286016,106515.0,18303.0,885.0
62865.7629016204,17.996244081659825,106542.0,18314.0,876.0
62865.77289953378,18.00624199504091,106527.0,18333.0,902.0
62865.78289744716,18.016239908421994,106512.0,18314.0,892.0
62865.79289536054,18.026237821795803,106473.0,18309.0,874.0
62865.80289327392,18.036235735176888,106523.0,18324.0,909.0
62865.8128911873,18.046233648557973,106488.0,18282.0,879.0
62865.82288910067,18.05623156193178,106488.0,18304.0,874.0
62865.832887014054,18.066229475312866,106500.0,18317.0,888.0
62865.842884927435,18.07622738869395,106478.0,18307.0,902.0
62865.85288284081,18.08622530206776,106465.0,18313.0,860.0
62865.86288075419,18.096223215448845,106500.0,18321.0,887.0
62865.87287866757,18.10622112882993,106509.0,18304.0,872.0
62865.882876580945,18.11621904220374,106513.0,18342.0,877.0
62865.892874494326,18.126216955584823,106499.0,18330.0,916.0
62865.90287240771,18.136214868965908,106494.0,18308.0,888.0
62865.91287032108,18.146212782339717,106487.0,18309.0,871.0
62865.92286823446,18.1562106957208,106494.0,18327.0,904.0
62865.93286614784,18.166208609101886,106487.0,18307.0,870.0
62865.94286406122,18.176206522475695,106507.0,18315.0,876.0
62865.9528619746,18.18620443585678,106519.0,18315.0,897.0
62865.96285988798,18.196202349237865,106490.0,18329.0,917.0
62865.97285780135,18.206200262611674,106486.0,18336.0,900.0
62865.982855714734,18.21619817599276,106497.0,18310.0,890.0
62865.992853628115,18.226196089373843,106480.0,18309.0,871.0
62866.00285154149,18.236194002747652,106489.0,18308.0,893.0
62866.01284945487,18.246191916128737,106499.0,18340.0,900.0
62866.02284736825,18.25618982950982,106490.0,18323.0,885.0
62866.032845281625,18.26618774288363,106453.0,18304.0,873.0
62866.042843195006,18.276185656264715,106514.0,18320.0,906.0
62866.05284110839,18.2861835696458,106489.0,18310.0,873.0
62866.06283902176,18.29618148301961,106505.0,18328.0,887.0
62866.07283693514,18.306179396400694,106511.0,18318.0,908.0
62866.08283484852,18.31617730978178,106491.0,18339.0,885.0
62866.0928327619,18.326175223155587,106524.0,18349.0,897.0
62866.10283067528,18.336173136536672,106501.0,18314.0,888.0
62866.11282858866,18.346171049917757,106501.0,18319.0,872.0
62866.12282650203,18.356168963291566,106521.0,18327.0,868.0
62866.132824415414,18.36616687667265,106479.0,18312.0,870.0
62866.142822328795,18.376164790053735,106486.0,18311.0,893.0
62866.152820242176,18.38616270343482,106493.0,18314.0,892.0
62866.16281815555,18.39616061680863,106482.0,18285.0,893.0
62866.17281606893,18.406158530189714,106525.0,18325.0,879.0
62866.18281398231,18.4161564435708,106495.0,18318.0,891.0
62866.192811895686,18.426154356944608,106468.0,18301.0,873.0
62866.20280980907,18.436152270325692,106461.0,18321.0,895.0
62866.21280772245,18.446150183706777,106509.0,18320.0,915.0
62866.22280563582,18.456148097080586,106471.0,18294.0,885.0
62866.2328035492,18.46614601046167,106480.0,18308.0,864.0
62866.242801462584,18.476143923842756,106497.0,18311.0,896.0
62866.25279937596,18.486141837216564,106476.0,18295.0,873.0
62866.26279728934,18.49613975059765,106497.0,18317.0,906.0
62866.27279520272,18.506137663978734,106503.0,18313.0,882.0
62866.282793116094,18.516135577352543,106468.0,18283.0,871.0
62866.292791029475,18.526133490733628,106485.0,18302.0,900.0
62866.302788942856,18.536131404114712,106496.0,18314.0,878.0
62866.31278685623,18.54612931748852,106491.0,18319.0,900.0
62866.32278476961,18.556127230869606,106501.0,18346.0,871.0
62866.33278268299,18.56612514425069,106510.0,18312.0,898.0
62866.342780596366,18.5761230576245,106502.0,18324.0,892.0
62866.35277850975,18.586120971005585,106510.0,18361.0,894.0
62866.36277642313,18.59611888438667,106486.0,18296.0,890.0
62866.3727743365,18.606116797760478,106493.0,18331.0,922.0
62866.38277224988,18.616114711141563,106477.0,18313.0,876.0
62866.392770163264,18.626112624522648,106504.0,18303.0,895.0
62866.40276807664,18.636110537896457,106501.0,18315.0,861.0
62866.41276599002,18.64610845127754,106528.0,18326.0,914.0
62866.4227639034,18.656106364658626,106497.0,18312.0,881.0
62866.43276181677,18.666104278032435,106506.0,18311.0,889.0
62866.442759730155,18.67610219141352,106526.0,18341.0,899.0
62866.452757643536,18.686100104794605,106480.0,18316.0,868.0
62866.46275555691,18.696098018168414,106472.0,18292.0,877.0
62866.47275347029,18.7060959315495,106512.0,18306.0,893.0
62866.48275138367,18.716093844930583,106508.0,18328.0,919.0
62866.492749297046,18.726091758304392,106504.0,18302.0,888.0
62866.50274721043,18.736089671685477,106479.0,18296.0,893.0
62866.51274512381,18.74608758506656,106513.0,18323.0,890.0
62866.52274303718,18.75608549844037,106489.0,18306.0,886.0
62866.53274095056,18.766083411821455,106519.0,18342.0,913.0
62866.542738863944,18.77608132520254,106486.0,18313.0,887.0
62866.55273677732,18.78607923857635,106516.0,18321.0,891.0
62866.5627346907,18.796077151957434,106542.0,18312.0,906.0
62866.57273260408,18.80607506533852,106517.0,18348.0,904.0
62866.58273051745,18.816072978712327,106528.0,18341.0,919.0
62866.592728430835,18.826070892093412,106508.0,18323.0,891.0
62866.602726344216,18.836068805474497,106504.0,18289.0,887.0
62866.61272425759,18.846066718848306,106524.0,18329.0,922.0
62866.62272217097,18.85606463222939,106453.0,18296.0,860.0
62866.63272008435,18.866062545610475,106522.0,18310.0,887.0
62866.642717997725,18.876060458984284,106521.0,18339.0,900.0
62866.65271591111,18.88605837236537,106514.0,18299.0,873.0
62866.66271382449,18.896056285746454,106520.0,18331.0,892.0
62866.67271173786,18.906054199120263,106504.0,18315.0,889.0
62866.68270965124,18.916052112501347,106496.0,18300.0,876.0
62866.69270756462,18.926050025882432,106536.0,18329.0,908.0
62866.702705478,18.93604793925624,106501.0,18319.0,908.0
62866.71270339138,18.946045852637326,106503.0,18318.0,885.0
62866.72270130476,18.95604376601841,106452.0,18322.0,882.0
62866.73269921814,18.966041679399495,106526.0,18329.0,917.0
62866.742697131514,18.976039592773304,106498.0,18298.0,868.0
62866.752695044896,18.98603750615439,106486.0,18333.0,897.0
62866.76269295828,18.996035419535474,106491.0,18319.0,921.0
62866.77269087165,19.006033332909283,106505.0,18336.0,917.0
62866.78268878503,19.016031246290368,106508.0,18338.0,909.0
62866.79268669841,19.026029159671452,106499.0,18321.0,892.0
62866.80268461179,19.03602707304526,106494.0,18300.0,887.0
62866.81268252517,19.046024986426346,106519.0,18323.0,897.0
62866.82268043855,19.05602289980743,106502.0,18297.0,887.0
62866.83267835192,19.06602081318124,106495.0,18319.0,880.0
62866.8426762653,19.076018726562324,106506.0,18322.0,888.0
62866.852674178685,19.08601663994341,106482.0,18300.0,889.0
62866.86267209206,19.096014553317218,106492.0,18314.0,874.0
62866.87267000544,19.106012466698303,106500.0,18317.0,898.0
62866.88266791882,19.116010380079388,106480.0,18298.0,875.0
62866.892665832194,19.126008293453197,106510.0,18354.0,906.0
62866.902663745575,19.13600620683428,106522.0,18326.0,897.0
62866.91266165896,19.146004120215366,106493.0,18323.0,876.0
62866.92265957233,19.156002033589175,106497.0,18318.0,872.0
62866.93265748571,19.16599994697026,106502.0,18291.0,887.0
62866.94265539909,19.175997860351345,106476.0,18299.0,897.0
62866.952653312466,19.185995773725153,106502.0,18309.0,886.0
62866.96265122585,19.195993687106238,106524.0,18346.0,888.0
62866.97264913923,19.205991600487323,106482.0,18305.0,870.0
62866.9826470526,19.215989513861132,106492.0,18344.0,909.0
62866.99264496598,19.225987427242217,106495.0,18320.0,878.0
62867.002642879364,19.2359853406233,106478.0,18315.0,893.0
62867.01264079274,19.24598325399711,106480.0,18312.0,905.0
62867.02263870612,19.255981167378195,106483.0,18298.0,876.0
62867.0326366195,19.26597908075928,106494.0,18323.0,876.0
62867.042634532874,19.27597699413309,106516.0,18338.0,888.0
62867.052632446255,19.285974907514174,106527.0,18335.0,876.0
62867.06263035964,19.29597282089526,106486.0,18298.0,870.0
62867.07262827301,19.305970734269067,106482.0,18320.0,874.0
62867.08262618639,19.315968647650152,106501.0,18311.0,888.0
62867.09262409977,19.325966561031237,106536.0,18353.0,895.0
62867.102622013146,19.335964474405046,106520.0,18317.0,905.0
62867.11261992653,19.34596238778613,106493.0,18309.0,900.0
62867.12261783991,19.355960301167215,106509.0,18327.0,890.0
62867.13261575328,19.365958214541024,106485.0,18315.0,880.0
62867.14261366666,19.37595612792211,106486.0,18333.0,879.0
62867.152611580044,19.385954041303194,106526.0,18365.0,905.0
62867.16260949342,19.395951954677003,106493.0,18311.0,888.0
62867.1726074068,19.405949868058087,106504.0,18329.0,907.0
62867.18260532018,19.415947781439172,106514.0,18332.0,915.0
62867.192603233554,19.42594569481298,106492.0,18318.0,876.0
62867.202601146935,19.435943608194066,106521.0,18318.0,877.0
62867.212599060316,19.44594152157515,106521.0,18322.0,879.0
62867.22259697369,19.45593943494896,106503.0,18316.0,895.0
62867.23259488707,19.465937348330044,106487.0,18307.0,863.0
62867.24259280045,19.47593526171113,106508.0,18322.0,888.0
62867.252590713826,19.485933175084938,106549.0,18331.0,920.0
62867.26258862721,19.495931088466023,106500.0,18312.0,878.0
62867.27258654059,19.505929001847107,106489.0,18324.0,874.0
62867.28258445396,19.515926915220916,106470.0,18302.0,875.0
62867.29258236734,19.525924828602,106478.0,18312.0,877.0
62867.302580280724,19.535922741983086,106503.0,18314.0,893.0
62867.312578194105,19.54592065536417,106544.0,18318.0,907.0
62867.32257610748,19.55591856873798,106506.0,18329.0,883.0
62867.33257402086,19.565916482119064,106477.0,18313.0,897.0
62867.34257193424,19.57591439550015,106524.0,18333.0,909.0
62867.352569847615,19.585912308873958,106521.0,18322.0,908.0
62867.362567760996,19.595910222255043,106512.0,18326.0,890.0
62867.37256567438,19.605908135636128,106487.0,18341.0,895.0
62867.38256358775,19.615906049009936,106505.0,18332.0,909.0
62867.39256150113,19.62590396239102,106510.0,18356.0,889.0
62867.40255941451,19.635901875772106,106506.0,18326.0,886.0
62867.41255732789,19.645899789145915,106495.0,18338.0,902.0
62867.42255524127,19.655897702527,106529.0,18343.0,914.0
62867.43255315465,19.665895615908084,106493.0,18297.0,882.0
62867.44255106802,19.675893529281893,106523.0,18317.0,890.0
62867.452548981404,19.685891442662978,106524.0,18302.0,922.0
62867.462546894785,19.695889356044063,106514.0,18345.0,899.0
62867.47254480816,19.70588726941787,106497.0,18312.0,871.0
62867.48254272154,19.715885182798957,106514.0,18316.0,878.0
62867.49254063492,19.72588309618004,106530.0,18305.0,870.0
62867.502538548295,19.73588100955385,106506.0,18315.0,893.0
62867.512536461676,19.745878922934935,106510.0,18320.0,904.0
62867.52253437506,19.75587683631602,106524.0,18325.0,889.0
62867.53253228843,19.76587474968983,106514.0,18348.0,869.0
62867.54253020181,19.775872663070913,106531.0,18322.0,911.0
62867.55252811519,19.785870576451998,106485.0,18304.0,868.0
62867.56252602857,19.795868489825807,106501.0,18328.0,888.0
62867.57252394195,19.805866403206892,106516.0,18345.0,891.0
62867.58252185533,19.815864316587977,106522.0,18349.0,910.0
62867.5925197687,19.825862229961785,106494.0,18308.0,880.0
62867.602517682084,19.83586014334287,106497.0,18317.0,891.0
62867.612515595465,19.845858056723955,106468.0,18307.0,906.0
62867.62251350884,19.855855970097764,106523.0,18331.0,905.0
62867.63251142222,19.86585388347885,106467.0,18310.0,887.0
62867.6425093356,19.875851796859934,106497.0,18327.0,889.0
62867.652507248975,19.885849710233742,106453.0,18351.0,890.0
62867.662505162356,19.895847623614827,106468.0,18332.0,869.0
62867.67250307574,19.905845536995912,106499.0,18319.0,873.0
62867.68250098911,19.91584345036972,106488.0,18327.0,853.0
62867.69249890249,19.925841363750806,106498.0,18321.0,898.0
62867.70249681587,19.93583927713189,106476.0,18313.0,864.0
62867.71249472925,19.9458371905057,106499.0,18311.0,891.0
62867.72249264263,19.955835103886784,106474.0,18321.0,881.0
62867.73249055601,19.96583301726787,106488.0,18277.0,891.0
62867.74248846938,19.975830930641678,106501.0,18315.0,895.0
62867.752486382764,19.985828844022762,106466.0,18314.0,858.0
62867.762484296145,19.995826757403847,106503.0,18323.0,906.0
62867.77248220952,20.005824670777656,106496.0,18333.0,894.0
62867.7824801229,20.01582258415874,106530.0,18353.0,900.0
62867.79247803628,20.025820497539826,106468.0,18318.0,866.0
62867.802475949655,20.035818410913635,106486.0,18304.0,854.0
62867.812473863036,20.04581632429472,106519.0,18324.0,896.0
62867.82247177642,20.055814237675804,106484.0,18333.0,892.0
62867.83246968979,20.065812151049613,106467.0,18317.0,876.0
62867.84246760317,20.075810064430698,106500.0,18332.0,853.0
62867.85246551655,20.085807977811783,106493.0,18316.0,891.0
