timestamp,PPG_1,PPG_2,PPG_3,time_from_segment_start_sec
62858.88481225331,164913.0,89894.0,5161.0,0.0
62858.894901220854,164967.0,89927.0,5144.0,0.010088967545016203
62858.9049901884,164964.0,89930.0,5141.0,0.020177935090032406
62858.91507915595,164959.0,89915.0,5142.0,0.030266902642324567
62858.9251681235,164980.0,89939.0,5144.0,0.04035587018734077
62858.93525709104,165011.0,89943.0,5167.0,0.05044483773235697
62858.945346058594,165063.0,89950.0,5156.0,0.060533805284649134
62858.95543502614,165017.0,89958.0,5158.0,0.07062277282966534
62858.965523993684,165051.0,89960.0,5180.0,0.08071174037468154
62858.97561296123,165037.0,89964.0,5174.0,0.09080070791969774
62858.98570192878,165020.0,89966.0,5177.0,0.1008896754719899
62858.995790896326,165047.0,89956.0,5155.0,0.1109786430170061
62859.00587986387,165086.0,89994.0,5206.0,0.12106761056202231
62859.01596883142,165077.0,89971.0,5186.0,0.13115657811431447
62859.02605779897,165085.0,89969.0,5166.0,0.14124554565933067
62859.03614676651,165082.0,89943.0,5192.0,0.15133451320434688
62859.046235734066,165038.0,89947.0,5182.0,0.16142348075663904
62859.05632470161,165020.0,89959.0,5188.0,0.17151244830165524
62859.066413669156,164981.0,89933.0,5153.0,0.18160141584667144
62859.07650263671,164999.0,89965.0,5180.0,0.1916903833989636
62859.08659160425,164933.0,89928.0,5127.0,0.2017793509439798
62859.0966805718,164911.0,89930.0,5144.0,0.211868318488996
62859.10676953935,164884.0,89941.0,5148.0,0.22195728604128817
62859.116858506895,164850.0,89941.0,5099.0,0.23204625358630437
62859.12694747444,164804.0,89933.0,5100.0,0.24213522113132058
62859.13703644199,164823.0,89899.0,5083.0,0.25222418868361274
62859.14712540954,164809.0,89882.0,5083.0,0.26231315622862894
62859.15721437708,164819.0,89924.0,5075.0,0.27240212377364514
62859.16730334463,164787.0,89873.0,5087.0,0.28249109131866135
62859.17739231218,164799.0,89895.0,5072.0,0.2925800588709535
62859.187481279725,164788.0,89915.0,5068.0,0.3026690264159697
62859.19757024727,164808.0,89875.0,5079.0,0.3127579939609859
62859.20765921482,164783.0,89910.0,5064.0,0.3228469615132781
62859.21774818237,164811.0,89908.0,5083.0,0.3329359290582943
62859.22783714991,164816.0,89900.0,5063.0,0.3430248966033105
62859.237926117465,164847.0,89912.0,5100.0,0.35311386415560264
62859.24801508501,164856.0,89915.0,5117.0,0.36320283170061884
62859.258104052555,164835.0,89914.0,5106.0,0.37329179924563505
62859.26819302011,164845.0,89897.0,5087.0,0.3833807667979272
62859.27828198765,164856.0,89954.0,5093.0,0.3934697343429434
62859.2883709552,164869.0,89929.0,5128.0,0.4035587018879596
62859.29845992275,164849.0,89911.0,5133.0,0.4136476694402518
62859.308548890294,164863.0,89915.0,5117.0,0.423736636985268
62859.31863785784,164846.0,89895.0,5117.0,0.4338256045302842
62859.328726825384,164886.0,89914.0,5125.0,0.4439145720753004
62859.33881579294,164865.0,89912.0,5127.0,0.45400353962759255
62859.34890476048,164862.0,89923.0,5103.0,0.46409250717260875
62859.35899372803,164866.0,89936.0,5086.0,0.47418147471762495
62859.36908269558,164835.0,89912.0,5089.0,0.4842704422699171
62859.379171663124,164864.0,89925.0,5101.0,0.4943594098149333
62859.38926063067,164857.0,89938.0,5095.0,0.5044483773599495
62859.39934959822,164840.0,89911.0,5078.0,0.5145373449122417
62859.409438565766,164841.0,89874.0,5091.0,0.5246263124572579
62859.41952753331,164877.0,89934.0,5116.0,0.5347152800022741
62859.42961650086,164848.0,89919.0,5102.0,0.5448042475545662
62859.43970546841,164867.0,89923.0,5096.0,0.5548932150995824
62859.449794435954,164847.0,89930.0,5079.0,0.5649821826445987
62859.459883403506,164868.0,89921.0,5071.0,0.5750711501968908
62859.46997237105,164879.0,89930.0,5106.0,0.585160117741907
62859.480061338596,164892.0,89916.0,5102.0,0.5952490852869232
62859.49015030615,164870.0,89918.0,5125.0,0.6053380528392154
62859.50023927369,164875.0,89905.0,5113.0,0.6154270203842316
62859.51032824124,164917.0,89940.0,5121.0,0.6255159879292478
62859.52041720878,164938.0,89927.0,5129.0,0.635604955474264
62859.530506176336,164943.0,89937.0,5140.0,0.6456939230265561
62859.54059514388,164946.0,89942.0,5153.0,0.6557828905715724
62859.550684111426,164932.0,89907.0,5117.0,0.6658718581165886
62859.56077307898,164936.0,89939.0,5166.0,0.6759608256688807
62859.57086204652,165000.0,89960.0,5179.0,0.6860497932138969
62859.58095101407,165015.0,89995.0,5168.0,0.6961387607589131
62859.59103998162,165002.0,89963.0,5150.0,0.7062277283112053
62859.601128949165,165013.0,89941.0,5162.0,0.7163166958562215
62859.61121791671,165029.0,89939.0,5182.0,0.7264056634012377
62859.62130688426,165002.0,89948.0,5169.0,0.7364946309535298
62859.63139585181,165025.0,89961.0,5176.0,0.746583598498546
62859.64148481935,165008.0,89960.0,5166.0,0.7566725660435623
62859.651573786905,165030.0,89947.0,5161.0,0.7667615335958544
62859.66166275445,165079.0,89989.0,5194.0,0.7768505011408706
62859.671751721995,165068.0,89981.0,5183.0,0.7869394686858868
62859.68184068955,165019.0,89921.0,5197.0,0.797028436238179
62859.69192965709,165043.0,89966.0,5179.0,0.8071174037831952
62859.70201862464,165073.0,89984.0,5197.0,0.8172063713282114
62859.71210759218,165083.0,89977.0,5180.0,0.8272953388732276
62859.722196559735,165112.0,89969.0,5222.0,0.8373843064255198
62859.73228552728,165102.0,89996.0,5212.0,0.847473273970536
62859.742374494825,165114.0,89997.0,5207.0,0.8575622415155522
62859.75246346238,165116.0,89986.0,5211.0,0.8676512090678443
62859.76255242992,165138.0,89980.0,5223.0,0.8777401766128605
62859.77264139747,165079.0,89940.0,5213.0,0.8878291441578767
62859.78273036502,165111.0,89978.0,5193.0,0.8979181117101689
62859.792819332564,165138.0,89994.0,5217.0,0.9080070792551851
62859.80290830011,165141.0,90007.0,5202.0,0.9180960468002013
62859.81299726766,165140.0,89986.0,5197.0,0.9281850143524935
62859.82308623521,165164.0,89987.0,5229.0,0.9382739818975097
62859.83317520275,165170.0,89992.0,5241.0,0.9483629494425259
62859.843264170304,165200.0,90036.0,5237.0,0.958451916994818
62859.85335313785,165209.0,90024.0,5244.0,0.9685408845398342
62859.863442105394,165215.0,90022.0,5223.0,0.9786298520848504
62859.87353107294,165185.0,90011.0,5226.0,0.9887188196298666
62859.88362004049,165148.0,89995.0,5255.0,0.9988077871821588
62859.893709008036,165172.0,89998.0,5227.0,1.008896754727175
62859.90379797558,165132.0,89972.0,5241.0,1.0189857222721912
62859.91388694313,165077.0,89983.0,5196.0,1.0290746898244834
62859.92397591068,165084.0,89974.0,5195.0,1.0391636573694996
62859.93406487822,165049.0,89966.0,5203.0,1.0492526249145158
62859.944153845776,164978.0,89941.0,5160.0,1.059341592466808
62859.95424281332,165017.0,89971.0,5216.0,1.0694305600118241
62859.964331780866,164969.0,89954.0,5146.0,1.0795195275568403
62859.97442074842,164959.0,89971.0,5139.0,1.0896084951091325
62859.98450971596,164931.0,89917.0,5137.0,1.0996974626541487
62859.99459868351,164917.0,89934.0,5132.0,1.109786430199165
62860.00468765106,164924.0,89943.0,5132.0,1.119875397751457
62860.014776618606,164903.0,89932.0,5130.0,1.1299643652964733
62860.02486558615,164929.0,89953.0,5158.0,1.1400533328414895
62860.0349545537,164919.0,89928.0,5114.0,1.1501423003937816
62860.04504352125,164921.0,89948.0,5123.0,1.1602312679387978
62860.05513248879,164931.0,89950.0,5151.0,1.170320235483814
62860.06522145634,164909.0,89921.0,5141.0,1.1804092030288302
62860.07531042389,164923.0,89970.0,5153.0,1.1904981705811224
62860.085399391435,164990.0,89956.0,5164.0,1.2005871381261386
62860.09548835898,164963.0,89941.0,5160.0,1.2106761056711548
62860.10557732653,164957.0,89940.0,5133.0,1.220765073223447
62860.11566629408,165008.0,89929.0,5167.0,1.2308540407684632
62860.12575526162,165001.0,89954.0,5152.0,1.2409430083134794
62860.135844229175,164988.0,89958.0,5127.0,1.2510319758657715
62860.14593319672,165006.0,89983.0,5181.0,1.2611209434107877
62860.156022164265,164979.0,89948.0,5139.0,1.271209910955804
62860.16611113182,165016.0,89955.0,5167.0,1.281298878508096
62860.17620009936,164976.0,89947.0,5148.0,1.2913878460531123
62860.18628906691,164973.0,89951.0,5152.0,1.3014768135981285
62860.19637803446,164975.0,89946.0,5140.0,1.3115657811504207
62860.206467002005,164995.0,89961.0,5150.0,1.3216547486954369
62860.21655596955,164978.0,89952.0,5158.0,1.331743716240453
62860.226644937095,164961.0,89941.0,5130.0,1.3418326837854693
62860.23673390465,165001.0,89972.0,5130.0,1.3519216513377614
62860.24682287219,164995.0,89953.0,5152.0,1.3620106188827776
62860.25691183974,164949.0,89943.0,5170.0,1.3720995864277938
62860.26700080729,164984.0,89966.0,5145.0,1.382188553980086
62860.277089774834,164981.0,89957.0,5134.0,1.3922775215251022
62860.28717874238,164996.0,89954.0,5142.0,1.4023664890701184
62860.29726770993,165003.0,89950.0,5141.0,1.4124554566224106
62860.30735667748,165036.0,89988.0,5163.0,1.4225444241674268
62860.31744564502,165016.0,89951.0,5153.0,1.432633391712443
62860.327534612574,165035.0,89969.0,5169.0,1.4427223592647351
62860.33762358012,165062.0,89971.0,5163.0,1.4528113268097513
62860.347712547664,165001.0,89926.0,5150.0,1.4629002943547675
62860.357801515216,165056.0,89950.0,5179.0,1.4729892619070597
62860.36789048276,165059.0,89980.0,5176.0,1.483078229452076
62860.377979450306,165093.0,90022.0,5212.0,1.493167196997092
62860.38806841786,165063.0,89981.0,5175.0,1.5032561645493843
62860.3981573854,165116.0,90020.0,5207.0,1.5133451320944005
62860.40824635295,165117.0,89992.0,5206.0,1.5234340996394167
62860.41833532049,165129.0,89966.0,5197.0,1.5335230671844329
62860.428424288046,165159.0,89989.0,5204.0,1.543612034736725
62860.43851325559,165138.0,90002.0,5230.0,1.5537010022817412
62860.448602223136,165164.0,90003.0,5196.0,1.5637899698267574
62860.45869119069,165135.0,90005.0,5230.0,1.5738789373790496
62860.46878015823,165210.0,90007.0,5254.0,1.5839679049240658
62860.47886912578,165207.0,90037.0,5244.0,1.594056872469082
62860.48895809333,165187.0,90016.0,5240.0,1.6041458400213742
62860.499047060875,165177.0,90006.0,5236.0,1.6142348075663904
62860.50913602842,165174.0,89988.0,5238.0,1.6243237751114066
62860.51922499597,165188.0,90035.0,5236.0,1.6344127426636987
62860.52931396352,165198.0,90019.0,5272.0,1.644501710208715
62860.53940293106,165234.0,90027.0,5239.0,1.6545906777537311
62860.549491898615,165220.0,90021.0,5239.0,1.6646796453060233
62860.55958086616,165265.0,90046.0,5263.0,1.6747686128510395
62860.569669833705,165235.0,90029.0,5254.0,1.6848575803960557
62860.57975880126,165261.0,90023.0,5250.0,1.6949465479483479
62860.5898477688,165250.0,90014.0,5242.0,1.705035515493364
62860.59993673635,165252.0,90047.0,5259.0,1.7151244830383803
62860.61002570389,165268.0,90032.0,5254.0,1.7252134505833965
62860.620114671445,165290.0,90055.0,5285.0,1.7353024181356886
62860.63020363899,165261.0,90039.0,5285.0,1.7453913856807048
62860.640292606535,165264.0,90026.0,5250.0,1.755480353225721
62860.65038157409,165313.0,90072.0,5304.0,1.7655693207780132
62860.66047054163,165315.0,90041.0,5279.0,1.7756582883230294
62860.67055950918,165308.0,90037.0,5270.0,1.7857472558680456
62860.68064847673,165343.0,90067.0,5272.0,1.7958362234203378
62860.690737444274,165319.0,90059.0,5290.0,1.805925190965354
62860.70082641182,165317.0,90044.0,5296.0,1.8160141585103702
62860.71091537937,165309.0,90030.0,5273.0,1.8261031260626623
62860.72100434692,165327.0,90047.0,5300.0,1.8361920936076785
62860.73109331446,165269.0,90016.0,5257.0,1.8462810611526947
62860.741182282014,165225.0,90027.0,5260.0,1.856370028704987
62860.75127124956,165233.0,90016.0,5278.0,1.866458996250003
62860.761360217104,165159.0,89997.0,5226.0,1.8765479637950193
62860.77144918465,165152.0,90014.0,5238.0,1.8866369313400355
62860.7815381522,165125.0,90005.0,5225.0,1.8967258988923277
62860.79162711975,165089.0,89966.0,5205.0,1.9068148664373439
62860.80171608729,165081.0,89974.0,5196.0,1.91690383398236
62860.811805054844,165113.0,89999.0,5206.0,1.9269928015346522
62860.82189402239,165065.0,89977.0,5189.0,1.9370817690796684
62860.831982989934,165056.0,89976.0,5183.0,1.9471707366246847
62860.842071957486,165063.0,90005.0,5184.0,1.9572597041769768
62860.85216092503,165060.0,89949.0,5166.0,1.967348671721993
62860.862249892576,165075.0,89975.0,5183.0,1.9774376392670092
62860.87233886013,165065.0,89972.0,5187.0,1.9875266068193014
62860.88242782767,165089.0,90000.0,5200.0,1.9976155743643176
62860.89251679522,165100.0,90005.0,5202.0,2.007704541909334
62860.90260576277,165087.0,89989.0,5185.0,2.017793509461626
62860.912694730316,165104.0,89983.0,5229.0,2.027882477006642
62860.92278369786,165095.0,89959.0,5191.0,2.0379714445516584
62860.93287266541,165135.0,90018.0,5228.0,2.0480604121039505
62860.94296163296,165128.0,89989.0,5216.0,2.0581493796489667
62860.9530506005,165112.0,90013.0,5219.0,2.068238347193983
62860.96313956805,165109.0,90003.0,5191.0,2.078327314738999
62860.9732285356,165113.0,89982.0,5208.0,2.0884162822912913
62860.983317503145,165143.0,90001.0,5219.0,2.0985052498363075
62860.99340647069,165129.0,89995.0,5207.0,2.1085942173813237
62861.00349543824,165127.0,89978.0,5205.0,2.118683184933616
62861.01358440579,165097.0,89985.0,5204.0,2.128772152478632
62861.02367337333,165086.0,89986.0,5186.0,2.1388611200236483
62861.033762340885,165091.0,90015.0,5217.0,2.1489500875759404
62861.04385130843,165119.0,89972.0,5215.0,2.1590390551209566
62861.053940275975,165090.0,89976.0,5188.0,2.169128022665973
62861.06402924353,165097.0,89985.0,5211.0,2.179216990218265
62861.07411821107,165074.0,90003.0,5199.0,2.189305957763281
62861.08420717862,165076.0,89966.0,5174.0,2.1993949253082974
62861.09429614617,165116.0,90021.0,5226.0,2.2094838928605895
62861.104385113715,165067.0,89996.0,5187.0,2.2195728604056058
62861.11447408126,165109.0,89982.0,5202.0,2.229661827950622
62861.12456304881,165109.0,89982.0,5198.0,2.239750795502914
62861.13465201636,165106.0,89974.0,5195.0,2.2498397630479303
62861.1447409839,165117.0,89976.0,5187.0,2.2599287305929465
62861.15482995145,165139.0,90007.0,5204.0,2.2700176981379627
62861.164918919,165131.0,90036.0,5227.0,2.280106665690255
62861.175007886544,165140.0,89969.0,5192.0,2.290195633235271
62861.18509685409,165148.0,89978.0,5221.0,2.3002846007802873
62861.19518582164,165166.0,90041.0,5224.0,2.3103735683325795
62861.20527478919,165153.0,90002.0,5274.0,2.3204625358775957
62861.21536375673,165201.0,90035.0,5241.0,2.330551503422612
62861.225452724284,165177.0,89982.0,5241.0,2.340640470974904
62861.23554169183,165212.0,90019.0,5236.0,2.3507294385199202
62861.245630659374,165227.0,90008.0,5240.0,2.3608184060649364
62861.255719626926,165241.0,90040.0,5236.0,2.3709073736172286
62861.26580859447,165218.0,89994.0,5242.0,2.380996341162245
62861.275897562016,165236.0,90027.0,5265.0,2.391085308707261
62861.28598652957,165256.0,90052.0,5276.0,2.401174276259553
62861.29607549711,165239.0,90040.0,5242.0,2.4112632438045694
62861.30616446466,165245.0,89999.0,5254.0,2.4213522113495856
62861.316253432204,165262.0,90040.0,5267.0,2.4314411788946018
62861.326342399756,165294.0,90059.0,5272.0,2.441530146446894
62861.3364313673,165266.0,90032.0,5249.0,2.45161911399191
62861.346520334846,165294.0,90045.0,5281.0,2.4617080815369263
62861.3566093024,165281.0,90027.0,5278.0,2.4717970490892185
62861.36669826994,165274.0,90016.0,5263.0,2.4818860166342347
62861.37678723749,165308.0,90037.0,5306.0,2.491974984179251
62861.38687620504,165269.0,90039.0,5297.0,2.502063951731543
62861.396965172586,165313.0,90052.0,5295.0,2.5121529192765593
62861.40705414013,165290.0,90024.0,5271.0,2.5222418868215755
62861.41714310768,165333.0,90066.0,5329.0,2.5323308543738676
62861.42723207523,165276.0,90016.0,5274.0,2.542419821918884
62861.43732104277,165332.0,90060.0,5296.0,2.5525087894639
62861.447410010325,165311.0,90036.0,5301.0,2.562597757016192
62861.45749897787,165328.0,90069.0,5313.0,2.5726867245612084
62861.467587945415,165293.0,90046.0,5282.0,2.5827756921062246
62861.47767691297,165307.0,90044.0,5301.0,2.5928646596585168
62861.48776588051,165299.0,90023.0,5308.0,2.602953627203533
62861.49785484806,165261.0,90034.0,5260.0,2.613042594748549
62861.5079438156,165243.0,90041.0,5287.0,2.6231315622935654
62861.518032783155,165189.0,90012.0,5259.0,2.6332205298458575
62861.5281217507,165154.0,90031.0,5244.0,2.6433094973908737
62861.538210718245,165118.0,90010.0,5226.0,2.65339846493589
62861.5482996858,165159.0,90015.0,5242.0,2.663487432488182
62861.55838865334,165107.0,89968.0,5212.0,2.6735764000331983
62861.56847762089,165093.0,89986.0,5199.0,2.6836653675782145
62861.57856658844,165107.0,89992.0,5225.0,2.6937543351305067
62861.588655555985,165048.0,89958.0,5191.0,2.703843302675523
62861.59874452353,165071.0,89985.0,5199.0,2.713932270220539
62861.60883349108,165087.0,89995.0,5206.0,2.7240212377728312
62861.61892245863,165083.0,89975.0,5188.0,2.7341102053178474
62861.62901142617,165069.0,89991.0,5181.0,2.7441991728628636
62861.639100393724,165085.0,89987.0,5218.0,2.754288140415156
62861.64918936127,165075.0,90000.0,5191.0,2.764377107960172
62861.659278328814,165066.0,89970.0,5183.0,2.774466075505188
62861.66936729637,165072.0,90007.0,5211.0,2.7845550430574804
62861.67945626391,165095.0,89986.0,5195.0,2.7946440106024966
62861.68954523146,165106.0,89970.0,5211.0,2.8047329781475128
62861.699634199,165125.0,89997.0,5228.0,2.814821945692529
62861.709723166554,165096.0,89999.0,5239.0,2.824910913244821
62861.7198121341,165118.0,89969.0,5208.0,2.8349998807898373
62861.729901101644,165135.0,89986.0,5224.0,2.8450888483348535
62861.739990069196,165129.0,89982.0,5217.0,2.8551778158871457
62861.75007903674,165106.0,89972.0,5202.0,2.865266783432162
62861.760168004286,165148.0,90028.0,5226.0,2.875355750977178
62861.77025697184,165117.0,89998.0,5213.0,2.8854447185294703
62861.78034593938,165087.0,89997.0,5255.0,2.8955336860744865
62861.79043490693,165122.0,90024.0,5218.0,2.9056226536195027
62861.80052387448,165075.0,89987.0,5216.0,2.915711621171795
62861.810612842026,165083.0,89998.0,5214.0,2.925800588716811
62861.82070180957,165108.0,89980.0,5191.0,2.9358895562618272
62861.83079077712,165099.0,89998.0,5212.0,2.9459785238141194
62861.84087974467,165044.0,89965.0,5190.0,2.9560674913591356
62861.85096871221,165074.0,89988.0,5196.0,2.966156458904152
62861.86105767976,165079.0,89968.0,5192.0,2.976245426449168
62861.87114664731,165073.0,89964.0,5185.0,2.98633439400146
62861.881235614856,165093.0,90002.0,5226.0,2.9964233615464764
62861.8913245824,165090.0,89983.0,5207.0,3.0065123290914926
62861.90141354995,165093.0,90035.0,5213.0,3.0166012966437847
62861.9115025175,165066.0,89989.0,5204.0,3.026690264188801
62861.92159148504,165123.0,90014.0,5219.0,3.036779231733817
62861.931680452595,165119.0,90003.0,5210.0,3.0468681992861093
62861.94176942014,165115.0,89970.0,5195.0,3.0569571668311255
62861.951858387685,165160.0,90021.0,5234.0,3.0670461343761417
62861.96194735524,165134.0,89982.0,5195.0,3.077135101928434
62861.97203632278,165146.0,89993.0,5218.0,3.08722406947345
62861.98212529033,165146.0,90001.0,5233.0,3.0973130370184663
62861.99221425788,165156.0,89992.0,5224.0,3.1074020045707584
62862.002303225425,165192.0,90032.0,5217.0,3.1174909721157746
62862.01239219297,165183.0,90001.0,5250.0,3.127579939660791
62862.02248116052,165177.0,89992.0,5247.0,3.137668907213083
62862.03257012807,165178.0,89996.0,5257.0,3.147757874758099
62862.04265909561,165157.0,90019.0,5240.0,3.1578468423031154
62862.05274806316,165210.0,90018.0,5253.0,3.1679358098481316
62862.06283703071,165236.0,90002.0,5281.0,3.1780247774004238
62862.072925998255,165234.0,90021.0,5241.0,3.18811374494544
62862.0830149658,165221.0,90032.0,5280.0,3.198202712490456
62862.09310393335,165193.0,90000.0,5249.0,3.2082916800427483
62862.1031929009,165194.0,90021.0,5242.0,3.2183806475877645
62862.11328186844,165237.0,89994.0,5269.0,3.2284696151327807
62862.123370835994,165206.0,90003.0,5250.0,3.238558582685073
62862.13345980354,165251.0,90028.0,5280.0,3.248647550230089
62862.143548771084,165250.0,90026.0,5254.0,3.2587365177751053
62862.15363773864,165247.0,89998.0,5275.0,3.2688254853273975
62862.16372670618,165260.0,90053.0,5276.0,3.2789144528724137
62862.17381567373,165237.0,90026.0,5254.0,3.28900342041743
62862.18390464128,165191.0,90014.0,5286.0,3.299092387969722
62862.193993608824,165218.0,90043.0,5279.0,3.3091813555147382
62862.20408257637,165170.0,89991.0,5251.0,3.3192703230597544
62862.214171543914,165139.0,90009.0,5246.0,3.3293592906047706
62862.224260511466,165112.0,89975.0,5235.0,3.339448258157063
62862.23434947901,165088.0,90023.0,5232.0,3.349537225702079
62862.244438446556,165052.0,90002.0,5220.0,3.359626193247095
62862.25452741411,164995.0,89965.0,5184.0,3.3697151607993874
62862.26461638165,164992.0,89948.0,5169.0,3.3798041283444036
62862.2747053492,164972.0,89992.0,5181.0,3.38989309588942
62862.28479431675,164960.0,89935.0,5151.0,3.399982063441712
62862.294883284296,164915.0,89921.0,5156.0,3.410071030986728
62862.30497225184,164942.0,89949.0,5140.0,3.4201599985317443
62862.31506121939,164925.0,89965.0,5134.0,3.4302489660840365
62862.32515018694,164907.0,89942.0,5133.0,3.4403379336290527
62862.33523915448,164900.0,89956.0,5141.0,3.450426901174069
62862.345328122035,164923.0,89952.0,5137.0,3.460515868726361
62862.35541708958,164941.0,89952.0,5146.0,3.4706048362713773
62862.365506057125,164941.0,89973.0,5161.0,3.4806938038163935
62862.37559502468,164907.0,89960.0,5145.0,3.4907827713686856
62862.38568399222,164941.0,89947.0,5149.0,3.500871738913702
62862.39577295977,164932.0,89943.0,5131.0,3.510960706458718
62862.40586192731,164919.0,89932.0,5138.0,3.5210496740037343
62862.415950894865,164969.0,89975.0,5160.0,3.5311386415560264
62862.42603986241,164946.0,89960.0,5151.0,3.5412276091010426
62862.436128829955,164948.0,89928.0,5131.0,3.551316576646059
62862.44621779751,164942.0,89919.0,5153.0,3.561405544198351
62862.45630676505,164981.0,89960.0,5153.0,3.571494511743367
62862.4663957326,164954.0,89956.0,5158.0,3.5815834792883834
62862.47648470015,164935.0,89976.0,5168.0,3.5916724468406755
62862.486573667695,164907.0,89961.0,5150.0,3.6017614143856918
62862.49666263524,164935.0,89949.0,5185.0,3.611850381930708
62862.50675160279,164902.0,89948.0,5144.0,3.621939349483
62862.51684057034,164899.0,89953.0,5120.0,3.6320283170280163
62862.52692953788,164888.0,89910.0,5123.0,3.6421172845730325
62862.537018505434,164911.0,89976.0,5139.0,3.6522062521253247
62862.54710747298,164892.0,89940.0,5136.0,3.662295219670341
62862.557196440524,164879.0,89940.0,5132.0,3.672384187215357
62862.56728540808,164879.0,89934.0,5119.0,3.6824731547676492
62862.57737437562,164904.0,89911.0,5142.0,3.6925621223126655
62862.58746334317,164895.0,89952.0,5123.0,3.7026510898576817
62862.59755231071,164899.0,89926.0,5121.0,3.712740057402698
62862.607641278264,164903.0,89949.0,5151.0,3.72282902495499
62862.61773024581,164910.0,89940.0,5118.0,3.732917992500006
62862.627819213354,164914.0,89943.0,5126.0,3.7430069600450224
62862.63790818091,164931.0,89929.0,5127.0,3.7530959275973146
62862.64799714845,164963.0,89961.0,5120.0,3.763184895142331
62862.658086116,164953.0,89952.0,5162.0,3.773273862687347
62862.66817508355,164963.0,89970.0,5155.0,3.783362830239639
62862.678264051094,164934.0,89953.0,5136.0,3.7934517977846554
62862.68835301864,164963.0,89968.0,5139.0,3.8035407653296716
62862.69844198619,165017.0,89992.0,5195.0,3.8136297328819637
62862.708530953736,165009.0,89962.0,5169.0,3.82371870042698
62862.71861992128,165009.0,89972.0,5141.0,3.833807667971996
62862.72870888883,165038.0,89986.0,5190.0,3.8438966355242883
62862.73879785638,165048.0,90002.0,5200.0,3.8539856030693045
62862.74888682392,165034.0,89966.0,5183.0,3.8640745706143207
62862.75897579147,165023.0,89976.0,5187.0,3.874163538159337
62862.76906475902,165045.0,89986.0,5184.0,3.884252505711629
62862.779153726566,165011.0,89970.0,5197.0,3.8943414732566453
62862.78924269411,165040.0,89975.0,5214.0,3.9044304408016615
62862.79933166166,165054.0,90007.0,5192.0,3.9145194083539536
62862.80942062921,165028.0,89978.0,5187.0,3.92460837589897
62862.81950959675,165036.0,90015.0,5178.0,3.934697343443986
62862.829598564305,165040.0,89988.0,5198.0,3.944786310996278
62862.83968753185,165052.0,89961.0,5197.0,3.9548752785412944
62862.849776499395,165038.0,89962.0,5181.0,3.9649642460863106
62862.85986546695,165055.0,90006.0,5202.0,3.9750532136386028
62862.86995443449,165092.0,90002.0,5221.0,3.985142181183619
62862.88004340204,165075.0,90024.0,5204.0,3.995231148728635
62862.89013236959,165066.0,89985.0,5205.0,4.005320116280927
62862.900221337135,165029.0,90006.0,5177.0,4.0154090838259435
62862.91031030468,165053.0,89994.0,5181.0,4.02549805137096
62862.92039927223,165023.0,89974.0,5200.0,4.035587018923252
62862.93048823978,164995.0,89959.0,5236.0,4.045675986468268
62862.94057720732,164973.0,89958.0,5160.0,4.055764954013284
62862.95066617487,164944.0,89977.0,5180.0,4.0658539215583005
62862.96075514242,164890.0,89944.0,5144.0,4.075942889110593
62862.970844109965,164866.0,89953.0,5150.0,4.086031856655609
62862.98093307751,164838.0,89948.0,5100.0,4.096120824200625
62862.99102204506,164796.0,89908.0,5071.0,4.106209791752917
62863.00111101261,164770.0,89915.0,5080.0,4.116298759297933
62863.01119998015,164740.0,89893.0,5063.0,4.12638772684295
62863.021288947704,164755.0,89886.0,5094.0,4.136476694395242
62863.03137791525,164726.0,89910.0,5085.0,4.146565661940258
62863.041466882794,164715.0,89897.0,5060.0,4.156654629485274
62863.05155585035,164702.0,89883.0,5059.0,4.166743597037566
62863.06164481789,164728.0,89929.0,5069.0,4.176832564582583
62863.07173378544,164668.0,89881.0,5037.0,4.186921532127599
62863.08182275299,164701.0,89902.0,5036.0,4.197010499679891
62863.091911720534,164665.0,89877.0,5041.0,4.207099467224907
62863.10200068808,164675.0,89856.0,5043.0,4.217188434769923
62863.11208965563,164669.0,89861.0,5054.0,4.2272774023222155
62863.122178623176,164672.0,89894.0,5038.0,4.237366369867232
62863.13226759072,164661.0,89904.0,5045.0,4.247455337412248
62863.142356558266,164687.0,89895.0,5054.0,4.257544304957264
62863.15244552582,164662.0,89889.0,4991.0,4.267633272509556
62863.16253449336,164653.0,89884.0,5028.0,4.2777222400545725
62863.17262346091,164637.0,89889.0,5025.0,4.287811207599589
62863.18271242846,164635.0,89869.0,5042.0,4.297900175151881
62863.192801396006,164615.0,89888.0,5035.0,4.307989142696897
62863.20289036355,164660.0,89897.0,5028.0,4.318078110241913
62863.2129793311,164621.0,89870.0,5019.0,4.328167077794205
62863.22306829865,164621.0,89887.0,4990.0,4.338256045339222
62863.23315726619,164643.0,89900.0,5031.0,4.348345012884238
62863.243246233746,164630.0,89877.0,5022.0,4.35843398043653
62863.25333520129,164641.0,89871.0,5026.0,4.368522947981546
62863.263424168836,164596.0,89888.0,5023.0,4.378611915526562
62863.27351313639,164593.0,89872.0,5006.0,4.3887008830788545
62863.28360210393,164623.0,89880.0,5009.0,4.398789850623871
62863.29369107148,164625.0,89877.0,5001.0,4.408878818168887
62863.30378003902,164614.0,89889.0,5014.0,4.418967785713903
62863.313869006575,164582.0,89875.0,4988.0,4.429056753266195
62863.32395797412,164609.0,89883.0,5022.0,4.4391457208112115
62863.334046941665,164637.0,89877.0,4991.0,4.449234688356228
62863.34413590922,164609.0,89887.0,5009.0,4.45932365590852
62863.35422487676,164668.0,89912.0,5007.0,4.469412623453536
62863.36431384431,164654.0,89888.0,5025.0,4.479501590998552
62863.37440281186,164671.0,89914.0,5025.0,4.489590558550844
62863.384491779405,164649.0,89890.0,5007.0,4.499679526095861
62863.39458074695,164682.0,89910.0,5067.0,4.509768493640877
62863.4046697145,164657.0,89895.0,5028.0,4.519857461193169
62863.41475868205,164664.0,89865.0,5034.0,4.529946428738185
62863.42484764959,164702.0,89895.0,5009.0,4.540035396283201
62863.434936617145,164699.0,89895.0,5059.0,4.550124363835494
62863.44502558469,164681.0,89905.0,5036.0,4.56021333138051
62863.455114552235,164694.0,89906.0,5037.0,4.570302298925526
62863.46520351979,164729.0,89883.0,5059.0,4.580391266477818
62863.47529248733,164749.0,89941.0,5093.0,4.590480234022834
62863.48538145488,164730.0,89944.0,5075.0,4.6005692015678505
62863.49547042242,164744.0,89933.0,5061.0,4.610658169112867
62863.505559389974,164732.0,89899.0,5071.0,4.620747136665159
62863.51564835752,164769.0,89944.0,5085.0,4.630836104210175
62863.525737325064,164739.0,89903.0,5062.0,4.640925071755191
62863.53582629262,164756.0,89929.0,5070.0,4.6510140393074835
62863.54591526016,164748.0,89914.0,5071.0,4.6611030068525
62863.55600422771,164741.0,89904.0,5087.0,4.671191974397516
62863.56609319526,164683.0,89920.0,5042.0,4.681280941949808
62863.576182162804,164761.0,89928.0,5071.0,4.691369909494824
62863.58627113035,164791.0,89931.0,5092.0,4.7014588770398404
62863.5963600979,164753.0,89921.0,5092.0,4.711547844592133
62863.606449065446,164806.0,89948.0,5092.0,4.721636812137149
62863.61653803299,164809.0,89937.0,5086.0,4.731725779682165
62863.62662700054,164766.0,89933.0,5109.0,4.741814747234457
62863.63671596809,164797.0,89967.0,5106.0,4.751903714779473
62863.64680493563,164838.0,89934.0,5108.0,4.76199268232449
62863.656893903186,164834.0,89968.0,5097.0,4.772081649876782
62863.66698287073,164810.0,89960.0,5107.0,4.782170617421798
62863.677071838276,164803.0,89942.0,5085.0,4.792259584966814
62863.68716080582,164810.0,89926.0,5108.0,4.80234855251183
62863.69724977337,164826.0,89954.0,5096.0,4.8124375200641225
62863.70733874092,164754.0,89972.0,5099.0,4.822526487609139
62863.71742770846,164752.0,89920.0,5095.0,4.832615455154155
62863.727516676016,164741.0,89925.0,5061.0,4.842704422706447
62863.73760564356,164699.0,89929.0,5076.0,4.852793390251463
62863.747694611106,164662.0,89935.0,5073.0,4.8628823577964795
62863.75778357866,164632.0,89920.0,5042.0,4.872971325348772
62863.7678725462,164597.0,89885.0,5040.0,4.883060292893788
62863.77796151375,164565.0,89886.0,5008.0,4.893149260438804
62863.7880504813,164530.0,89882.0,4978.0,4.903238227991096
62863.798139448845,164517.0,89880.0,4948.0,4.913327195536112
62863.80822841639,164486.0,89871.0,5004.0,4.923416163081129
62863.81831738394,164490.0,89863.0,4966.0,4.933505130633421
62863.82840635149,164483.0,89851.0,4952.0,4.943594098178437
62863.83849531903,164449.0,89849.0,4945.0,4.953683065723453
62863.84858428658,164418.0,89845.0,4937.0,4.963772033268469
62863.85867325413,164461.0,89858.0,4960.0,4.9738610008207615
62863.868762221675,164475.0,89887.0,4934.0,4.983949968365778
62863.87885118922,164425.0,89867.0,4939.0,4.994038935910794
62863.88894015677,164432.0,89883.0,4951.0,5.004127903463086
62863.89902912432,164426.0,89856.0,4964.0,5.014216871008102
62863.90911809186,164443.0,89835.0,4960.0,5.0243058385531185
62863.919207059414,164398.0,89830.0,4940.0,5.034394806105411
62863.92929602696,164453.0,89870.0,4962.0,5.044483773650427
62863.939384994505,164428.0,89857.0,4924.0,5.054572741195443
62863.94947396206,164409.0,89838.0,4979.0,5.064661708747735
62863.9595629296,164418.0,89862.0,5001.0,5.0747506762927515
62863.96965189715,164392.0,89824.0,4938.0,5.084839643837768
62863.9797408647,164416.0,89846.0,4942.0,5.09492861139006
62863.989829832244,164411.0,89833.0,4965.0,5.105017578935076
62863.99991879979,164423.0,89870.0,4965.0,5.115106546480092
62864.01000776734,164376.0,89860.0,4924.0,5.125195514032384
62864.02009673489,164425.0,89852.0,4974.0,5.135284481577401
62864.03018570243,164395.0,89867.0,4949.0,5.145373449122417
62864.04027466998,164383.0,89836.0,4929.0,5.155462416667433
62864.05036363753,164419.0,89872.0,4960.0,5.165551384219725
62864.060452605074,164368.0,89847.0,4954.0,5.175640351764741
62864.07054157262,164404.0,89862.0,4945.0,5.185729319309758
62864.08063054017,164372.0,89845.0,4927.0,5.19581828686205
62864.090719507716,164400.0,89855.0,4934.0,5.205907254407066
62864.10080847526,164381.0,89838.0,4914.0,5.215996221952082
62864.11089744281,164418.0,89867.0,4952.0,5.226085189504374
62864.12098641036,164421.0,89879.0,4954.0,5.2361741570493905
62864.1310753779,164407.0,89849.0,4949.0,5.246263124594407
62864.141164345456,164419.0,89887.0,4953.0,5.256352092146699
62864.151253313,164453.0,89879.0,4959.0,5.266441059691715
62864.161342280546,164481.0,89871.0,4955.0,5.276530027236731
62864.1714312481,164469.0,89887.0,4946.0,5.286618994789023
62864.18152021564,164478.0,89893.0,4944.0,5.29670796233404
62864.19160918319,164481.0,89899.0,4976.0,5.306796929879056
62864.20169815074,164479.0,89865.0,4975.0,5.316885897431348
62864.211787118285,164517.0,89918.0,5004.0,5.326974864976364
62864.22187608583,164477.0,89881.0,4963.0,5.33706383252138
62864.231965053375,164535.0,89927.0,4968.0,5.347152800066397
62864.24205402093,164515.0,89912.0,4976.0,5.357241767618689
62864.25214298847,164515.0,89880.0,5022.0,5.367330735163705
62864.26223195602,164532.0,89908.0,4989.0,5.377419702708721
62864.27232092357,164548.0,89913.0,5005.0,5.387508670261013
62864.282409891115,164568.0,89936.0,5014.0,5.3975976378060295
62864.29249885866,164531.0,89901.0,4987.0,5.407686605351046
62864.30258782621,164571.0,89929.0,4988.0,5.417775572903338
62864.31267679376,164567.0,89921.0,5015.0,5.427864540448354
62864.3227657613,164577.0,89899.0,5046.0,5.43795350799337
62864.332854728855,164578.0,89916.0,5009.0,5.4480424755456625
62864.3429436964,164603.0,89925.0,5034.0,5.458131443090679
62864.353032663945,164603.0,89922.0,5012.0,5.468220410635695
62864.3631216315,164558.0,89910.0,5020.0,5.478309378187987
62864.37321059904,164574.0,89899.0,5032.0,5.488398345733003
62864.38329956659,164592.0,89916.0,5016.0,5.498487313278019
62864.39338853413,164610.0,89936.0,5037.0,5.508576280823036
62864.403477501684,164640.0,89943.0,5053.0,5.518665248375328
62864.41356646923,164603.0,89915.0,5029.0,5.528754215920344
62864.423655436774,164625.0,89921.0,5022.0,5.53884318346536
62864.43374440433,164659.0,89948.0,5036.0,5.548932151017652
62864.44383337187,164698.0,89967.0,5071.0,5.559021118562669
62864.45392233942,164643.0,89952.0,5023.0,5.569110086107685
62864.46401130697,164690.0,89968.0,5056.0,5.579199053659977
62864.474100274514,164681.0,89947.0,5057.0,5.589288021204993
62864.48418924206,164666.0,89942.0,5060.0,5.599376988750009
62864.49427820961,164737.0,89972.0,5072.0,5.6094659563023015
62864.50436717716,164680.0,89949.0,5084.0,5.619554923847318
62864.5144561447,164702.0,89956.0,5052.0,5.629643891392334
62864.524545112254,164704.0,89970.0,5097.0,5.639732858944626
62864.5346340798,164768.0,89989.0,5094.0,5.649821826489642
62864.544723047344,164715.0,89955.0,5094.0,5.6599107940346585
62864.554812014896,164758.0,89973.0,5103.0,5.669999761586951
62864.56490098244,164755.0,89991.0,5094.0,5.680088729131967
62864.574989949986,164756.0,89977.0,5093.0,5.690177696676983
62864.58507891753,164721.0,89967.0,5085.0,5.700266664221999
62864.59516788508,164697.0,89980.0,5085.0,5.710355631774291
62864.60525685263,164700.0,89944.0,5066.0,5.720444599319308
62864.61534582017,164663.0,89949.0,5061.0,5.730533566864324
62864.625434787726,164650.0,89950.0,5071.0,5.740622534416616
62864.63552375527,164552.0,89939.0,5010.0,5.750711501961632
62864.645612722816,164553.0,89931.0,5021.0,5.760800469506648
62864.65570169037,164512.0,89940.0,5012.0,5.7708894370589405
62864.66579065791,164507.0,89906.0,5015.0,5.780978404603957
62864.67587962546,164489.0,89932.0,4962.0,5.791067372148973
62864.68596859301,164456.0,89905.0,4965.0,5.801156339701265
62864.696057560555,164426.0,89887.0,5004.0,5.811245307246281
62864.7061465281,164403.0,89867.0,4930.0,5.8213342747912975
62864.71623549565,164398.0,89909.0,4962.0,5.83142324234359
62864.7263244632,164415.0,89882.0,4949.0,5.841512209888606
62864.73641343074,164422.0,89887.0,4948.0,5.851601177433622
62864.74650239829,164448.0,89925.0,4954.0,5.861690144978638
62864.75659136584,164406.0,89878.0,4980.0,5.87177911253093
62864.766680333385,164391.0,89872.0,4942.0,5.881868080075947
62864.77676930093,164420.0,89904.0,4968.0,5.891957047620963
62864.78685826848,164412.0,89909.0,4967.0,5.902046015173255
62864.79694723603,164401.0,89868.0,4940.0,5.912134982718271
62864.80703620357,164416.0,89898.0,4951.0,5.922223950263287
62864.817125171125,164420.0,89899.0,4932.0,5.93231291781558
62864.82721413867,164375.0,89883.0,4959.0,5.942401885360596
62864.837303106215,164405.0,89885.0,4947.0,5.952490852905612
62864.84739207377,164403.0,89882.0,4959.0,5.962579820457904
62864.85748104131,164418.0,89884.0,4959.0,5.97266878800292
62864.86757000886,164371.0,89875.0,4932.0,5.9827577555479365
62864.87765897641,164388.0,89886.0,4963.0,5.992846723100229
62864.887747943954,164406.0,89892.0,4958.0,6.002935690645245
62864.8978369115,164361.0,89877.0,4932.0,6.013024658190261
62864.90792587905,164386.0,89912.0,4953.0,6.023113625742553
62864.9180148466,164384.0,89873.0,4957.0,6.0332025932875695
62864.92810381414,164384.0,89882.0,4947.0,6.043291560832586
62864.93819278169,164392.0,89879.0,4934.0,6.053380528377602
62864.94828174924,164398.0,89917.0,4951.0,6.063469495929894
62864.958370716784,164353.0,89893.0,4924.0,6.07355846347491
62864.96845968433,164390.0,89890.0,4943.0,6.083647431019926
62864.97854865188,164390.0,89879.0,4954.0,6.093736398572219
62864.988637619426,164372.0,89876.0,4942.0,6.103825366117235
62864.99872658697,164403.0,89869.0,4951.0,6.113914333662251
62865.00881555452,164409.0,89903.0,4955.0,6.124003301214543
62865.01890452207,164402.0,89930.0,4975.0,6.134092268759559
62865.028993489614,164392.0,89914.0,4941.0,6.144181236304576
62865.039082457166,164446.0,89938.0,4985.0,6.154270203856868
62865.04917142471,164438.0,89907.0,4964.0,6.164359171401884
62865.059260392256,164422.0,89897.0,4977.0,6.1744481389469
62865.06934935981,164481.0,89897.0,4970.0,6.184537106499192
62865.07943832735,164453.0,89912.0,4958.0,6.1946260740442085
62865.0895272949,164488.0,89926.0,4968.0,6.204715041589225
62865.09961626245,164470.0,89929.0,5001.0,6.214804009141517
62865.109705229996,164483.0,89944.0,4967.0,6.224892976686533
62865.11979419754,164500.0,89910.0,4994.0,6.234981944231549
62865.129883165086,164514.0,89936.0,5001.0,6.2450709117765655
62865.13997213264,164505.0,89929.0,5001.0,6.255159879328858
62865.15006110018,164518.0,89925.0,5000.0,6.265248846873874
62865.16015006773,164529.0,89951.0,4985.0,6.27533781441889
62865.17023903528,164571.0,89950.0,5046.0,6.285426781971182
62865.180328002825,164555.0,89972.0,5013.0,6.295515749516198
62865.19041697037,164561.0,89964.0,4991.0,6.305604717061215
62865.20050593792,164569.0,89948.0,5044.0,6.315693684613507
62865.21059490547,164562.0,89942.0,5002.0,6.325782652158523
62865.22068387301,164581.0,89956.0,5009.0,6.335871619703539
62865.230772840565,164617.0,89935.0,5023.0,6.345960587255831
62865.24086180811,164590.0,89944.0,5018.0,6.3560495548008475
62865.250950775655,164601.0,89961.0,5020.0,6.366138522345864
62865.26103974321,164616.0,89964.0,5028.0,6.376227489898156
62865.27112871075,164616.0,89967.0,5061.0,6.386316457443172
62865.2812176783,164622.0,89962.0,5046.0,6.396405424988188
62865.29130664584,164640.0,89978.0,5059.0,6.4064943925332045
62865.301395613395,164605.0,89963.0,5036.0,6.416583360085497
62865.31148458094,164631.0,89954.0,5023.0,6.426672327630513
62865.321573548485,164656.0,89964.0,5042.0,6.436761295175529
62865.33166251604,164657.0,90003.0,5070.0,6.446850262727821
62865.34175148358,164671.0,89984.0,5056.0,6.4569392302728374
62865.35184045113,164660.0,89960.0,5063.0,6.467028197817854
62865.36192941868,164693.0,90006.0,5086.0,6.477117165370146
62865.372018386224,164693.0,89957.0,5043.0,6.487206132915162
62865.38210735377,164716.0,89998.0,5072.0,6.497295100460178
62865.39219632132,164706.0,90007.0,5090.0,6.50738406801247
62865.40228528887,164715.0,89996.0,5065.0,6.517473035557487
62865.41237425641,164778.0,90032.0,5100.0,6.527562003102503
62865.422463223964,164754.0,90018.0,5082.0,6.537650970654795
62865.43255219151,164741.0,89997.0,5074.0,6.547739938199811
62865.442641159054,164757.0,89990.0,5098.0,6.557828905744827
62865.452730126606,164803.0,90011.0,5109.0,6.5679178732971195
62865.46281909415,164796.0,90020.0,5103.0,6.578006840842136
62865.472908061696,164786.0,89993.0,5127.0,6.588095808387152
62865.48299702924,164809.0,90021.0,5098.0,6.598184775932168
62865.49308599679,164787.0,90003.0,5109.0,6.60827374348446
62865.50317496434,164772.0,90005.0,5096.0,6.6183627110294765
62865.51326393188,164736.0,90019.0,5116.0,6.628451678574493
62865.523352899436,164727.0,90023.0,5105.0,6.638540646126785
62865.53344186698,164659.0,89971.0,5047.0,6.648629613671801
62865.543530834526,164646.0,89982.0,5055.0,6.658718581216817
62865.55361980208,164629.0,89965.0,5060.0,6.668807548769109
62865.56370876962,164561.0,89921.0,5021.0,6.678896516314126
62865.57379773717,164540.0,89932.0,5011.0,6.688985483859142
62865.58388670472,164514.0,89942.0,4998.0,6.699074451411434
62865.593975672266,164479.0,89917.0,4986.0,6.70916341895645
62865.60406463981,164475.0,89922.0,4972.0,6.719252386501466
62865.61415360736,164487.0,89951.0,5004.0,6.7293413540537586
62865.62424257491,164492.0,89926.0,4979.0,6.739430321598775
62865.63433154245,164446.0,89907.0,4967.0,6.749519289143791
62865.644420510005,164494.0,89939.0,4978.0,6.759608256696083
62865.65450947755,164445.0,89918.0,4976.0,6.769697224241099
62865.664598445095,164482.0,89932.0,4968.0,6.7797861917861155
62865.67468741264,164432.0,89923.0,4992.0,6.789875159331132
62865.68477638019,164479.0,89938.0,4971.0,6.799964126883424
62865.69486534774,164473.0,89939.0,4966.0,6.81005309442844
62865.70495431528,164473.0,89944.0,4959.0,6.820142061973456
62865.715043282835,164471.0,89925.0,5012.0,6.8302310295257485
62865.72513225038,164463.0,89923.0,4974.0,6.840319997070765
62865.735221217925,164480.0,89940.0,4980.0,6.850408964615781
62865.74531018548,164472.0,89949.0,4975.0,6.860497932168073
62865.75539915302,164499.0,89915.0,4982.0,6.870586899713089
62865.76548812057,164504.0,89928.0,4997.0,6.880675867258105
62865.77557708812,164508.0,89952.0,5012.0,6.890764834810398
62865.785666055664,164486.0,89961.0,5008.0,6.900853802355414
62865.79575502321,164481.0,89945.0,4982.0,6.91094276990043
62865.80584399076,164494.0,89930.0,4990.0,6.921031737452722
62865.81593295831,164469.0,89924.0,4985.0,6.931120704997738
62865.82602192585,164467.0,89944.0,4957.0,6.941209672542755
62865.8361108934,164476.0,89954.0,5000.0,6.951298640087771
62865.84619986095,164457.0,89938.0,5001.0,6.961387607640063
62865.856288828494,164485.0,89966.0,5000.0,6.971476575185079
62865.86637779604,164431.0,89947.0,4968.0,6.981565542730095
62865.87646676359,164476.0,89941.0,4985.0,6.9916545102823875
62865.88655573114,164504.0,89940.0,4991.0,7.001743477827404
62865.89664469868,164488.0,89969.0,5001.0,7.01183244537242
62865.906733666234,164473.0,89928.0,4980.0,7.021921412924712
62865.91682263378,164507.0,89949.0,4979.0,7.032010380469728
62865.926911601324,164533.0,89959.0,5012.0,7.0420993480147445
62865.937000568876,164526.0,89994.0,5008.0,7.052188315567037
62865.94708953642,164534.0,89961.0,5004.0,7.062277283112053
62865.957178503966,164542.0,89967.0,5008.0,7.072366250657069
62865.96726747152,164562.0,89938.0,5027.0,7.082455218209361
62865.97735643906,164581.0,89981.0,5017.0,7.092544185754377
62865.98744540661,164586.0,89992.0,5032.0,7.102633153299394
62865.99753437416,164588.0,89977.0,5015.0,7.112722120851686
62866.007623341706,164574.0,89962.0,5022.0,7.122811088396702
62866.01771230925,164622.0,89981.0,5027.0,7.132900055941718
62866.027801276796,164614.0,89973.0,5038.0,7.142989023486734
62866.03789024435,164638.0,90000.0,5045.0,7.1530779910390265
62866.04797921189,164630.0,89988.0,5055.0,7.163166958584043
62866.05806817944,164682.0,89993.0,5044.0,7.173255926129059
62866.06815714699,164681.0,89996.0,5071.0,7.183344893681351
62866.078246114535,164672.0,90006.0,5049.0,7.193433861226367
62866.08833508208,164647.0,89989.0,5049.0,7.2035228287713835
62866.09842404963,164672.0,90023.0,5034.0,7.213611796323676
62866.10851301718,164638.0,90005.0,5056.0,7.223700763868692
62866.11860198472,164695.0,89992.0,5056.0,7.233789731413708
62866.128690952275,164734.0,90003.0,5075.0,7.243878698966
62866.13877991982,164715.0,89987.0,5076.0,7.253967666511016
62866.148868887365,164687.0,89983.0,5051.0,7.264056634056033
62866.15895785492,164732.0,90021.0,5064.0,7.274145601608325
62866.16904682246,164750.0,90036.0,5073.0,7.284234569153341
62866.17913579001,164707.0,90010.0,5050.0,7.294323536698357
62866.18922475756,164751.0,90051.0,5087.0,7.304412504250649
62866.199313725105,164771.0,90024.0,5089.0,7.314501471795666
62866.20940269265,164761.0,90031.0,5071.0,7.324590439340682
62866.219491660195,164804.0,90058.0,5104.0,7.334679406885698
62866.22958062775,164800.0,90062.0,5109.0,7.34476837443799
62866.23966959529,164770.0,90027.0,5050.0,7.354857341983006
62866.24975856284,164771.0,90013.0,5126.0,7.3649463095280225
62866.25984753039,164824.0,90055.0,5113.0,7.375035277080315
62866.269936497934,164817.0,90011.0,5110.0,7.385124244625331
62866.28002546548,164830.0,90045.0,5103.0,7.395213212170347
62866.29011443303,164864.0,90031.0,5121.0,7.405302179722639
62866.30020340058,164874.0,90040.0,5136.0,7.4153911472676555
62866.31029236812,164881.0,90076.0,5159.0,7.425480114812672
62866.320381335674,164841.0,90047.0,5106.0,7.435569082364964
62866.33047030322,164888.0,90026.0,5127.0,7.44565804990998
62866.340559270764,164884.0,90033.0,5127.0,7.455747017454996
62866.350648238316,164925.0,90055.0,5145.0,7.465835985007288
62866.36073720586,164924.0,90063.0,5165.0,7.475924952552305
62866.37082617341,164942.0,90082.0,5139.0,7.486013920097321
62866.38091514095,164916.0,90060.0,5154.0,7.496102887642337
62866.391004108504,164968.0,90081.0,5189.0,7.506191855194629
62866.40109307605,164974.0,90096.0,5163.0,7.516280822739645
62866.411182043594,164959.0,90065.0,5157.0,7.526369790284662
62866.421271011146,164936.0,90075.0,5157.0,7.536458757836954
62866.43135997869,164894.0,90077.0,5152.0,7.54654772538197
62866.441448946236,164850.0,90064.0,5147.0,7.556636692926986
62866.45153791379,164856.0,90037.0,5137.0,7.566725660479278
62866.46162688133,164804.0,90036.0,5147.0,7.5768146280242945
62866.47171584888,164782.0,90035.0,5091.0,7.586903595569311
62866.48180481643,164757.0,90039.0,5114.0,7.596992563121603
62866.491893783976,164719.0,90017.0,5077.0,7.607081530666619
62866.50198275152,164637.0,89984.0,5056.0,7.617170498211635
62866.51207171907,164664.0,90025.0,5078.0,7.627259465763927
62866.52216068662,164646.0,89994.0,5056.0,7.637348433308944
62866.53224965416,164644.0,89993.0,5051.0,7.64743740085396
62866.542338621715,164668.0,90020.0,5045.0,7.657526368406252
62866.55242758926,164647.0,90019.0,5053.0,7.667615335951268
62866.562516556805,164637.0,89981.0,5027.0,7.677704303496284
62866.57260552435,164643.0,89998.0,5035.0,7.687793271041301
62866.5826944919,164648.0,90022.0,5043.0,7.697882238593593
62866.59278345945,164605.0,89974.0,5019.0,7.707971206138609
62866.60287242699,164610.0,89966.0,5039.0,7.718060173683625
62866.612961394545,164656.0,89999.0,5037.0,7.728149141235917
62866.62305036209,164633.0,89986.0,5023.0,7.7382381087809335
62866.633139329635,164648.0,89979.0,5055.0,7.74832707632595
62866.64322829719,164669.0,90023.0,5060.0,7.758416043878242
62866.65331726473,164654.0,89991.0,5051.0,7.768505011423258
62866.66340623228,164664.0,90002.0,5036.0,7.778593978968274
62866.67349519983,164670.0,90031.0,5062.0,7.7886829465205665
62866.683584167375,164640.0,90007.0,5034.0,7.798771914065583
62866.69367313492,164670.0,90000.0,5047.0,7.808860881610599
62866.70376210247,164703.0,89997.0,5038.0,7.818949849162891
62866.71385107002,164655.0,90007.0,5030.0,7.829038816707907
62866.72394003756,164672.0,89979.0,5076.0,7.8391277842529234
62866.73402900511,164659.0,90000.0,5053.0,7.84921675179794
62866.74411797266,164665.0,89995.0,5056.0,7.859305719350232
62866.754206940204,164626.0,89988.0,5021.0,7.869394686895248
62866.76429590775,164665.0,90013.0,5040.0,7.879483654440264
62866.7743848753,164632.0,89980.0,5052.0,7.889572621992556
62866.78447384285,164624.0,89954.0,5027.0,7.899661589537573
62866.79456281039,164644.0,89984.0,5042.0,7.909750557082589
62866.804651777944,164635.0,89982.0,5041.0,7.919839524634881
62866.81474074549,164649.0,90004.0,5052.0,7.929928492179897
62866.824829713034,164656.0,90016.0,5052.0,7.940017459724913
62866.834918680586,164681.0,90011.0,5055.0,7.9501064272772055
62866.84500764813,164677.0,90017.0,5016.0,7.960195394822222
62866.855096615676,164686.0,90004.0,5073.0,7.970284362367238
62866.86518558323,164676.0,89981.0,5056.0,7.98037332991953
62866.87527455077,164668.0,89991.0,5065.0,7.990462297464546
62866.88536351832,164696.0,90034.0,5063.0,8.000551265009562
62866.89545248587,164740.0,90015.0,5085.0,8.010640232561855
62866.905541453416,164728.0,89997.0,5050.0,8.02072920010687
62866.91563042096,164734.0,90027.0,5060.0,8.030818167651887
62866.925719388506,164776.0,90038.0,5110.0,8.040907135196903
62866.93580835606,164719.0,90026.0,5050.0,8.050996102749195
62866.9458973236,164775.0,90030.0,5087.0,8.061085070294212
62866.95598629115,164798.0,90073.0,5095.0,8.071174037839228
62866.9660752587,164763.0,90029.0,5089.0,8.08126300539152
62866.976164226246,164805.0,90050.0,5082.0,8.091351972936536
62866.98625319379,164808.0,90050.0,5100.0,8.101440940481552
62866.99634216134,164802.0,90047.0,5113.0,8.111529908033845
62867.00643112889,164804.0,90021.0,5090.0,8.12161887557886
62867.01652009643,164845.0,90093.0,5120.0,8.131707843123877
62867.026609063985,164843.0,90052.0,5124.0,8.14179681067617
62867.03669803153,164826.0,90065.0,5155.0,8.151885778221185
62867.046786999075,164855.0,90074.0,5100.0,8.161974745766202
62867.05687596663,164826.0,90045.0,5140.0,8.172063713318494
62867.06696493417,164862.0,90056.0,5115.0,8.18215268086351
62867.07705390172,164874.0,90055.0,5126.0,8.192241648408526
62867.08714286927,164887.0,90070.0,5160.0,8.202330615960818
62867.097231836815,164859.0,90053.0,5108.0,8.212419583505834
62867.10732080436,164886.0,90066.0,5137.0,8.22250855105085
62867.117409771905,164923.0,90069.0,5121.0,8.232597518595867
62867.12749873946,164871.0,90054.0,5116.0,8.242686486148159
62867.137587707,164898.0,90061.0,5145.0,8.252775453693175
62867.14767667455,164916.0,90076.0,5152.0,8.262864421238191
62867.1577656421,164876.0,90063.0,5141.0,8.272953388790484
62867.167854609645,164919.0,90065.0,5145.0,8.2830423563355
62867.17794357719,164954.0,90108.0,5185.0,8.293131323880516
62867.18803254474,164952.0,90078.0,5167.0,8.303220291432808
62867.19812151229,164934.0,90074.0,5153.0,8.313309258977824
62867.20821047983,164984.0,90106.0,5189.0,8.32339822652284
62867.218299447384,164924.0,90057.0,5165.0,8.333487194075133
62867.22838841493,164995.0,90093.0,5179.0,8.343576161620149
62867.238477382474,164965.0,90073.0,5161.0,8.353665129165165
62867.24856635003,165000.0,90082.0,5168.0,8.363754096717457
62867.25865531757,164991.0,90084.0,5178.0,8.373843064262473
62867.26874428512,165025.0,90106.0,5191.0,8.38393203180749
62867.27883325266,165022.0,90100.0,5197.0,8.394020999352506
62867.288922220214,165051.0,90094.0,5215.0,8.404109966904798
62867.29901118776,165010.0,90090.0,5180.0,8.414198934449814
62867.309100155304,165072.0,90120.0,5236.0,8.42428790199483
62867.319189122856,165039.0,90134.0,5224.0,8.434376869547123
62867.3292780904,165009.0,90089.0,5175.0,8.444465837092139
62867.339367057946,165014.0,90123.0,5221.0,8.454554804637155
62867.3494560255,164978.0,90101.0,5188.0,8.464643772189447
62867.35954499304,164944.0,90093.0,5151.0,8.474732739734463
62867.36963396059,164936.0,90068.0,5190.0,8.48482170727948
62867.37972292814,164860.0,90065.0,5137.0,8.494910674831772
62867.389811895686,164859.0,90059.0,5146.0,8.504999642376788
62867.39990086323,164824.0,90065.0,5128.0,8.515088609921804
62867.40998983078,164816.0,90041.0,5131.0,8.525177577474096
62867.42007879833,164800.0,90049.0,5107.0,8.535266545019113
62867.43016776587,164770.0,90046.0,5113.0,8.545355512564129
62867.440256733425,164716.0,90018.0,5084.0,8.555444480116421
62867.45034570097,164722.0,89999.0,5077.0,8.565533447661437
62867.460434668516,164775.0,90057.0,5116.0,8.575622415206453
62867.47052363606,164719.0,90028.0,5071.0,8.58571138275147
62867.48061260361,164737.0,89998.0,5101.0,8.595800350303762
62867.49070157116,164746.0,90024.0,5068.0,8.605889317848778
62867.5007905387,164792.0,90035.0,5123.0,8.615978285393794
62867.510879506255,164752.0,90018.0,5093.0,8.626067252946086
62867.5209684738,164772.0,90051.0,5079.0,8.636156220491102
62867.531057441345,164784.0,90062.0,5093.0,8.646245188036119
62867.5411464089,164770.0,90026.0,5076.0,8.65633415558841
62867.55123537644,164801.0,90054.0,5122.0,8.666423123133427
62867.56132434399,164806.0,90037.0,5104.0,8.676512090678443
62867.57141331154,164783.0,90018.0,5109.0,8.686601058230735
62867.581502279085,164826.0,90049.0,5136.0,8.696690025775752
62867.59159124663,164819.0,90035.0,5129.0,8.706778993320768
62867.60168021418,164810.0,90039.0,5114.0,8.71686796087306
62867.61176918173,164808.0,90038.0,5097.0,8.726956928418076
62867.62185814927,164810.0,90058.0,5097.0,8.737045895963092
62867.631947116824,164777.0,90026.0,5114.0,8.747134863515384
62867.64203608437,164799.0,90045.0,5095.0,8.7572238310604
62867.652125051914,164779.0,90052.0,5102.0,8.767312798605417
62867.66221401946,164768.0,90021.0,5105.0,8.777401766150433
62867.67230298701,164778.0,90014.0,5083.0,8.787490733702725
62867.68239195456,164769.0,90035.0,5108.0,8.797579701247741
62867.6924809221,164753.0,90020.0,5108.0,8.807668668792758
62867.702569889654,164750.0,90025.0,5089.0,8.81775763634505
62867.7126588572,164786.0,90050.0,5124.0,8.827846603890066
62867.722747824744,164777.0,90031.0,5094.0,8.837935571435082
62867.7328367923,164788.0,90024.0,5111.0,8.848024538987374
62867.74292575984,164795.0,90044.0,5096.0,8.85811350653239
62867.75301472739,164774.0,90022.0,5084.0,8.868202474077407
62867.76310369494,164799.0,90046.0,5105.0,8.878291441629699
62867.773192662484,164780.0,90045.0,5091.0,8.888380409174715
62867.78328163003,164803.0,90030.0,5139.0,8.898469376719731
62867.79337059758,164800.0,90035.0,5102.0,8.908558344272024
62867.803459565126,164847.0,90044.0,5130.0,8.91864731181704
62867.81354853267,164830.0,90045.0,5126.0,8.928736279362056
62867.823637500216,164831.0,90076.0,5141.0,8.938825246907072
62867.83372646777,164847.0,90054.0,5113.0,8.948914214459364
62867.84381543531,164891.0,90074.0,5168.0,8.95900318200438
62867.85390440286,164903.0,90062.0,5158.0,8.969092149549397
62867.86399337041,164894.0,90058.0,5131.0,8.979181117101689
62867.874082337956,164932.0,90089.0,5171.0,8.989270084646705
62867.8841713055,164919.0,90062.0,5158.0,8.999359052191721
62867.89426027305,164925.0,90047.0,5166.0,9.009448019744013
62867.9043492406,164911.0,90078.0,5162.0,9.01953698728903
62867.91443820814,164942.0,90081.0,5149.0,9.029625954834046
62867.924527175695,164956.0,90075.0,5165.0,9.039714922386338
62867.93461614324,164954.0,90075.0,5155.0,9.049803889931354
62867.944705110785,164993.0,90104.0,5180.0,9.05989285747637
62867.95479407834,164949.0,90050.0,5148.0,9.069981825028663
62867.96488304588,164984.0,90085.0,5179.0,9.080070792573679
62867.97497201343,164999.0,90108.0,5219.0,9.090159760118695
62867.98506098098,164951.0,90060.0,5161.0,9.100248727670987
62867.995149948525,164997.0,90111.0,5168.0,9.110337695216003
62868.00523891607,164985.0,90097.0,5213.0,9.12042666276102
62868.015327883615,164998.0,90101.0,5184.0,9.130515630306036
62868.02541685117,164987.0,90078.0,5177.0,9.140604597858328
62868.03550581871,165000.0,90116.0,5208.0,9.150693565403344
62868.04559478626,164990.0,90115.0,5187.0,9.16078253294836
62868.05568375381,165027.0,90087.0,5203.0,9.170871500500652
62868.065772721355,165036.0,90102.0,5174.0,9.180960468045669
62868.0758616889,165008.0,90093.0,5200.0,9.191049435590685
62868.08595065645,165046.0,90104.0,5205.0,9.201138403142977
62868.096039624,165048.0,90088.0,5224.0,9.211227370687993
62868.10612859154,165060.0,90117.0,5226.0,9.22131633823301
62868.116217559094,165049.0,90067.0,5210.0,9.231405305785302
62868.12630652664,165086.0,90123.0,5213.0,9.241494273330318
62868.136395494184,165084.0,90105.0,5237.0,9.251583240875334
62868.14648446174,165074.0,90103.0,5260.0,9.261672208427626
62868.15657342928,165100.0,90116.0,5229.0,9.271761175972642
62868.16666239683,165095.0,90107.0,5241.0,9.281850143517659
62868.17675136438,165118.0,90122.0,5234.0,9.29193911106995
62868.186840331924,165078.0,90102.0,5224.0,9.302028078614967
62868.19692929947,165056.0,90100.0,5244.0,9.312117046159983
62868.207018267014,165041.0,90091.0,5200.0,9.322206013705
62868.217107234566,165009.0,90107.0,5229.0,9.332294981257292
62868.22719620211,164988.0,90095.0,5215.0,9.342383948802308
62868.23728516966,164958.0,90088.0,5171.0,9.352472916347324
62868.24737413721,164896.0,90034.0,5156.0,9.362561883899616
62868.257463104754,164886.0,90066.0,5165.0,9.372650851444632
62868.2675520723,164897.0,90083.0,5175.0,9.382739818989648
62868.27764103985,164844.0,90086.0,5149.0,9.39282878654194
62868.287730007396,164848.0,90042.0,5180.0,9.402917754086957
62868.29781897494,164812.0,90054.0,5123.0,9.413006721631973
62868.30790794249,164778.0,90024.0,5134.0,9.423095689184265
62868.31799691004,164816.0,90014.0,5121.0,9.433184656729281
62868.32808587758,164798.0,90050.0,5137.0,9.443273624274298
62868.338174845136,164791.0,90048.0,5118.0,9.45336259182659
62868.34826381268,164785.0,90047.0,5110.0,9.463451559371606
62868.358352780226,164817.0,90068.0,5132.0,9.473540526916622
62868.36844174777,164799.0,90020.0,5106.0,9.483629494461638
62868.37853071532,164810.0,90059.0,5123.0,9.49371846201393
62868.38861968287,164816.0,90076.0,5142.0,9.503807429558947
62868.39870865041,164799.0,90015.0,5104.0,9.513896397103963
62868.408797617965,164802.0,90047.0,5124.0,9.523985364656255
62868.41888658551,164836.0,90057.0,5142.0,9.534074332201271
62868.428975553055,164878.0,90036.0,5143.0,9.544163299746288
62868.43906452061,164838.0,90051.0,5126.0,9.55425226729858
62868.44915348815,164886.0,90076.0,5147.0,9.564341234843596
62868.4592424557,164859.0,90051.0,5137.0,9.574430202388612
62868.46933142325,164823.0,90064.0,5148.0,9.584519169940904
62868.479420390795,164866.0,90036.0,5135.0,9.59460813748592
62868.48950935834,164829.0,90036.0,5111.0,9.604697105030937
62868.49959832589,164853.0,90056.0,5124.0,9.614786072583229
62868.50968729344,164869.0,90079.0,5137.0,9.624875040128245
62868.51977626098,164820.0,90058.0,5149.0,9.634964007673261
62868.529865228535,164817.0,90032.0,5111.0,9.645052975225553
62868.53995419608,164841.0,90045.0,5117.0,9.65514194277057
62868.550043163625,164804.0,90063.0,5109.0,9.665230910315586
62868.56013213117,164802.0,90034.0,5095.0,9.675319877860602
62868.57022109872,164847.0,90060.0,5107.0,9.685408845412894
62868.58031006627,164834.0,90049.0,5100.0,9.69549781295791
62868.59039903381,164816.0,90045.0,5150.0,9.705586780502927
62868.600488001364,164865.0,90082.0,5145.0,9.715675748055219
62868.61057696891,164865.0,90079.0,5155.0,9.725764715600235
62868.620665936454,164838.0,90060.0,5106.0,9.735853683145251
62868.63075490401,164873.0,90045.0,5137.0,9.745942650697543
62868.64084387155,164911.0,90045.0,5126.0,9.75603161824256
62868.6509328391,164839.0,90060.0,5133.0,9.766120585787576
62868.66102180665,164883.0,90056.0,5134.0,9.776209553339868
62868.671110774194,164898.0,90075.0,5157.0,9.786298520884884
62868.68119974174,164893.0,90051.0,5150.0,9.7963874884299
62868.69128870929,164927.0,90049.0,5148.0,9.806476455982192
62868.701377676836,164962.0,90093.0,5179.0,9.816565423527209
62868.71146664438,164964.0,90082.0,5159.0,9.826654391072225
62868.721555611926,164954.0,90065.0,5195.0,9.836743358617241
62868.73164457948,164978.0,90111.0,5172.0,9.846832326169533
62868.74173354702,164984.0,90069.0,5188.0,9.85692129371455
62868.75182251457,164995.0,90089.0,5175.0,9.867010261259566
62868.76191148212,165012.0,90117.0,5190.0,9.877099228811858
62868.772000449666,165011.0,90103.0,5199.0,9.887188196356874
62868.78208941721,164978.0,90100.0,5179.0,9.89727716390189
62868.79217838476,165019.0,90094.0,5198.0,9.907366131454182
62868.80226735231,165042.0,90114.0,5219.0,9.917455098999199
62868.81235631985,165051.0,90101.0,5179.0,9.927544066544215
62868.822445287406,165053.0,90087.0,5205.0,9.937633034096507
62868.83253425495,165061.0,90113.0,5214.0,9.947722001641523
62868.842623222496,165069.0,90127.0,5197.0,9.95781096918654
62868.85271219005,165026.0,90111.0,5191.0,9.967899936738831
62868.86280115759,165084.0,90146.0,5221.0,9.977988904283848
62868.87289012514,165084.0,90109.0,5215.0,9.988077871828864
62868.88297909269,165106.0,90101.0,5222.0,9.998166839381156
62868.893068060235,165124.0,90143.0,5244.0,10.008255806926172
62868.90315702778,165066.0,90104.0,5195.0,10.018344774471188
62868.913245995325,165076.0,90119.0,5211.0,10.028433742016205
62868.92333496288,165066.0,90135.0,5232.0,10.038522709568497
62868.93342393042,165126.0,90124.0,5258.0,10.048611677113513
62868.94351289797,165095.0,90119.0,5224.0,10.05870064465853
62868.95360186552,165124.0,90130.0,5243.0,10.068789612210821
62868.963690833065,165152.0,90146.0,5260.0,10.078878579755838
62868.97377980061,165135.0,90117.0,5238.0,10.088967547300854
62868.98386876816,165170.0,90135.0,5262.0,10.099056514853146
62868.99395773571,165168.0,90138.0,5251.0,10.109145482398162
62869.00404670325,165194.0,90138.0,5283.0,10.119234449943178
62869.014135670805,165207.0,90158.0,5241.0,10.12932341749547
62869.02422463835,165202.0,90123.0,5263.0,10.139412385040487
62869.034313605895,165213.0,90152.0,5267.0,10.149501352585503
62869.04440257345,165188.0,90128.0,5276.0,10.159590320137795
62869.05449154099,165225.0,90179.0,5293.0,10.169679287682811
62869.06458050854,165213.0,90139.0,5266.0,10.179768255227827
62869.07466947609,165154.0,90134.0,5269.0,10.18985722278012
62869.084758443634,165124.0,90140.0,5261.0,10.199946190325136
62869.09484741118,165072.0,90112.0,5243.0,10.210035157870152
62869.104936378724,165068.0,90116.0,5213.0,10.220124125415168
62869.11502534628,165036.0,90110.0,5225.0,10.23021309296746
62869.12511431382,165015.0,90078.0,5216.0,10.240302060512477
62869.13520328137,164992.0,90099.0,5208.0,10.250391028057493
62869.14529224892,164920.0,90082.0,5169.0,10.260479995609785
62869.155381216464,164909.0,90087.0,5162.0,10.270568963154801
62869.16547018401,164892.0,90078.0,5171.0,10.280657930699817
62869.17555915156,164896.0,90108.0,5141.0,10.29074689825211
62869.185648119106,164864.0,90049.0,5158.0,10.300835865797126
62869.19573708665,164848.0,90061.0,5125.0,10.310924833342142
62869.2058260542,164845.0,90051.0,5126.0,10.321013800894434
62869.21591502175,164843.0,90051.0,5137.0,10.33110276843945
62869.22600398929,164880.0,90071.0,5137.0,10.341191735984467
62869.236092956846,164846.0,90052.0,5109.0,10.351280703536759
62869.24618192439,164855.0,90073.0,5120.0,10.361369671081775
62869.256270891936,164831.0,90049.0,5108.0,10.371458638626791
62869.26635985948,164834.0,90069.0,5125.0,10.381547606171807
62869.27644882703,164880.0,90074.0,5097.0,10.3916365737241
62869.28653779458,164866.0,90073.0,5136.0,10.401725541269116
62869.29662676212,164849.0,90094.0,5120.0,10.411814508814132
62869.306715729675,164861.0,90066.0,5121.0,10.421903476366424
62869.31680469722,164842.0,90001.0,5151.0,10.43199244391144
62869.326893664766,164854.0,90068.0,5127.0,10.442081411456456
62869.33698263232,164837.0,90036.0,5113.0,10.452170379008749
62869.34707159986,164842.0,90062.0,5114.0,10.462259346553765
62869.35716056741,164885.0,90079.0,5124.0,10.472348314098781
62869.36724953496,164870.0,90066.0,5125.0,10.482437281651073
62869.377338502505,164830.0,90060.0,5100.0,10.49252624919609
62869.38742747005,164845.0,90086.0,5135.0,10.502615216741106
62869.3975164376,164881.0,90078.0,5132.0,10.512704184293398
62869.40760540515,164852.0,90069.0,5110.0,10.522793151838414
62869.41769437269,164829.0,90034.0,5118.0,10.53288211938343
62869.427783340245,164860.0,90087.0,5144.0,10.542971086935722
62869.43787230779,164857.0,90079.0,5111.0,10.553060054480738
62869.447961275335,164830.0,90037.0,5148.0,10.563149022025755
62869.45805024288,164822.0,90041.0,5126.0,10.57323798957077
62869.46813921043,164811.0,90061.0,5091.0,10.583326957123063
62869.47822817798,164833.0,90034.0,5140.0,10.59341592466808
62869.48831714552,164879.0,90072.0,5122.0,10.603504892213095
62869.498406113074,164903.0,90100.0,5137.0,10.613593859765388
62869.50849508062,164908.0,90087.0,5138.0,10.623682827310404
62869.518584048164,164912.0,90096.0,5127.0,10.63377179485542
62869.52867301572,164902.0,90087.0,5127.0,10.643860762407712
62869.53876198326,164872.0,90062.0,5124.0,10.653949729952728
62869.54885095081,164950.0,90098.0,5119.0,10.664038697497745
62869.55893991836,164914.0,90070.0,5118.0,10.674127665050037
62869.569028885904,164945.0,90086.0,5139.0,10.684216632595053
62869.57911785345,164923.0,90058.0,5126.0,10.69430560014007
62869.589206821,164967.0,90066.0,5169.0,10.704394567692361
62869.59929578855,164978.0,90086.0,5149.0,10.714483535237378
62869.60938475609,164980.0,90095.0,5163.0,10.724572502782394
62869.619473723644,165012.0,90111.0,5191.0,10.734661470334686
62869.62956269119,164981.0,90094.0,5164.0,10.744750437879702
62869.639651658734,165020.0,90124.0,5202.0,10.754839405424718
62869.64974062628,165025.0,90105.0,5187.0,10.764928372969734
62869.65982959383,165019.0,90098.0,5171.0,10.775017340522027
62869.669918561376,165038.0,90090.0,5192.0,10.785106308067043
62869.68000752892,165006.0,90083.0,5177.0,10.795195275612059
62869.69009649647,165039.0,90118.0,5174.0,10.805284243164351
62869.70018546402,165033.0,90143.0,5199.0,10.815373210709367
62869.71027443156,165029.0,90131.0,5167.0,10.825462178254384
62869.720363399116,165046.0,90112.0,5200.0,10.835551145806676
62869.73045236666,165059.0,90111.0,5217.0,10.845640113351692
62869.740541334206,165068.0,90132.0,5196.0,10.855729080896708
62869.75063030176,165052.0,90105.0,5203.0,10.865818048449
62869.7607192693,165105.0,90117.0,5220.0,10.875907015994017
62869.77080823685,165093.0,90130.0,5208.0,10.885995983539033
62869.7808972044,165089.0,90134.0,5205.0,10.896084951091325
62869.790986171945,165097.0,90118.0,5209.0,10.906173918636341
62869.80107513949,165091.0,90131.0,5223.0,10.916262886181357
62869.811164107035,165123.0,90123.0,5209.0,10.926351853726374
62869.82125307459,165137.0,90145.0,5225.0,10.936440821278666
62869.83134204213,165137.0,90128.0,5210.0,10.946529788823682
62869.84143100968,165132.0,90137.0,5204.0,10.956618756368698
62869.85151997723,165170.0,90167.0,5221.0,10.96670772392099
62869.861608944775,165163.0,90135.0,5240.0,10.976796691466006
62869.87169791232,165168.0,90156.0,5237.0,10.986885659011023
62869.88178687987,165193.0,90158.0,5249.0,10.996974626563315
62869.89187584742,165216.0,90163.0,5263.0,11.007063594108331
62869.90196481496,165201.0,90154.0,5247.0,11.017152561653347
62869.912053782515,165234.0,90146.0,5234.0,11.02724152920564
62869.92214275006,165218.0,90198.0,5275.0,11.037330496750656
62869.932231717605,165220.0,90153.0,5240.0,11.047419464295672
62869.94232068516,165213.0,90166.0,5266.0,11.057508431847964
62869.9524096527,165203.0,90158.0,5255.0,11.06759739939298
62869.96249862025,165166.0,90117.0,5267.0,11.077686366937996
62869.9725875878,165150.0,90154.0,5256.0,11.087775334490289
62869.982676555344,165058.0,90109.0,5221.0,11.097864302035305
62869.99276552289,165062.0,90153.0,5197.0,11.107953269580321
62870.002854490434,165049.0,90149.0,5215.0,11.118042237125337
62870.01294345799,165006.0,90139.0,5189.0,11.12813120467763
62870.02303242553,164958.0,90104.0,5160.0,11.138220172222645
62870.03312139308,164930.0,90094.0,5150.0,11.148309139767662
62870.04321036063,164926.0,90055.0,5123.0,11.158398107319954
62870.053299328174,164864.0,90084.0,5135.0,11.16848707486497
62870.06338829572,164890.0,90076.0,5113.0,11.178576042409986
62870.07347726327,164867.0,90072.0,5128.0,11.188665009962278
62870.083566230816,164901.0,90110.0,5141.0,11.198753977507295
62870.09365519836,164864.0,90076.0,5100.0,11.20884294505231
62870.103744165914,164893.0,90080.0,5126.0,11.218931912604603
62870.11383313346,164838.0,90068.0,5112.0,11.22902088014962
62870.123922101004,164897.0,90105.0,5132.0,11.239109847694635
62870.134011068556,164847.0,90086.0,5129.0,11.249198815246928
62870.1441000361,164890.0,90085.0,5120.0,11.259287782791944
62870.154189003646,164899.0,90083.0,5133.0,11.26937675033696
62870.1642779712,164888.0,90074.0,5109.0,11.279465717889252
62870.17436693874,164912.0,90103.0,5147.0,11.289554685434268
62870.18445590629,164902.0,90087.0,5120.0,11.299643652979285
62870.19454487383,164887.0,90107.0,5107.0,11.3097326205243
62870.204633841386,164919.0,90104.0,5140.0,11.319821588076593
62870.21472280893,164891.0,90064.0,5098.0,11.329910555621609
62870.224811776476,164906.0,90092.0,5113.0,11.339999523166625
62870.23490074403,164875.0,90092.0,5098.0,11.350088490718917
62870.24498971157,164923.0,90103.0,5172.0,11.360177458263934
62870.25507867912,164895.0,90083.0,5113.0,11.37026642580895
62870.26516764667,164885.0,90089.0,5114.0,11.380355393361242
62870.275256614215,164850.0,90107.0,5100.0,11.390444360906258
62870.28534558176,164853.0,90077.0,5103.0,11.400533328451274
62870.29543454931,164879.0,90114.0,5104.0,11.410622296003567
62870.30552351686,164879.0,90082.0,5098.0,11.420711263548583
62870.3156124844,164873.0,90086.0,5121.0,11.430800231093599
62870.325701451955,164892.0,90120.0,5119.0,11.440889198645891
62870.3357904195,164891.0,90097.0,5134.0,11.450978166190907
62870.345879387045,164853.0,90090.0,5087.0,11.461067133735924
62870.35596835459,164902.0,90079.0,5108.0,11.47115610128094
62870.36605732214,164931.0,90109.0,5109.0,11.481245068833232
62870.37614628969,164883.0,90073.0,5096.0,11.491334036378248
62870.38623525723,164954.0,90108.0,5123.0,11.501423003923264
62870.396324224785,164920.0,90086.0,5123.0,11.511511971475556
62870.40641319233,164928.0,90072.0,5129.0,11.521600939020573
62870.416502159875,164936.0,90096.0,5130.0,11.531689906565589
62870.42659112743,164929.0,90074.0,5118.0,11.541778874117881
62870.43668009497,164972.0,90104.0,5149.0,11.551867841662897
62870.44676906252,164949.0,90106.0,5156.0,11.561956809207913
62870.45685803007,165003.0,90133.0,5153.0,11.572045776760206
62870.466946997614,164979.0,90101.0,5153.0,11.582134744305222
62870.47703596516,165008.0,90130.0,5153.0,11.592223711850238
62870.48712493271,164883.0,90073.0,5143.0,11.60231267940253
62870.49721390026,164990.0,90089.0,5173.0,11.612401646947546
62870.5073028678,165008.0,90133.0,5154.0,11.622490614492563
62870.517391835354,165008.0,90121.0,5172.0,11.632579582044855
62870.5274808029,165054.0,90152.0,5188.0,11.642668549589871
62870.537569770444,165062.0,90143.0,5155.0,11.652757517134887
62870.54765873799,165039.0,90118.0,5195.0,11.662846484679903
62870.55774770554,165084.0,90118.0,5178.0,11.672935452232196
62870.567836673086,165083.0,90131.0,5198.0,11.683024419777212
62870.57792564063,165063.0,90147.0,5187.0,11.693113387322228
62870.58801460818,165065.0,90157.0,5175.0,11.70320235487452
62870.59810357573,165095.0,90139.0,5195.0,11.713291322419536
62870.60819254327,165099.0,90136.0,5185.0,11.723380289964553
62870.618281510826,165127.0,90155.0,5223.0,11.733469257516845
62870.62837047837,165086.0,90123.0,5197.0,11.74355822506186
62870.638459445916,165131.0,90154.0,5205.0,11.753647192606877
62870.64854841347,165151.0,90181.0,5218.0,11.76373616015917
62870.65863738101,165102.0,90133.0,5198.0,11.773825127704185
62870.66872634856,165138.0,90157.0,5190.0,11.783914095249202
62870.67881531611,165163.0,90156.0,5215.0,11.794003062801494
62870.688904283656,165158.0,90183.0,5244.0,11.80409203034651
62870.6989932512,165158.0,90134.0,5197.0,11.814180997891526
62870.70908221875,165186.0,90179.0,5249.0,11.824269965443818
62870.7191711863,165197.0,90170.0,5229.0,11.834358932988835
62870.72926015384,165197.0,90126.0,5228.0,11.84444790053385
62870.73934912139,165220.0,90187.0,5222.0,11.854536868078867
62870.74943808894,165227.0,90172.0,5275.0,11.86462583563116
62870.759527056485,165241.0,90186.0,5245.0,11.874714803176175
62870.76961602403,165238.0,90175.0,5240.0,11.884803770721192
62870.77970499158,165254.0,90200.0,5263.0,11.894892738273484
62870.78979395913,165272.0,90193.0,5250.0,11.9049817058185
62870.79988292667,165269.0,90197.0,5264.0,11.915070673363516
62870.809971894225,165298.0,90187.0,5246.0,11.925159640915808
62870.82006086177,165252.0,90168.0,5248.0,11.935248608460824
62870.830149829315,165248.0,90191.0,5257.0,11.94533757600584
62870.84023879687,165235.0,90183.0,5251.0,11.955426543558133
62870.85032776441,165198.0,90156.0,5244.0,11.965515511103149
62870.86041673196,165153.0,90146.0,5239.0,11.975604478648165
62870.87050569951,165137.0,90172.0,5202.0,11.985693446200457
62870.880594667055,165090.0,90153.0,5202.0,11.995782413745474
62870.8906836346,165050.0,90122.0,5218.0,12.00587138129049
62870.900772602145,165048.0,90149.0,5188.0,12.015960348835506
62870.9108615697,165029.0,90141.0,5177.0,12.026049316387798
62870.92095053724,164968.0,90100.0,5130.0,12.036138283932814
62870.93103950479,164942.0,90096.0,5137.0,12.04622725147783
62870.94112847234,164958.0,90079.0,5125.0,12.056316219030123
62870.951217439884,164947.0,90096.0,5099.0,12.066405186575139
62870.96130640743,164950.0,90108.0,5117.0,12.076494154120155
62870.97139537498,164959.0,90123.0,5122.0,12.086583121672447
62870.98148434253,164946.0,90078.0,5117.0,12.096672089217464
62870.99157331007,164972.0,90113.0,5133.0,12.10676105676248
62871.001662277624,164949.0,90125.0,5133.0,12.116850024314772
62871.01175124517,164940.0,90109.0,5125.0,12.126938991859788
62871.021840212714,164908.0,90109.0,5110.0,12.137027959404804
62871.031929180266,164959.0,90141.0,5131.0,12.147116926957096
62871.04201814781,164992.0,90141.0,5162.0,12.157205894502113
62871.052107115356,164968.0,90112.0,5129.0,12.167294862047129
62871.06219608291,164971.0,90128.0,5147.0,12.177383829599421
62871.07228505045,164976.0,90107.0,5157.0,12.187472797144437
62871.082374018,164934.0,90107.0,5123.0,12.197561764689453
62871.09246298554,164990.0,90112.0,5151.0,12.20765073223447
62871.102551953096,164989.0,90106.0,5114.0,12.217739699786762
62871.11264092064,164977.0,90089.0,5139.0,12.227828667331778
62871.122729888186,164989.0,90135.0,5129.0,12.237917634876794
62871.13281885574,164982.0,90120.0,5142.0,12.248006602429086
62871.14290782328,164932.0,90121.0,5124.0,12.258095569974103
62871.15299679083,164954.0,90136.0,5138.0,12.268184537519119
62871.16308575838,164974.0,90111.0,5154.0,12.278273505071411
62871.173174725925,164953.0,90119.0,5133.0,12.288362472616427
62871.18326369347,164948.0,90128.0,5110.0,12.298451440161443
62871.19335266102,164974.0,90127.0,5148.0,12.308540407713735
62871.20344162857,164920.0,90084.0,5121.0,12.318629375258752
62871.21353059611,164962.0,90117.0,5123.0,12.328718342803768
62871.223619563665,164964.0,90149.0,5133.0,12.33880731035606
62871.23370853121,164930.0,90113.0,5099.0,12.348896277901076
62871.243797498755,164997.0,90138.0,5123.0,12.358985245446092
62871.2538864663,164979.0,90118.0,5130.0,12.369074212991109
62871.26397543385,164958.0,90115.0,5125.0,12.3791631805434
62871.2740644014,164976.0,90106.0,5117.0,12.389252148088417
62871.28415336894,165010.0,90149.0,5149.0,12.399341115633433
62871.294242336495,165009.0,90136.0,5143.0,12.409430083185725
62871.30433130404,165040.0,90116.0,5129.0,12.419519050730742
62871.314420271585,165044.0,90134.0,5150.0,12.429608018275758
62871.32450923914,165037.0,90111.0,5142.0,12.43969698582805
62871.33459820668,165048.0,90139.0,5160.0,12.449785953373066
62871.34468717423,165069.0,90142.0,5171.0,12.459874920918082
62871.35477614178,165079.0,90134.0,5191.0,12.469963888470375
62871.364865109324,165060.0,90134.0,5164.0,12.48005285601539
62871.37495407687,165105.0,90155.0,5183.0,12.490141823560407
62871.38504304442,165146.0,90158.0,5155.0,12.500230791112699
62871.39513201197,165076.0,90159.0,5185.0,12.510319758657715
62871.40522097951,165125.0,90169.0,5182.0,12.520408726202731
62871.415309947064,165141.0,90163.0,5188.0,12.530497693755024
62871.42539891461,165163.0,90166.0,5193.0,12.54058666130004
62871.435487882154,165172.0,90146.0,5221.0,12.550675628845056
62871.4455768497,165185.0,90197.0,5211.0,12.560764596390072
62871.45566581725,165154.0,90157.0,5185.0,12.570853563942364
62871.4657547848,165135.0,90167.0,5204.0,12.58094253148738
62871.47584375234,165171.0,90199.0,5216.0,12.591031499032397
62871.485932719894,165194.0,90167.0,5217.0,12.601120466584689
62871.49602168744,165187.0,90170.0,5216.0,12.611209434129705
62871.506110654984,165202.0,90194.0,5224.0,12.621298401674721
62871.516199622536,165216.0,90200.0,5239.0,12.631387369227014
62871.52628859008,165175.0,90175.0,5203.0,12.64147633677203
62871.536377557626,165248.0,90182.0,5241.0,12.651565304317046
62871.54646652518,165209.0,90175.0,5226.0,12.661654271869338
62871.55655549272,165219.0,90189.0,5213.0,12.671743239414354
62871.56664446027,165233.0,90163.0,5238.0,12.68183220695937
62871.57673342782,165255.0,90210.0,5260.0,12.691921174511663
62871.586822395366,165236.0,90176.0,5232.0,12.702010142056679
62871.59691136291,165215.0,90179.0,5246.0,12.712099109601695
62871.60700033046,165279.0,90208.0,5275.0,12.722188077153987
62871.61708929801,165264.0,90160.0,5254.0,12.732277044699003
62871.62717826555,165285.0,90192.0,5250.0,12.74236601224402
62871.6372672331,165289.0,90199.0,5295.0,12.752454979789036
62871.64735620065,165275.0,90183.0,5253.0,12.762543947341328
62871.657445168195,165332.0,90215.0,5277.0,12.772632914886344
62871.66753413574,165335.0,90212.0,5271.0,12.78272188243136
62871.67762310329,165330.0,90202.0,5275.0,12.792810849983653
62871.68771207084,165317.0,90201.0,5262.0,12.802899817528669
62871.69780103838,165364.0,90207.0,5279.0,12.812988785073685
62871.707890005935,165333.0,90224.0,5278.0,12.823077752625977
62871.71797897348,165242.0,90199.0,5265.0,12.833166720170993
62871.728067941025,165268.0,90219.0,5284.0,12.84325568771601
62871.73815690858,165230.0,90162.0,5244.0,12.853344655268302
62871.74824587612,165216.0,90198.0,5251.0,12.863433622813318
62871.75833484367,165204.0,90201.0,5213.0,12.873522590358334
62871.76842381122,165152.0,90179.0,5230.0,12.883611557910626
62871.778512778765,165101.0,90147.0,5188.0,12.893700525455642
62871.78860174631,165106.0,90151.0,5186.0,12.903789493000659
62871.798690713855,165098.0,90177.0,5165.0,12.913878460545675
62871.80877968141,165031.0,90132.0,5150.0,12.923967428097967
62871.81886864895,165043.0,90129.0,5132.0,12.934056395642983
62871.8289576165,165036.0,90145.0,5143.0,12.944145363188
62871.83904658405,165023.0,90139.0,5179.0,12.954234330740292
62871.849135551594,165021.0,90148.0,5146.0,12.964323298285308
62871.85922451914,165028.0,90157.0,5119.0,12.974412265830324
62871.86931348669,165016.0,90128.0,5136.0,12.984501233382616
62871.87940245424,165011.0,90122.0,5131.0,12.994590200927632
62871.88949142178,165046.0,90137.0,5114.0,13.004679168472649
62871.899580389334,165028.0,90132.0,5141.0,13.01476813602494
62871.90966935688,165041.0,90149.0,5144.0,13.024857103569957
62871.919758324424,165057.0,90130.0,5149.0,13.034946071114973
62871.929847291976,165078.0,90172.0,5183.0,13.045035038667265
62871.93993625952,165088.0,90152.0,5166.0,13.055124006212282
62871.95002522707,165067.0,90159.0,5169.0,13.065212973757298
62871.96011419462,165100.0,90169.0,5161.0,13.07530194130959
62871.970203162164,165046.0,90156.0,5136.0,13.085390908854606
62871.98029212971,165079.0,90173.0,5173.0,13.095479876399622
62871.990381097254,165070.0,90176.0,5185.0,13.105568843944639
62872.000470064806,165033.0,90136.0,5188.0,13.11565781149693
62872.01055903235,165054.0,90128.0,5161.0,13.125746779041947
62872.020647999896,165088.0,90177.0,5188.0,13.135835746586963
62872.03073696745,165054.0,90151.0,5145.0,13.145924714139255
62872.04082593499,165038.0,90131.0,5195.0,13.156013681684271
62872.05091490254,165073.0,90164.0,5186.0,13.166102649229288
62872.06100387009,165050.0,90140.0,5123.0,13.17619161678158
62872.071092837636,165032.0,90145.0,5157.0,13.186280584326596
62872.08118180518,165045.0,90121.0,5148.0,13.196369551871612
62872.09127077273,165047.0,90164.0,5184.0,13.206458519423904
62872.10135974028,164993.0,90170.0,5160.0,13.21654748696892
62872.11144870782,165051.0,90151.0,5165.0,13.226636454513937
62872.121537675375,165023.0,90161.0,5179.0,13.236725422066229
62872.13162664292,165013.0,90118.0,5172.0,13.246814389611245
62872.141715610465,165053.0,90126.0,5165.0,13.256903357156261
62872.15180457802,165030.0,90127.0,5144.0,13.266992324708553
62872.16189354556,165081.0,90154.0,5163.0,13.27708129225357
62872.17198251311,165109.0,90180.0,5176.0,13.287170259798586
62872.18207148065,165091.0,90181.0,5185.0,13.297259227343602
62872.192160448205,165093.0,90162.0,5150.0,13.307348194895894
62872.20224941575,165126.0,90157.0,5190.0,13.31743716244091
62872.212338383295,165106.0,90175.0,5201.0,13.327526129985927
62872.22242735085,165122.0,90152.0,5190.0,13.337615097538219
62872.23251631839,165109.0,90181.0,5187.0,13.347704065083235
62872.24260528594,165151.0,90175.0,5205.0,13.357793032628251
62872.25269425349,165158.0,90159.0,5168.0,13.367882000180543
62872.262783221035,165183.0,90203.0,5202.0,13.37797096772556
62872.27287218858,165167.0,90159.0,5205.0,13.388059935270576
62872.28296115613,165182.0,90187.0,5211.0,13.398148902822868
62872.29305012368,165184.0,90185.0,5212.0,13.408237870367884
62872.30313909122,165167.0,90174.0,5219.0,13.4183268379129
62872.313228058774,165198.0,90193.0,5237.0,13.428415805465193
62872.32331702632,165200.0,90188.0,5225.0,13.438504773010209
62872.333405993864,165219.0,90197.0,5198.0,13.448593740555225
62872.34349496141,165236.0,90206.0,5253.0,13.458682708100241
62872.35358392896,165229.0,90229.0,5232.0,13.468771675652533
62872.36367289651,165223.0,90187.0,5228.0,13.47886064319755
62872.37376186405,165249.0,90198.0,5232.0,13.488949610742566
62872.383850831604,165204.0,90176.0,5226.0,13.499038578294858
62872.39393979915,165240.0,90193.0,5218.0,13.509127545839874
62872.404028766694,165247.0,90196.0,5239.0,13.51921651338489
62872.414117734246,165254.0,90170.0,5242.0,13.529305480937182
62872.42420670179,165240.0,90187.0,5267.0,13.539394448482199
62872.434295669336,165256.0,90182.0,5243.0,13.549483416027215
62872.44438463689,165282.0,90200.0,5254.0,13.559572383579507
62872.45447360443,165315.0,90214.0,5273.0,13.569661351124523
62872.46456257198,165274.0,90172.0,5264.0,13.57975031866954
62872.47465153953,165311.0,90213.0,5265.0,13.589839286221832
62872.484740507076,165313.0,90218.0,5262.0,13.599928253766848
62872.49482947462,165326.0,90200.0,5289.0,13.610017221311864
62872.50491844217,165331.0,90202.0,5298.0,13.620106188864156
62872.51500740972,165341.0,90205.0,5282.0,13.630195156409172
62872.52509637726,165341.0,90239.0,5279.0,13.640284123954189
62872.53518534481,165344.0,90235.0,5251.0,13.650373091499205
62872.54527431236,165316.0,90207.0,5299.0,13.660462059051497
62872.555363279906,165317.0,90211.0,5268.0,13.670551026596513
62872.56545224745,165304.0,90218.0,5274.0,13.68063999414153
62872.575541215,165251.0,90191.0,5274.0,13.690728961693821
62872.58563018255,165204.0,90170.0,5239.0,13.700817929238838
62872.59571915009,165182.0,90180.0,5242.0,13.710906896783854
62872.605808117645,165180.0,90185.0,5238.0,13.720995864336146
62872.61589708519,165147.0,90198.0,5233.0,13.731084831881162
62872.625986052735,165117.0,90198.0,5202.0,13.741173799426178
62872.63607502029,165128.0,90184.0,5214.0,13.75126276697847
62872.64616398783,165054.0,90170.0,5167.0,13.761351734523487
62872.65625295538,165072.0,90172.0,5186.0,13.771440702068503
62872.66634192293,165066.0,90184.0,5191.0,13.781529669620795
62872.676430890475,165010.0,90133.0,5137.0,13.791618637165811
62872.68651985802,165008.0,90149.0,5155.0,13.801707604710828
62872.69660882557,165068.0,90124.0,5161.0,13.81179657226312
62872.70669779312,165030.0,90132.0,5166.0,13.821885539808136
62872.71678676066,165076.0,90163.0,5180.0,13.831974507353152
62872.72687572821,165059.0,90174.0,5143.0,13.842063474898168
62872.73696469576,165054.0,90150.0,5162.0,13.85215244245046
62872.747053663305,165028.0,90143.0,5167.0,13.862241409995477
62872.75714263085,165073.0,90189.0,5176.0,13.872330377540493
62872.7672315984,165070.0,90156.0,5152.0,13.882419345092785
62872.77732056595,165079.0,90161.0,5179.0,13.892508312637801
62872.78740953349,165048.0,90137.0,5193.0,13.902597280182817
62872.797498501044,165066.0,90129.0,5197.0,13.91268624773511
62872.80758746859,165099.0,90188.0,5211.0,13.922775215280126
62872.817676436134,165109.0,90169.0,5186.0,13.932864182825142
62872.82776540369,165128.0,90156.0,5210.0,13.942953150377434
62872.83785437123,165117.0,90137.0,5192.0,13.95304211792245
62872.84794333878,165101.0,90123.0,5193.0,13.963131085467467
62872.85803230633,165089.0,90172.0,5188.0,13.973220053019759
62872.868121273874,165087.0,90150.0,5212.0,13.983309020564775
62872.87821024142,165034.0,90156.0,5157.0,13.993397988109791
62872.888299208964,165041.0,90145.0,5165.0,14.003486955654807
62872.898388176516,165064.0,90163.0,5176.0,14.0135759232071
62872.90847714406,165068.0,90171.0,5161.0,14.023664890752116
62872.918566111606,165041.0,90143.0,5156.0,14.033753858297132
62872.92865507916,165001.0,90103.0,5181.0,14.043842825849424
62872.9387440467,165047.0,90138.0,5173.0,14.05393179339444
62872.94883301425,165027.0,90153.0,5195.0,14.064020760939457
62872.9589219818,165073.0,90155.0,5198.0,14.074109728491749
62872.969010949346,165029.0,90137.0,5162.0,14.084198696036765
62872.97909991689,165071.0,90152.0,5183.0,14.094287663581781
62872.98918888444,165069.0,90155.0,5196.0,14.104376631134073
62872.99927785199,165092.0,90175.0,5208.0,14.11446559867909
62873.00936681953,165114.0,90164.0,5200.0,14.124554566224106
62873.019455787085,165098.0,90157.0,5194.0,14.134643533776398
62873.02954475463,165104.0,90143.0,5186.0,14.144732501321414
62873.039633722175,165127.0,90163.0,5175.0,14.15482146886643
62873.04972268973,165150.0,90194.0,5224.0,14.164910436418722
62873.05981165727,165123.0,90153.0,5208.0,14.174999403963739
62873.06990062482,165099.0,90183.0,5202.0,14.185088371508755
62873.07998959236,165161.0,90202.0,5230.0,14.195177339053771
62873.090078559915,165188.0,90195.0,5214.0,14.205266306606063
62873.10016752746,165165.0,90181.0,5220.0,14.21535527415108
62873.110256495005,165156.0,90188.0,5227.0,14.225444241696096
62873.12034546256,165194.0,90201.0,5245.0,14.235533209248388
62873.1304344301,165186.0,90191.0,5213.0,14.245622176793404
62873.14052339765,165193.0,90190.0,5231.0,14.25571114433842
62873.1506123652,165219.0,90220.0,5238.0,14.265800111890712
62873.160701332745,165182.0,90173.0,5210.0,14.275889079435728
62873.17079030029,165242.0,90225.0,5199.0,14.285978046980745
62873.18087926784,165210.0,90204.0,5224.0,14.296067014533037
62873.19096823539,165200.0,90174.0,5249.0,14.306155982078053
62873.20105720293,165201.0,90176.0,5225.0,14.31624494962307
62873.211146170484,165234.0,90203.0,5273.0,14.326333917175361
62873.22123513803,165236.0,90195.0,5259.0,14.336422884720378
62873.231324105574,165229.0,90194.0,5274.0,14.346511852265394
62873.24141307312,165272.0,90221.0,5256.0,14.35660081981041
62873.25150204067,165240.0,90191.0,5245.0,14.366689787362702
62873.26159100822,165274.0,90205.0,5277.0,14.376778754907718
62873.27167997576,165255.0,90227.0,5264.0,14.386867722452735
62873.281768943314,165247.0,90178.0,5271.0,14.396956690005027
62873.29185791086,165281.0,90189.0,5264.0,14.407045657550043
62873.301946878404,165250.0,90193.0,5252.0,14.41713462509506
62873.31203584596,165279.0,90210.0,5271.0,14.427223592647351
62873.3221248135,165289.0,90227.0,5295.0,14.437312560192368
62873.33221378105,165294.0,90230.0,5303.0,14.447401527737384
62873.3423027486,165235.0,90188.0,5278.0,14.457490495289676
62873.352391716144,165221.0,90196.0,5275.0,14.467579462834692
62873.36248068369,165210.0,90201.0,5249.0,14.477668430379708
62873.37256965124,165153.0,90179.0,5269.0,14.487757397932
62873.382658618786,165109.0,90170.0,5230.0,14.497846365477017
62873.39274758633,165096.0,90173.0,5222.0,14.507935333022033
62873.40283655388,165052.0,90137.0,5190.0,14.518024300574325
62873.41292552143,165034.0,90142.0,5207.0,14.528113268119341
62873.42301448897,165020.0,90130.0,5177.0,14.538202235664357
62873.43310345652,165000.0,90143.0,5173.0,14.548291203209374
62873.44319242407,164966.0,90143.0,5142.0,14.558380170761666
62873.453281391616,164946.0,90144.0,5152.0,14.568469138306682
62873.46337035916,164968.0,90141.0,5197.0,14.578558105851698
62873.47345932671,164954.0,90139.0,5139.0,14.58864707340399
62873.48354829426,164951.0,90134.0,5105.0,14.598736040949007
62873.4936372618,164933.0,90123.0,5122.0,14.608825008494023
62873.503726229355,164979.0,90142.0,5144.0,14.618913976046315
62873.5138151969,164965.0,90127.0,5134.0,14.629002943591331
62873.523904164445,164949.0,90147.0,5152.0,14.639091911136347
62873.533993132,164939.0,90139.0,5148.0,14.64918087868864
62873.54408209954,164972.0,90138.0,5132.0,14.659269846233656
62873.55417106709,164990.0,90138.0,5152.0,14.669358813778672
62873.56426003464,164977.0,90143.0,5180.0,14.679447781330964
62873.574349002185,164980.0,90128.0,5150.0,14.68953674887598
62873.58443796973,165008.0,90157.0,5183.0,14.699625716420996
62873.59452693728,164966.0,90132.0,5146.0,14.709714683973289
62873.60461590483,164982.0,90112.0,5125.0,14.719803651518305
62873.61470487237,165014.0,90161.0,5127.0,14.729892619063321
62873.62479383992,164991.0,90160.0,5187.0,14.739981586608337
62873.63488280747,164987.0,90138.0,5159.0,14.75007055416063
62873.644971775015,164975.0,90137.0,5151.0,14.760159521705646
62873.65506074256,164974.0,90137.0,5174.0,14.770248489250662
62873.66514971011,164928.0,90134.0,5130.0,14.780337456802954
62873.67523867766,164960.0,90130.0,5145.0,14.79042642434797
62873.6853276452,164988.0,90141.0,5141.0,14.800515391892986
62873.695416612754,164915.0,90133.0,5109.0,14.810604359445279
62873.7055055803,164973.0,90152.0,5165.0,14.820693326990295
62873.715594547844,164942.0,90136.0,5138.0,14.830782294535311
62873.7256835154,164961.0,90102.0,5127.0,14.840871262087603
62873.73577248294,164936.0,90120.0,5120.0,14.85096022963262
62873.74586145049,164974.0,90141.0,5135.0,14.861049197177636
62873.75595041804,164948.0,90126.0,5130.0,14.871138164729928
62873.766039385584,164946.0,90100.0,5165.0,14.881227132274944
62873.77612835313,165000.0,90166.0,5168.0,14.89131609981996
62873.786217320674,164981.0,90108.0,5136.0,14.901405067364976
62873.796306288226,164978.0,90155.0,5136.0,14.911494034917268
62873.80639525577,164995.0,90130.0,5147.0,14.921583002462285
62873.81648422332,165012.0,90146.0,5168.0,14.9316719700073
62873.82657319087,164981.0,90131.0,5138.0,14.941760937559593
62873.836662158414,165035.0,90157.0,5184.0,14.95184990510461
62873.84675112596,165038.0,90166.0,5168.0,14.961938872649625
62873.85684009351,165005.0,90123.0,5149.0,14.972027840201918
62873.866929061056,165066.0,90133.0,5169.0,14.982116807746934
62873.8770180286,165045.0,90164.0,5202.0,14.99220577529195
62873.88710699615,165066.0,90166.0,5186.0,15.002294742844242
62873.8971959637,165086.0,90189.0,5183.0,15.012383710389258
62873.90728493124,165098.0,90180.0,5199.0,15.022472677934275
62873.917373898796,165065.0,90160.0,5176.0,15.032561645486567
62873.92746286634,165085.0,90181.0,5188.0,15.042650613031583
62873.937551833886,165100.0,90182.0,5219.0,15.052739580576599
62873.94764080144,165086.0,90164.0,5213.0,15.062828548128891
62873.95772976898,165096.0,90190.0,5203.0,15.072917515673907
62873.96781873653,165117.0,90183.0,5201.0,15.083006483218924
62873.97790770407,165145.0,90162.0,5220.0,15.09309545076394
62873.987996671625,165107.0,90177.0,5180.0,15.103184418316232
62873.99808563917,165141.0,90200.0,5227.0,15.113273385861248
62874.008174606715,165121.0,90181.0,5212.0,15.123362353406264
62874.01826357427,165120.0,90207.0,5217.0,15.133451320958557
62874.02835254181,165152.0,90210.0,5233.0,15.143540288503573
62874.03844150936,165126.0,90171.0,5196.0,15.153629256048589
62874.04853047691,165150.0,90183.0,5218.0,15.163718223600881
62874.058619444455,165164.0,90187.0,5212.0,15.173807191145897
62874.068708412,165185.0,90192.0,5235.0,15.183896158690914
62874.07879737955,165150.0,90181.0,5215.0,15.193985126243206
62874.0888863471,165166.0,90184.0,5224.0,15.204074093788222
62874.09897531464,165173.0,90184.0,5212.0,15.214163061333238
62874.109064282195,165101.0,90176.0,5206.0,15.22425202888553
62874.11915324974,165125.0,90200.0,5188.0,15.234340996430547
62874.129242217285,165071.0,90160.0,5212.0,15.244429963975563
62874.13933118484,165003.0,90173.0,5189.0,15.254518931527855
62874.14942015238,164978.0,90159.0,5171.0,15.264607899072871
62874.15950911993,164975.0,90177.0,5191.0,15.274696866617887
62874.16959808747,164925.0,90143.0,5140.0,15.284785834162903
62874.179687055024,164890.0,90121.0,5098.0,15.294874801715196
62874.18977602257,164877.0,90127.0,5100.0,15.304963769260212
62874.199864990114,164842.0,90107.0,5093.0,15.315052736805228
62874.20995395767,164841.0,90109.0,5092.0,15.32514170435752
62874.22004292521,164829.0,90110.0,5081.0,15.335230671902536
62874.23013189276,164817.0,90106.0,5101.0,15.345319639447553
62874.24022086031,164779.0,90087.0,5058.0,15.355408606999845
62874.250309827854,164797.0,90099.0,5067.0,15.365497574544861
62874.2603987954,164827.0,90128.0,5085.0,15.375586542089877
62874.27048776295,164760.0,90074.0,5050.0,15.38567550964217
62874.280576730496,164765.0,90128.0,5089.0,15.395764477187186
62874.29066569804,164784.0,90117.0,5057.0,15.405853444732202
62874.30075466559,164776.0,90076.0,5070.0,15.415942412284494
62874.31084363314,164775.0,90079.0,5064.0,15.42603137982951
62874.32093260068,164740.0,90089.0,5075.0,15.436120347374526
62874.33102156823,164777.0,90088.0,5058.0,15.446209314919543
62874.34111053578,164744.0,90091.0,5075.0,15.456298282471835
62874.351199503326,164785.0,90119.0,5070.0,15.46638725001685
62874.36128847087,164747.0,90080.0,5068.0,15.476476217561867
62874.37137743842,164741.0,90095.0,5055.0,15.48656518511416
62874.38146640597,164735.0,90056.0,5053.0,15.496654152659175
62874.39155537351,164713.0,90082.0,5059.0,15.506743120204192
62874.401644341066,164716.0,90084.0,5045.0,15.516832087756484
62874.41173330861,164704.0,90096.0,5038.0,15.5269210553015
62874.421822276156,164717.0,90114.0,5045.0,15.537010022846516
62874.43191124371,164705.0,90074.0,5035.0,15.547098990398808
62874.44200021125,164737.0,90105.0,5065.0,15.557187957943825
62874.4520891788,164698.0,90076.0,5049.0,15.56727692548884
62874.46217814635,164726.0,90088.0,5035.0,15.577365893041133
62874.472267113895,164681.0,90082.0,5026.0,15.58745486058615
62874.48235608144,164729.0,90088.0,5062.0,15.597543828131165
62874.49244504899,164687.0,90072.0,5039.0,15.607632795683458
62874.50253401654,164708.0,90085.0,5032.0,15.617721763228474
62874.51262298408,164709.0,90097.0,5052.0,15.62781073077349
62874.52271195163,164704.0,90089.0,5038.0,15.637899698318506
62874.53280091918,164686.0,90096.0,5052.0,15.647988665870798
62874.542889886725,164723.0,90100.0,5056.0,15.658077633415814
62874.55297885427,164746.0,90078.0,5048.0,15.66816660096083
62874.56306782182,164738.0,90108.0,5024.0,15.678255568513123
62874.57315678937,164764.0,90108.0,5078.0,15.688344536058139
62874.58324575691,164768.0,90116.0,5056.0,15.698433503603155
62874.593334724465,164736.0,90100.0,5038.0,15.708522471155447
62874.60342369201,164784.0,90141.0,5106.0,15.718611438700464
62874.613512659555,164771.0,90105.0,5049.0,15.72870040624548
62874.62360162711,164803.0,90109.0,5080.0,15.738789373797772
62874.63369059465,164826.0,90138.0,5089.0,15.748878341342788
62874.6437795622,164796.0,90101.0,5064.0,15.758967308887804
62874.65386852975,164815.0,90129.0,5079.0,15.769056276440097
62874.663957497294,164840.0,90141.0,5089.0,15.779145243985113
62874.67404646484,164839.0,90126.0,5101.0,15.789234211530129
62874.68413543239,164795.0,90107.0,5074.0,15.799323179082421
62874.69422439994,164869.0,90145.0,5085.0,15.809412146627437
62874.70431336748,164854.0,90129.0,5095.0,15.819501114172454
62874.71440233503,164839.0,90109.0,5102.0,15.82959008171747
62874.72449130258,164873.0,90149.0,5127.0,15.839679049269762
62874.734580270124,164856.0,90106.0,5102.0,15.849768016814778
62874.74466923767,164876.0,90144.0,5097.0,15.859856984359794
62874.75475820522,164858.0,90149.0,5130.0,15.869945951912086
62874.764847172766,164868.0,90143.0,5112.0,15.880034919457103
62874.77493614031,164844.0,90150.0,5103.0,15.890123887002119
62874.78502510786,164892.0,90150.0,5117.0,15.900212854554411
62874.79511407541,164888.0,90133.0,5137.0,15.910301822099427
62874.80520304295,164860.0,90113.0,5103.0,15.920390789644443
62874.815292010506,164904.0,90131.0,5114.0,15.930479757196736
62874.82538097805,164905.0,90159.0,5121.0,15.940568724741752
62874.835469945596,164904.0,90176.0,5121.0,15.950657692286768
62874.84555891315,164935.0,90173.0,5141.0,15.96074665983906
62874.85564788069,164960.0,90186.0,5151.0,15.970835627384076
62874.86573684824,164938.0,90161.0,5151.0,15.980924594929093
62874.87582581578,164913.0,90127.0,5138.0,15.991013562474109
62874.885914783335,164960.0,90141.0,5142.0,16.0011025300264
62874.89600375088,164913.0,90145.0,5131.0,16.011191497571417
62874.906092718425,164888.0,90150.0,5123.0,16.021280465116433
62874.91618168598,164841.0,90167.0,5112.0,16.031369432668725
62874.92627065352,164775.0,90117.0,5120.0,16.04145840021374
62874.93635962107,164766.0,90121.0,5075.0,16.051547367758758
62874.94644858862,164740.0,90120.0,5099.0,16.06163633531105
62874.956537556165,164689.0,90116.0,5047.0,16.071725302856066
62874.96662652371,164657.0,90080.0,5056.0,16.081814270401082
62874.97671549126,164624.0,90085.0,5008.0,16.091903237953375
62874.98680445881,164639.0,90087.0,5033.0,16.10199220549839
62874.99689342635,164608.0,90093.0,4997.0,16.112081173043407
62875.006982393905,164573.0,90065.0,4984.0,16.1221701405957
62875.01707136145,164595.0,90104.0,5013.0,16.132259108140715
62875.027160328995,164569.0,90081.0,4983.0,16.14234807568573
62875.03724929655,164577.0,90075.0,4986.0,16.152437043238024
62875.04733826409,164578.0,90077.0,4993.0,16.16252601078304
62875.05742723164,164546.0,90064.0,4975.0,16.172614978328056
62875.06751619918,164556.0,90060.0,4947.0,16.182703945873072
62875.077605166734,164553.0,90071.0,4984.0,16.192792913425365
62875.08769413428,164542.0,90088.0,5005.0,16.20288188097038
62875.097783101824,164537.0,90052.0,4967.0,16.212970848515397
62875.10787206938,164541.0,90049.0,5000.0,16.22305981606769
62875.11796103692,164554.0,90071.0,4985.0,16.233148783612705
62875.12805000447,164563.0,90081.0,4969.0,16.24323775115772
62875.13813897202,164569.0,90094.0,4987.0,16.253326718710014
62875.148227939564,164520.0,90053.0,4974.0,16.26341568625503
62875.15831690711,164554.0,90082.0,4984.0,16.273504653800046
62875.16840587466,164547.0,90066.0,4964.0,16.28359362135234
62875.17849484221,164561.0,90094.0,4994.0,16.293682588897354
62875.18858380975,164531.0,90061.0,4945.0,16.30377155644237
62875.198672777304,164563.0,90108.0,4965.0,16.313860523994663
62875.20876174485,164535.0,90094.0,4960.0,16.32394949153968
62875.218850712394,164508.0,90038.0,4960.0,16.334038459084695
62875.22893967994,164526.0,90083.0,4986.0,16.34412742662971
62875.23902864749,164536.0,90066.0,4969.0,16.354216394182004
62875.249117615036,164515.0,90048.0,4954.0,16.36430536172702
62875.25920658258,164545.0,90076.0,4983.0,16.374394329272036
62875.26929555013,164535.0,90101.0,4972.0,16.384483296824328
62875.27938451768,164522.0,90085.0,4966.0,16.394572264369344
62875.28947348522,164508.0,90077.0,4966.0,16.40466123191436
62875.299562452776,164563.0,90087.0,4997.0,16.414750199466653
62875.30965142032,164522.0,90072.0,4963.0,16.42483916701167
62875.319740387866,164548.0,90082.0,4968.0,16.434928134556685
62875.32982935542,164554.0,90084.0,4953.0,16.445017102108977
62875.33991832296,164535.0,90068.0,4992.0,16.455106069653993
62875.35000729051,164581.0,90105.0,5017.0,16.46519503719901
62875.36009625806,164577.0,90091.0,4992.0,16.475284004751302
62875.370185225605,164617.0,90095.0,5015.0,16.485372972296318
62875.38027419315,164595.0,90093.0,4986.0,16.495461939841334
62875.3903631607,164618.0,90084.0,5000.0,16.505550907393626
62875.40045212825,164629.0,90116.0,5011.0,16.515639874938643
62875.41054109579,164612.0,90115.0,5011.0,16.52572884248366
62875.42063006334,164603.0,90111.0,5000.0,16.535817810028675
62875.43071903089,164630.0,90112.0,5010.0,16.545906777580967
62875.440807998435,164661.0,90117.0,5020.0,16.555995745125983
62875.45089696598,164668.0,90108.0,4990.0,16.566084712671
62875.46098593353,164624.0,90095.0,5015.0,16.57617368022329
62875.47107490108,164657.0,90080.0,5012.0,16.586262647768308
62875.48116386862,164681.0,90132.0,5024.0,16.596351615313324
62875.491252836175,164644.0,90144.0,5029.0,16.606440582865616
62875.50134180372,164715.0,90140.0,5050.0,16.616529550410633
62875.511430771265,164706.0,90135.0,5006.0,16.62661851795565
62875.52151973882,164722.0,90134.0,5064.0,16.63670748550794
62875.53160870636,164703.0,90156.0,5048.0,16.646796453052957
62875.54169767391,164716.0,90144.0,5040.0,16.656885420597973
62875.55178664146,164722.0,90128.0,5062.0,16.666974388150265
62875.561875609004,164720.0,90140.0,5044.0,16.67706335569528
62875.57196457655,164748.0,90145.0,5057.0,16.687152323240298
62875.5820535441,164754.0,90161.0,5037.0,16.69724129079259
62875.59214251165,164788.0,90161.0,5095.0,16.707330258337606
62875.60223147919,164716.0,90116.0,5036.0,16.717419225882622
62875.61232044674,164773.0,90163.0,5068.0,16.72750819342764
62875.62240941429,164793.0,90180.0,5080.0,16.73759716097993
62875.632498381834,164766.0,90153.0,5054.0,16.747686128524947
62875.64258734938,164823.0,90188.0,5089.0,16.757775096069963
62875.65267631693,164821.0,90163.0,5079.0,16.767864063622255
62875.662765284476,164790.0,90166.0,5076.0,16.77795303116727
62875.67285425202,164830.0,90176.0,5096.0,16.788041998712288
62875.682943219574,164830.0,90147.0,5095.0,16.79813096626458
62875.69303218712,164859.0,90177.0,5092.0,16.808219933809596
62875.703121154664,164862.0,90198.0,5076.0,16.818308901354612
62875.713210122216,164882.0,90200.0,5116.0,16.828397868906904
62875.72329908976,164873.0,90168.0,5086.0,16.83848683645192
62875.733388057306,164861.0,90154.0,5109.0,16.848575803996937
62875.74347702486,164882.0,90167.0,5131.0,16.85866477154923
62875.7535659924,164846.0,90184.0,5124.0,16.868753739094245
62875.76365495995,164827.0,90139.0,5096.0,16.87884270663926
62875.77374392749,164783.0,90164.0,5088.0,16.888931674184278
62875.783832895046,164716.0,90165.0,5079.0,16.89902064173657
62875.79392186259,164713.0,90152.0,5076.0,16.909109609281586
62875.804010830136,164659.0,90136.0,5026.0,16.919198576826602
62875.81409979769,164622.0,90125.0,5022.0,16.929287544378894
62875.82418876523,164613.0,90131.0,5003.0,16.93937651192391
62875.83427773278,164548.0,90102.0,4966.0,16.949465479468927
62875.84436670033,164531.0,90096.0,4979.0,16.95955444702122
62875.854455667875,164535.0,90099.0,4978.0,16.969643414566235
62875.86454463542,164517.0,90128.0,4972.0,16.97973238211125
62875.87463360297,164538.0,90107.0,4968.0,16.989821349663544
62875.88472257052,164487.0,90092.0,4945.0,16.99991031720856
62875.89481153806,164510.0,90093.0,4961.0,17.009999284753576
62875.904900505615,164501.0,90089.0,4931.0,17.020088252305868
62875.91498947316,164485.0,90072.0,4940.0,17.030177219850884
62875.925078440705,164472.0,90090.0,4931.0,17.0402661873959
62875.93516740826,164511.0,90086.0,4963.0,17.050355154948193
62875.9452563758,164488.0,90086.0,4927.0,17.06044412249321
62875.95534534335,164521.0,90083.0,4987.0,17.070533090038225
62875.96543431089,164526.0,90114.0,4979.0,17.08062205758324
62875.975523278445,164505.0,90114.0,4954.0,17.090711025135533
62875.98561224599,164532.0,90126.0,4967.0,17.10079999268055
62875.995701213535,164495.0,90110.0,4947.0,17.110888960225566
62876.00579018109,164535.0,90130.0,4981.0,17.120977927777858
62876.01587914863,164501.0,90111.0,4961.0,17.131066895322874
62876.02596811618,164480.0,90073.0,4952.0,17.14115586286789
62876.03605708373,164503.0,90100.0,4955.0,17.151244830420183
62876.046146051274,164509.0,90103.0,4944.0,17.1613337979652
62876.05623501882,164505.0,90107.0,4959.0,17.171422765510215
62876.06632398637,164476.0,90100.0,4972.0,17.181511733062507
62876.07641295392,164484.0,90091.0,4945.0,17.191600700607523
62876.08650192146,164479.0,90091.0,4950.0,17.20168966815254
62876.096590889014,164480.0,90101.0,4949.0,17.21177863570483
62876.10667985656,164467.0,90086.0,4942.0,17.221867603249848
62876.116768824104,164487.0,90119.0,4962.0,17.231956570794864
62876.126857791656,164469.0,90102.0,4947.0,17.242045538347156
62876.1369467592,164546.0,90122.0,5010.0,17.252134505892172
62876.147035726746,164486.0,90110.0,4944.0,17.26222347343719
62876.15712469429,164521.0,90142.0,4948.0,17.272312440982205
62876.16721366184,164511.0,90105.0,4948.0,17.282401408534497
62876.17730262939,164518.0,90124.0,4982.0,17.292490376079513
62876.18739159693,164548.0,90122.0,4974.0,17.30257934362453
62876.197480564486,164547.0,90102.0,4963.0,17.31266831117682
62876.20756953203,164557.0,90135.0,4981.0,17.322757278721838
62876.217658499576,164557.0,90111.0,4972.0,17.332846246266854
62876.22774746713,164585.0,90136.0,4983.0,17.342935213819146
62876.23783643467,164580.0,90107.0,5015.0,17.353024181364162
62876.24792540222,164626.0,90168.0,5015.0,17.36311314890918
62876.25801436977,164632.0,90168.0,5012.0,17.37320211646147
62876.268103337316,164609.0,90134.0,4994.0,17.383291084006487
62876.27819230486,164616.0,90107.0,4981.0,17.393380051551503
62876.28828127241,164629.0,90144.0,5003.0,17.403469019103795
62876.29837023996,164626.0,90148.0,4995.0,17.41355798664881
62876.3084592075,164662.0,90151.0,5017.0,17.423646954193828
62876.31854817505,164650.0,90147.0,5029.0,17.433735921738844
62876.3286371426,164684.0,90179.0,5035.0,17.443824889291136
62876.338726110145,164672.0,90156.0,5013.0,17.453913856836152
62876.34881507769,164693.0,90162.0,5029.0,17.46400282438117
62876.35890404524,164694.0,90188.0,5039.0,17.47409179193346
62876.36899301279,164705.0,90194.0,5044.0,17.484180759478477
62876.37908198033,164708.0,90158.0,5031.0,17.494269727023493
62876.389170947885,164713.0,90163.0,5042.0,17.504358694575785
62876.39925991543,164696.0,90176.0,5031.0,17.5144476621208
62876.409348882975,164715.0,90168.0,5027.0,17.524536629665818
62876.41943785053,164776.0,90204.0,5050.0,17.53462559721811
62876.42952681807,164757.0,90187.0,5049.0,17.544714564763126
62876.43961578562,164746.0,90193.0,5072.0,17.554803532308142
62876.44970475317,164747.0,90176.0,5042.0,17.564892499860434
62876.459793720715,164801.0,90176.0,5089.0,17.57498146740545
62876.46988268826,164768.0,90191.0,5060.0,17.585070434950467
62876.47997165581,164783.0,90178.0,5105.0,17.59515940250276
62876.49006062336,164833.0,90215.0,5075.0,17.605248370047775
62876.5001495909,164790.0,90192.0,5057.0,17.61533733759279
62876.51023855845,164827.0,90201.0,5078.0,17.625426305137808
62876.520327526,164834.0,90195.0,5081.0,17.6355152726901
62876.530416493544,164834.0,90181.0,5092.0,17.645604240235116
62876.54050546109,164848.0,90185.0,5090.0,17.655693207780132
62876.55059442864,164853.0,90212.0,5090.0,17.665782175332424
62876.56068339619,164863.0,90206.0,5092.0,17.67587114287744
62876.57077236373,164913.0,90237.0,5125.0,17.685960110422457
62876.580861331284,164915.0,90240.0,5127.0,17.69604907797475
62876.59095029883,164903.0,90223.0,5119.0,17.706138045519765
62876.601039266374,164925.0,90201.0,5114.0,17.71622701306478
62876.611128233926,164934.0,90214.0,5140.0,17.726315980617073
62876.62121720147,164922.0,90245.0,5134.0,17.73640494816209
62876.631306169016,164916.0,90228.0,5117.0,17.746493915707106
62876.64139513657,164886.0,90199.0,5145.0,17.756582883259398
62876.65148410411,164879.0,90230.0,5128.0,17.766671850804414
62876.66157307166,164819.0,90199.0,5097.0,17.77676081834943
62876.67166203921,164803.0,90207.0,5112.0,17.786849785901722
62876.681751006756,164754.0,90159.0,5078.0,17.79693875344674
62876.6918399743,164706.0,90155.0,5061.0,17.807027720991755
62876.701928941846,164668.0,90190.0,5026.0,17.81711668853677
62876.7120179094,164687.0,90171.0,5049.0,17.827205656089063
62876.72210687694,164652.0,90179.0,5002.0,17.83729462363408
62876.73219584449,164619.0,90147.0,4975.0,17.847383591179096
62876.74228481204,164624.0,90163.0,5005.0,17.857472558731388
62876.752373779585,164582.0,90144.0,4974.0,17.867561526276404
62876.76246274713,164583.0,90164.0,4971.0,17.87765049382142
62876.77255171468,164530.0,90132.0,4967.0,17.887739461373712
62876.78264068223,164561.0,90109.0,4944.0,17.89782842891873
62876.79272964977,164570.0,90149.0,4966.0,17.907917396463745
62876.802818617325,164592.0,90149.0,4999.0,17.918006364016037
62876.81290758487,164576.0,90146.0,5004.0,17.928095331561053
62876.822996552415,164577.0,90108.0,4966.0,17.93818429910607
62876.83308551997,164557.0,90152.0,4973.0,17.94827326665836
62876.84317448751,164583.0,90139.0,4975.0,17.958362234203378
62876.85326345506,164570.0,90148.0,4987.0,17.968451201748394
62876.8633524226,164612.0,90143.0,4962.0,17.97854016929341
62876.873441390155,164566.0,90152.0,4975.0,17.988629136845702
62876.8835303577,164612.0,90144.0,4985.0,17.99871810439072
62876.893619325245,164597.0,90161.0,4987.0,18.008807071935735
62876.9037082928,164631.0,90166.0,5018.0,18.018896039488027
62876.91379726034,164578.0,90138.0,4980.0,18.028985007033043
62876.92388622789,164588.0,90148.0,4984.0,18.03907397457806
62876.93397519544,164629.0,90150.0,4986.0,18.04916294213035
62876.944064162984,164572.0,90120.0,4975.0,18.059251909675368
62876.95415313053,164605.0,90138.0,5008.0,18.069340877220384
62876.96424209808,164583.0,90144.0,4985.0,18.079429844772676
62876.97433106563,164574.0,90154.0,4970.0,18.089518812317692
62876.98442003317,164557.0,90115.0,4969.0,18.09960777986271
62876.994509000724,164601.0,90171.0,4948.0,18.109696747415
62877.00459796827,164572.0,90147.0,4982.0,18.119785714960017
62877.014686935814,164559.0,90130.0,4978.0,18.129874682505033
62877.02477590337,164580.0,90171.0,5002.0,18.139963650057325
62877.03486487091,164590.0,90137.0,4999.0,18.15005261760234
62877.04495383846,164596.0,90156.0,4974.0,18.160141585147358
62877.055042806,164590.0,90131.0,4969.0,18.170230552692374
62877.065131773554,164602.0,90184.0,4994.0,18.180319520244666
62877.0752207411,164619.0,90160.0,5013.0,18.190408487789682
62877.085309708644,164622.0,90161.0,5005.0,18.2004974553347
62877.095398676196,164647.0,90172.0,5018.0,18.21058642288699
62877.10548764374,164629.0,90140.0,5001.0,18.220675390432007
62877.115576611286,164669.0,90167.0,4994.0,18.230764357977023
62877.12566557884,164665.0,90178.0,5011.0,18.240853325529315
62877.13575454638,164707.0,90161.0,5033.0,18.25094229307433
62877.14584351393,164654.0,90179.0,5007.0,18.261031260619347
62877.15593248148,164714.0,90208.0,5037.0,18.27112022817164
62877.166021449026,164714.0,90185.0,5028.0,18.281209195716656
62877.17611041657,164738.0,90171.0,5013.0,18.291298163261672
62877.18619938412,164742.0,90200.0,5062.0,18.301387130813964
62877.19628835167,164704.0,90167.0,5047.0,18.31147609835898
62877.20637731921,164708.0,90175.0,5028.0,18.321565065903997
62877.21646628676,164696.0,90184.0,5044.0,18.331654033449013
62877.22655525431,164748.0,90202.0,5080.0,18.341743001001305
62877.236644221855,164726.0,90163.0,5063.0,18.35183196854632
62877.2467331894,164767.0,90185.0,5062.0,18.361920936091337
62877.25682215695,164749.0,90205.0,5071.0,18.37200990364363
62877.2669111245,164732.0,90165.0,5055.0,18.382098871188646
62877.27700009204,164720.0,90216.0,5069.0,18.392187838733662
62877.287089059595,164733.0,90194.0,5061.0,18.402276806285954
62877.29717802714,164766.0,90204.0,5076.0,18.41236577383097
62877.307266994685,164771.0,90186.0,5039.0,18.422454741375986
62877.31735596224,164809.0,90208.0,5093.0,18.43254370892828
62877.32744492978,164730.0,90188.0,5067.0,18.442632676473295
62877.33753389733,164763.0,90196.0,5077.0,18.45272164401831
62877.34762286488,164786.0,90204.0,5066.0,18.462810611570603
62877.357711832425,164759.0,90188.0,5078.0,18.47289957911562
62877.36780079997,164789.0,90200.0,5077.0,18.482988546660636
62877.37788976752,164799.0,90179.0,5108.0,18.493077514212928
62877.38797873507,164794.0,90205.0,5125.0,18.503166481757944
62877.39806770261,164795.0,90166.0,5096.0,18.51325544930296
62877.40815667016,164809.0,90210.0,5142.0,18.523344416847976
62877.41824563771,164830.0,90194.0,5123.0,18.53343338440027
62877.428334605254,164833.0,90195.0,5102.0,18.543522351945285
62877.4384235728,164876.0,90220.0,5106.0,18.5536113194903
62877.44851254035,164874.0,90202.0,5123.0,18.563700287042593
62877.4586015079,164867.0,90204.0,5141.0,18.57378925458761
62877.46869047544,164885.0,90198.0,5140.0,18.583878222132626
62877.478779442994,164922.0,90195.0,5178.0,18.593967189684918
62877.48886841054,164865.0,90177.0,5144.0,18.604056157229934
62877.498957378084,164868.0,90213.0,5162.0,18.61414512477495
62877.509046345636,164865.0,90237.0,5155.0,18.624234092327242
62877.51913531318,164852.0,90211.0,5167.0,18.63432305987226
62877.529224280726,164758.0,90156.0,5117.0,18.644412027417275
62877.53931324828,164752.0,90177.0,5123.0,18.654500994969567
62877.549402215824,164735.0,90190.0,5097.0,18.664589962514583
62877.55949118337,164673.0,90152.0,5068.0,18.6746789300596
62877.56958015092,164673.0,90162.0,5044.0,18.68476789761189
62877.579669118466,164632.0,90150.0,5072.0,18.694856865156908
62877.58975808601,164605.0,90151.0,5081.0,18.704945832701924
62877.599847053556,164586.0,90141.0,5050.0,18.71503480024694
62877.60993602111,164566.0,90129.0,5039.0,18.725123767799232
62877.62002498865,164571.0,90137.0,5027.0,18.73521273534425
62877.6301139562,164574.0,90113.0,5019.0,18.745301702889265
62877.64020292375,164557.0,90125.0,5038.0,18.755390670441557
62877.650291891296,164550.0,90143.0,5001.0,18.765479637986573
62877.66038085884,164590.0,90140.0,5025.0,18.77556860553159
62877.67046982639,164606.0,90141.0,5063.0,18.78565757308388
62877.68055879394,164590.0,90107.0,5046.0,18.795746540628897
62877.69064776148,164601.0,90122.0,5042.0,18.805835508173914
62877.700736729035,164609.0,90147.0,5037.0,18.815924475726206
62877.71082569658,164604.0,90181.0,5065.0,18.826013443271222
62877.720914664125,164582.0,90153.0,5049.0,18.83610241081624
62877.73100363168,164605.0,90142.0,5064.0,18.84619137836853
62877.74109259922,164608.0,90135.0,5082.0,18.856280345913547
62877.75118156677,164632.0,90132.0,5041.0,18.866369313458563
62877.76127053431,164658.0,90150.0,5068.0,18.87645828100358
62877.771359501865,164623.0,90171.0,5057.0,18.88654724855587
62877.78144846941,164641.0,90153.0,5059.0,18.896636216100887
62877.791537436955,164612.0,90179.0,5055.0,18.906725183645904
62877.80162640451,164646.0,90177.0,5073.0,18.916814151198196
62877.81171537205,164609.0,90170.0,5019.0,18.926903118743212
62877.8218043396,164620.0,90143.0,5056.0,18.936992086288228
62877.83189330715,164599.0,90163.0,5043.0,18.94708105384052
62877.841982274695,164578.0,90125.0,5021.0,18.957170021385537
62877.85207124224,164565.0,90158.0,5032.0,18.967258988930553
62877.86216020979,164617.0,90143.0,5027.0,18.977347956482845
62877.87224917734,164593.0,90118.0,5021.0,18.98743692402786
62877.88233814488,164584.0,90135.0,5031.0,18.997525891572877
62877.892427112434,164634.0,90172.0,5045.0,19.00761485912517
62877.90251607998,164576.0,90118.0,5021.0,19.017703826670186
62877.912605047524,164623.0,90149.0,5031.0,19.027792794215202
62877.92269401508,164641.0,90182.0,5044.0,19.037881761767494
62877.93278298262,164646.0,90159.0,5042.0,19.04797072931251
62877.94287195017,164629.0,90163.0,5031.0,19.058059696857526
62877.95296091771,164619.0,90151.0,5042.0,19.068148664402543
62877.963049885264,164623.0,90161.0,5076.0,19.078237631954835
62877.97313885281,164596.0,90136.0,5039.0,19.08832659949985
62877.983227820354,164654.0,90181.0,5067.0,19.098415567044867
62877.993316787906,164659.0,90162.0,5062.0,19.10850453459716
62878.00340575545,164665.0,90156.0,5031.0,19.118593502142176
62878.013494722996,164677.0,90173.0,5050.0,19.12868246968719
62878.02358369055,164655.0,90157.0,5047.0,19.138771437239484
62878.03367265809,164714.0,90166.0,5061.0,19.1488604047845
62878.04376162564,164728.0,90157.0,5081.0,19.158949372329516
62878.05385059319,164737.0,90193.0,5097.0,19.16903833988181
62878.063939560736,164723.0,90161.0,5060.0,19.179127307426825
62878.07402852828,164768.0,90184.0,5082.0,19.18921627497184
62878.08411749583,164794.0,90216.0,5071.0,19.199305242524133
62878.09420646338,164784.0,90179.0,5123.0,19.20939421006915
62878.10429543092,164805.0,90209.0,5084.0,19.219483177614165
62878.114384398476,164827.0,90204.0,5095.0,19.229572145166458
62878.12447336602,164838.0,90188.0,5102.0,19.239661112711474
62878.134562333566,164831.0,90179.0,5081.0,19.24975008025649
62878.14465130111,164884.0,90248.0,5135.0,19.259839047801506
62878.15474026866,164872.0,90210.0,5097.0,19.2699280153538
62878.16482923621,164887.0,90202.0,5128.0,19.280016982898815
62878.17491820375,164918.0,90250.0,5106.0,19.29010595044383
62878.185007171305,164951.0,90220.0,5119.0,19.300194917996123
62878.19509613885,164932.0,90239.0,5108.0,19.31028388554114
62878.205185106395,164927.0,90223.0,5098.0,19.320372853086155
62878.21527407395,164950.0,90267.0,5118.0,19.330461820638448
62878.22536304149,164961.0,90270.0,5107.0,19.340550788183464
62878.23545200904,164996.0,90254.0,5121.0,19.35063975572848
62878.24554097659,164985.0,90264.0,5092.0,19.360728723280772
62878.255629944135,164969.0,90228.0,5113.0,19.37081769082579
62878.26571891168,165016.0,90233.0,5120.0,19.380906658370805
62878.27580787923,165047.0,90274.0,5139.0,19.390995625923097
62878.28589684678,164999.0,90271.0,5147.0,19.401084593468113
62878.29598581432,164993.0,90274.0,5140.0,19.41117356101313
62878.30607478187,165068.0,90303.0,5165.0,19.421262528558145
62878.31616374942,165043.0,90269.0,5140.0,19.431351496110437
62878.326252716965,165027.0,90273.0,5128.0,19.441440463655454
62878.33634168451,165026.0,90237.0,5142.0,19.45152943120047
62878.34643065206,164973.0,90230.0,5121.0,19.461618398752762
62878.35651961961,164937.0,90243.0,5125.0,19.471707366297778
62878.36660858715,164925.0,90260.0,5124.0,19.481796333842794
62878.376697554704,164896.0,90232.0,5109.0,19.491885301395087
62878.38678652225,164794.0,90191.0,5085.0,19.501974268940103
62878.396875489794,164784.0,90207.0,5073.0,19.51206323648512
62878.40696445735,164718.0,90202.0,5022.0,19.52215220403741
62878.41705342489,164737.0,90209.0,5059.0,19.532241171582427
62878.42714239244,164721.0,90203.0,5056.0,19.542330139127444
62878.43723135999,164670.0,90176.0,5006.0,19.552419106679736
62878.447320327534,164654.0,90153.0,5013.0,19.562508074224752
62878.45740929508,164679.0,90183.0,5023.0,19.572597041769768
62878.46749826263,164644.0,90159.0,5036.0,19.58268600932206
62878.477587230176,164592.0,90137.0,5010.0,19.592774976867076
62878.48767619772,164615.0,90160.0,5022.0,19.602863944412093
62878.497765165266,164608.0,90176.0,5014.0,19.61295291195711
62878.50785413282,164603.0,90160.0,5040.0,19.6230418795094
62878.51794310036,164602.0,90146.0,5012.0,19.633130847054417
62878.52803206791,164604.0,90160.0,5040.0,19.643219814599433
62878.53812103546,164567.0,90127.0,5041.0,19.653308782151726
62878.548210003006,164620.0,90167.0,5045.0,19.663397749696742
62878.55829897055,164612.0,90171.0,5069.0,19.673486717241758
62878.5683879381,164621.0,90164.0,5050.0,19.68357568479405
62878.57847690565,164659.0,90160.0,5048.0,19.693664652339066
62878.58856587319,164641.0,90154.0,5030.0,19.703753619884083
62878.598654840745,164654.0,90180.0,5088.0,19.713842587436375
62878.60874380829,164658.0,90168.0,5064.0,19.72393155498139
62878.618832775835,164689.0,90173.0,5091.0,19.734020522526407
62878.62892174339,164635.0,90157.0,5067.0,19.7441094900787
62878.63901071093,164630.0,90160.0,5060.0,19.754198457623716
62878.64909967848,164658.0,90188.0,5069.0,19.76428742516873
62878.65918864603,164668.0,90201.0,5078.0,19.774376392721024
62878.669277613575,164673.0,90181.0,5107.0,19.78446536026604
62878.67936658112,164645.0,90180.0,5063.0,19.794554327811056
62878.689455548665,164654.0,90178.0,5070.0,19.804643295356072
62878.69954451622,164678.0,90216.0,5052.0,19.814732262908365
62878.70963348376,164648.0,90152.0,5051.0,19.82482123045338
62878.71972245131,164688.0,90207.0,5061.0,19.834910197998397
62878.72981141886,164691.0,90190.0,5089.0,19.84499916555069
62878.739900386405,164675.0,90189.0,5080.0,19.855088133095705
62878.74998935395,164731.0,90199.0,5115.0,19.86517710064072
62878.7600783215,164709.0,90185.0,5097.0,19.875266068193014
62878.77016728905,164738.0,90209.0,5106.0,19.88535503573803
62878.78025625659,164744.0,90180.0,5090.0,19.895444003283046
62878.790345224144,164757.0,90209.0,5130.0,19.90553297083534
62878.80043419169,164757.0,90206.0,5090.0,19.915621938380355
62878.810523159234,164811.0,90222.0,5138.0,19.92571090592537
