timestamp,time_from_segment_start_sec,selected_channel_name,backup_channel_name,selected_channel_raw,selected_channel_clipped,selected_channel_detrended,selected_channel_filtered,selected_channel_filtered_z
63856.46484006703,0.0,PPG_1,PPG_3,167155.0,167155.0,-99.55827664281242,-21.430651637108486,-0.46740945687069957
63856.47494923113,0.0101091641045059,PPG_1,PPG_3,167150.0,167150.0,-104.52258683860418,-22.183551916506914,-0.4838305659077485
63856.48505839523,0.0202183282090118,PPG_1,PPG_3,167174.0,167174.0,-80.48689703442506,-22.98980028163191,-0.5014152217737795
63856.49516755934,0.0303274923135177,PPG_1,PPG_3,167138.0,167138.0,-116.45120723021682,-23.837228383177255,-0.519898027050003
63856.50527672345,0.0404366564252995,PPG_1,PPG_3,167167.0,167167.0,-87.4155174260377,-24.70690547335241,-0.5388660932276385
63856.51538588756,0.0505458205298054,PPG_1,PPG_3,167153.0,167153.0,-101.37982762182946,-25.571756402296256,-0.557728898560009
63856.52549505166,0.0606549846343114,PPG_1,PPG_3,167144.0,167144.0,-110.34413781765033,-26.397408038562364,-0.5757367488912329
63856.53560421577,0.0707641487460932,PPG_1,PPG_3,167161.0,167161.0,-93.3084480134421,-27.14523066779041,-0.5920471119910291
63856.54571337988,0.0808733128505991,PPG_1,PPG_3,167130.0,167130.0,-124.27275820926297,-27.777116337321104,-0.6058288354970993
63856.55582254398,0.090982476955105,PPG_1,PPG_3,167154.0,167154.0,-100.23706840505474,-28.260895082452343,-0.616380277355979
63856.56593170809,0.1010916410668869,PPG_1,PPG_3,167135.0,167135.0,-119.20137860087561,-28.57492881497251,-0.6232295006915651
63856.5760408722,0.1112008051713928,PPG_1,PPG_3,167135.0,167135.0,-119.16568879666738,-28.710425047423033,-0.6261847372189804
63856.5861500363,0.1213099692758987,PPG_1,PPG_3,167153.0,167153.0,-101.12999899248825,-28.670302704313162,-0.625309650053977
63856.596259200414,0.1314191333876806,PPG_1,PPG_3,167148.0,167148.0,-106.09430918828002,-28.464188286302456,-0.620814197701421
63856.60636836452,0.1415282974921865,PPG_1,PPG_3,167166.0,167166.0,-88.0586193841009,-28.100767560704156,-0.6128878208296508
63856.61647752862,0.1516374615966924,PPG_1,PPG_3,167164.0,167164.0,-90.02292957989266,-27.580679271133967,-0.6015444507372021
63856.626586692735,0.1617466257084743,PPG_1,PPG_3,167119.0,167119.0,-134.98723977571353,-26.89356940663872,-0.586558261577698
63856.63669585684,0.1718557898129802,PPG_1,PPG_3,167157.0,167157.0,-96.9515499715053,-26.02052161117655,-0.5675166787331621
63856.646805020944,0.1819649539174861,PPG_1,PPG_3,167154.0,167154.0,-99.91586016732617,-24.939452029823798,-0.5439380429459438
63856.656914185056,0.192074118029268,PPG_1,PPG_3,167146.0,167146.0,-107.88017036311794,-23.630337614374277,-0.5153856421217
63856.66702334916,0.2021832821337739,PPG_1,PPG_3,167180.0,167180.0,-73.84448055893881,-22.079850769222805,-0.4815687951348912
63856.677132513265,0.2122924462382798,PPG_1,PPG_3,167109.0,167109.0,-144.80879075473058,-20.286832904159965,-0.4424622325883892
63856.68724167738,0.2224016103500616,PPG_1,PPG_3,167154.0,167154.0,-99.77310095055145,-18.268573448436765,-0.3984430450620327
63856.69735084148,0.2325107744545675,PPG_1,PPG_3,167147.0,167147.0,-106.73741114634322,-16.064741234116546,-0.35037642843170186
63856.707460005586,0.2426199385590735,PPG_1,PPG_3,167188.0,167188.0,-65.70172134216409,-13.73522330482247,-0.29956854727211063
63856.7175691697,0.2527291026708553,PPG_1,PPG_3,167143.0,167143.0,-110.66603153795586,-11.352019554328507,-0.2475897531140925
63856.7276783338,0.2628382667753612,PPG_1,PPG_3,167172.0,167172.0,-81.63034173377673,-8.989037186562992,-0.1960519968195868
63856.73778749791,0.2729474308798671,PPG_1,PPG_3,167177.0,167177.0,-76.5946519295685,-6.712791866497296,-0.14640601631107023
63856.74789666202,0.283056594991649,PPG_1,PPG_3,167201.0,167201.0,-52.55896212538937,-4.575059322794614,-0.09978106457079743
63856.75800582612,0.2931657590961549,PPG_1,PPG_3,167141.0,167141.0,-112.52327232118114,-2.609271124088676,-0.05690629982707019
63856.76811499023,0.3032749232006608,PPG_1,PPG_3,167168.0,167168.0,-85.48758251700201,-0.832548226207244,-0.018155138175165803
63856.77822415433,0.3133840873051667,PPG_1,PPG_3,167147.0,167147.0,-106.45189271279378,0.7486051276864693,0.016330559783838586
63856.78833331844,0.3234932514169486,PPG_1,PPG_3,167201.0,167201.0,-52.41620290861465,2.13434847909866,0.04655427372519463
63856.79844248255,0.3336024155214545,PPG_1,PPG_3,167194.0,167194.0,-59.38051310440642,3.3323539067667673,0.07268333529286052
63856.80855164665,0.3437115796259604,PPG_1,PPG_3,167152.0,167152.0,-101.34482330022729,4.360928491622126,0.09511703052822769
63856.818660810764,0.3538207437377423,PPG_1,PPG_3,167170.0,167170.0,-83.30913349601906,5.250272766861773,0.11451404725779268
63856.82876997487,0.3639299078422482,PPG_1,PPG_3,167206.0,167206.0,-47.27344369183993,6.0416708202526195,0.13177481084367276
63856.83887913897,0.3740390719467541,PPG_1,PPG_3,167182.0,167182.0,-71.2377538876317,6.786781883275515,0.14802603340980947
63856.848988303085,0.384148236058536,PPG_1,PPG_3,167193.0,167193.0,-60.20206408345257,7.546189658177352,0.1645890739830041
63856.85909746719,0.3942574001630419,PPG_1,PPG_3,167160.0,167160.0,-93.16637427924434,8.384083658464993,0.18286393602875348
63856.869206631294,0.4043665642675478,PPG_1,PPG_3,167172.0,167172.0,-81.13068447506521,9.358802927277372,0.20412302150348527
63856.879315795406,0.4144757283793296,PPG_1,PPG_3,167171.0,167171.0,-82.09499467085698,10.513091451138182,0.22929859684751022
63856.88942495951,0.4245848924838356,PPG_1,PPG_3,167191.0,167191.0,-62.05930486667785,11.868684891260589,0.25886472704996466
63856.899534123615,0.4346940565883415,PPG_1,PPG_3,167217.0,167217.0,-36.02361506246962,13.426776321965303,0.2928474336226553
63856.90964328773,0.4448032207001233,PPG_1,PPG_3,167166.0,167166.0,-86.98792525829049,15.171591376724404,0.3309026702159749
63856.91975245183,0.4549123848046292,PPG_1,PPG_3,167191.0,167191.0,-61.952235454082256,17.072873228176782,0.37237052120124425
63856.929861615936,0.4650215489091351,PPG_1,PPG_3,167203.0,167203.0,-49.91654564990313,19.086027738824928,0.41627836747564556
63856.93997078005,0.475130713020917,PPG_1,PPG_3,167167.0,167167.0,-85.8808558456949,21.151808857120187,0.46133402480294455
63856.95007994415,0.4852398771254229,PPG_1,PPG_3,167172.0,167172.0,-80.84516604151577,23.197733025656458,0.5059565927211174
63856.96018910826,0.4953490412299288,PPG_1,PPG_3,167213.0,167213.0,-39.809476237307535,25.14350953876057,0.5483948931942438
63856.97029827237,0.5054582053417107,PPG_1,PPG_3,167229.0,167229.0,-23.773786433128407,26.912308147087437,0.5869732223657026
63856.98040743647,0.5155673694462166,PPG_1,PPG_3,167203.0,167203.0,-49.738096628920175,28.44536984242397,0.6204100186433702
63856.99051660058,0.5256765335507225,PPG_1,PPG_3,167219.0,167219.0,-33.70240682474105,29.71321958016612,0.6480624174480201
63857.00062576469,0.5357856976625044,PPG_1,PPG_3,167178.0,167178.0,-74.66671702053281,30.71857855893542,0.6699897694008413
63857.010734928794,0.5458948617670103,PPG_1,PPG_3,167215.0,167215.0,-37.63102721635369,31.491672252666326,0.6868513062975384
63857.0208440929,0.5560040258715162,PPG_1,PPG_3,167203.0,167203.0,-49.59533741217456,32.081929956582954,0.6997251043039857
63857.03095325701,0.5661131899832981,PPG_1,PPG_3,167203.0,167203.0,-49.559647607966326,32.5492199230654,0.709916918149052
63857.041062421114,0.576222354087804,PPG_1,PPG_3,167186.0,167186.0,-66.5239578037872,32.95555753015319,0.7187793323816162
63857.05117158522,0.5863315181923099,PPG_1,PPG_3,167193.0,167193.0,-59.488267999578966,33.35815436383077,0.7275601585875414
63857.06128074933,0.5964406823040918,PPG_1,PPG_3,167217.0,167217.0,-35.45257819539984,33.80610497160713,0.7373301719276683
63857.071389913435,0.6065498464085977,PPG_1,PPG_3,167205.0,167205.0,-47.416888391191605,34.342314920318884,0.7490251629848923
63857.08149907754,0.6166590105131036,PPG_1,PPG_3,167235.0,167235.0,-17.381198587012477,35.00904133585445,0.7635667795401925
63857.09160824165,0.6267681746248854,PPG_1,PPG_3,167213.0,167213.0,-39.345508782804245,35.85283208533395,0.7819702524579168
63857.10171740576,0.6368773387293913,PPG_1,PPG_3,167216.0,167216.0,-36.30981897862512,36.92469062952715,0.805347991194516
63857.11182656986,0.6469865028338972,PPG_1,PPG_3,167221.0,167221.0,-31.274129174416885,38.27344323357676,0.8347649195463007
63857.121935733965,0.6570956669384032,PPG_1,PPG_3,167202.0,167202.0,-50.23843937023776,39.932973637784684,0.8709600578182245
63857.13204489808,0.667204831050185,PPG_1,PPG_3,167204.0,167204.0,-48.202749566029524,41.905883347457966,0.9139901460640186
63857.14215406218,0.6773139951546909,PPG_1,PPG_3,167219.0,167219.0,-33.167059761850396,44.14719498862584,0.9628742066132218
63857.152263226286,0.6874231592591968,PPG_1,PPG_3,167209.0,167209.0,-43.131369957642164,46.551775425063106,1.0153192363409838
63857.1623723904,0.6975323233709787,PPG_1,PPG_3,167203.0,167203.0,-49.095680153463036,48.94785636073228,1.0675788879613226
63857.1724815545,0.7076414874754846,PPG_1,PPG_3,167183.0,167183.0,-69.0599903492548,51.098268182993586,1.1144803807275712
63857.18259071861,0.7177506515799905,PPG_1,PPG_3,167228.0,167228.0,-24.024300545075675,52.712133739875206,1.1496795472119634
63857.19269988272,0.7278598156917724,PPG_1,PPG_3,167229.0,167229.0,-22.988610740867443,53.469731356735444,1.1662031073873036
63857.20280904682,0.7379689797962783,PPG_1,PPG_3,167275.0,167275.0,23.047079063311685,53.058816146223265,1.1572408534720922
63857.21291821093,0.7480781439007842,PPG_1,PPG_3,167217.0,167217.0,-34.91723113248008,51.21444489943422,1.1170142495285793
63857.22302737504,0.7581873080125661,PPG_1,PPG_3,167221.0,167221.0,-30.881541328300955,47.75251934259448,1.0415080256599496
63857.233136539144,0.768296472117072,PPG_1,PPG_3,167218.0,167218.0,-33.84585152409272,42.59208746017977,0.9289565803515442
63857.24324570325,0.7784056362215779,PPG_1,PPG_3,167235.0,167235.0,-16.810161719913594,35.767424974174766,0.7801074832130908
63857.25335486736,0.7885148003333597,PPG_1,PPG_3,167191.0,167191.0,-60.77447191570536,27.431777741838,0.5983030984332828
63857.263464031465,0.7986239644378657,PPG_1,PPG_3,167212.0,167212.0,-39.738782111526234,17.852225497996752,0.3893685605846415
63857.27357319557,0.8087331285423716,PPG_1,PPG_3,167182.0,167182.0,-69.703092307318,7.394734614314232,0.16128576827633803
63857.28368235968,0.8188422926541534,PPG_1,PPG_3,167177.0,167177.0,-74.66740250313887,-3.5000648002124404,-0.07633492867129066
63857.293791523785,0.8289514567586593,PPG_1,PPG_3,167150.0,167150.0,-101.63171269893064,-14.348837956869218,-0.3129517712975306
63857.30390068789,0.8390606208631652,PPG_1,PPG_3,167152.0,167152.0,-99.59602289475151,-24.66273950910882,-0.5379028127847758
63857.314009852,0.8491697849749471,PPG_1,PPG_3,167132.0,167132.0,-119.56033309054328,-33.98629826865503,-0.7412540123967228
63857.324119016106,0.859278949079453,PPG_1,PPG_3,167117.0,167117.0,-134.52464328636415,-41.93434241923935,-0.9146045917487541
63857.33422818021,0.8693881131839589,PPG_1,PPG_3,167107.0,167107.0,-144.48895348215592,-48.223580605329104,-1.051775833199574
63857.34433734432,0.8794972772957408,PPG_1,PPG_3,167095.0,167095.0,-156.4532636779768,-52.695074321215415,-1.1493012132216354
63857.35444650843,0.8896064414002467,PPG_1,PPG_3,167111.0,167111.0,-140.41757387376856,-55.32363392652223,-1.2066313339165213
63857.36455567253,0.8997156055047526,PPG_1,PPG_3,167109.0,167109.0,-142.38188406958943,-56.21161663411588,-1.2259986542156454
63857.37466483664,0.9098247696165344,PPG_1,PPG_3,167150.0,167150.0,-101.3461942653812,-55.567934684539054,-1.2119596482962602
63857.38477400075,0.9199339337210404,PPG_1,PPG_3,167114.0,167114.0,-137.31050446120207,-53.67704783106087,-1.1707185171035648
63857.39488316485,0.9300430978255464,PPG_1,PPG_3,167142.0,167142.0,-109.27481465699384,-50.86490687573485,-1.1093844008619609
63857.40499232896,0.9401522619300522,PPG_1,PPG_3,167113.0,167113.0,-138.2391248528147,-47.467430813288246,-1.0352838507641762
63857.41510149307,0.950261426041834,PPG_1,PPG_3,167125.0,167125.0,-126.20343504860648,-43.803404579878304,-0.9553697161306943
63857.42521065717,0.96037059014634,PPG_1,PPG_3,167162.0,167162.0,-89.16774524442735,-40.15094936937365,-0.8757079509463905
63857.43531982128,0.970479754250846,PPG_1,PPG_3,167143.0,167143.0,-108.13205544021912,-36.727169426045634,-0.8010337008409552
63857.44542898539,0.9805889183626276,PPG_1,PPG_3,167174.0,167174.0,-77.09636563603999,-33.673484923877226,-0.7344314062915098
63857.455538149494,0.9906980824671336,PPG_1,PPG_3,167175.0,167175.0,-76.06067583183176,-31.05125484460839,-0.6772393355350639
63857.4656473136,1.0008072465716396,PPG_1,PPG_3,167119.0,167119.0,-132.02498602765263,-28.851492051030757,-0.6292614748841903
63857.47575647771,1.0109164106834214,PPG_1,PPG_3,167136.0,167136.0,-114.9892962234444,-27.018637597671496,-0.5892860576195014
63857.485865641815,1.021025574787927,PPG_1,PPG_3,167103.0,167103.0,-147.95360641926527,-25.482243206143597,-0.5557765736711777
63857.49597480592,1.0311347388924332,PPG_1,PPG_3,167121.0,167121.0,-129.91791661505704,-24.185771793234252,-0.5274999226758937
63857.50608397003,1.041243903004215,PPG_1,PPG_3,167175.0,167175.0,-75.88222681087791,-23.10271077085411,-0.5038778526236787
63857.516193134135,1.051353067108721,PPG_1,PPG_3,167142.0,167142.0,-108.84653700666968,-22.23658577047086,-0.48498725919426544
63857.52630229824,1.061462231213227,PPG_1,PPG_3,167157.0,167157.0,-93.81084720249055,-21.60890177208285,-0.4712971761110503
63857.53641146235,1.0715713953250088,PPG_1,PPG_3,167190.0,167190.0,-60.77515739828232,-21.242152899382507,-0.46329821078640065
63857.546520626456,1.081680559429515,PPG_1,PPG_3,167158.0,167158.0,-92.73946759410319,-21.143831800624607,-0.4611537814010962
63857.55662979056,1.0917897235340206,PPG_1,PPG_3,167159.0,167159.0,-91.70377778989496,-21.295971624414143,-0.46447202247987696
63857.56673895467,1.1018988876458025,PPG_1,PPG_3,167143.0,167143.0,-107.66808798571583,-21.652799701819397,-0.47225461059530965
63857.57684811878,1.1120080517503084,PPG_1,PPG_3,167140.0,167140.0,-110.6323981815367,-22.145007477841418,-0.4829898935804601
63857.58695728288,1.1221172158548145,PPG_1,PPG_3,167183.0,167183.0,-67.59670837732847,-22.68633100175986,-0.4947964141168673
63857.59706644699,1.132226379966596,PPG_1,PPG_3,167147.0,167147.0,-103.56101857314934,-23.179685880604467,-0.5055567159538389
63857.6071756111,1.142335544071102,PPG_1,PPG_3,167156.0,167156.0,-94.52532876894111,-23.523760841440026,-0.5130611526015627
63857.6172847752,1.152444708175608,PPG_1,PPG_3,167150.0,167150.0,-100.48963896476198,-23.622012732426008,-0.5152040725328266
63857.627393939314,1.1625538722873898,PPG_1,PPG_3,167125.0,167125.0,-125.45394916055375,-23.393501094134542,-0.5102201262768669
63857.63750310342,1.1726630363918955,PPG_1,PPG_3,167160.0,167160.0,-90.41825935637462,-22.782357654745653,-0.49689080056124807
63857.64761226752,1.1827722004964016,PPG_1,PPG_3,167148.0,167148.0,-102.38256955216639,-21.762392359821924,-0.4746448779865735
63857.657721431635,1.1928813646081835,PPG_1,PPG_3,167182.0,167182.0,-68.34687974798726,-20.33564272742439,-0.44352679777960496
63857.66783059574,1.2029905287126894,PPG_1,PPG_3,167138.0,167138.0,-112.31118994377903,-18.527018355803566,-0.404079849988352
63857.67793975984,1.213099692817195,PPG_1,PPG_3,167158.0,167158.0,-92.2755001395999,-16.378210016759613,-0.3572133299448819
63857.68804892395,1.2232088569289772,PPG_1,PPG_3,167169.0,167169.0,-81.23981033539167,-13.941704432435726,-0.30407199773349075
63857.69815808806,1.233318021033483,PPG_1,PPG_3,167184.0,167184.0,-66.20412053121254,-11.273892905235563,-0.24588577416952426
63857.708267252165,1.243427185137989,PPG_1,PPG_3,167178.0,167178.0,-72.1684307270043,-8.42795354234849,-0.1838144987701601
63857.71837641628,1.2535363492497709,PPG_1,PPG_3,167161.0,167161.0,-89.13274092282518,-5.449530607065868,-0.11885369437545097
63857.72848558038,1.2636455133542768,PPG_1,PPG_3,167176.0,167176.0,-74.09705111861695,-2.377068971506222,-0.051841861719488985
63857.738594744485,1.273754677458783,PPG_1,PPG_3,167181.0,167181.0,-69.06136131443782,0.7546689044752666,0.016462813606223575
63857.74870390859,1.2838638415632886,PPG_1,PPG_3,167193.0,167193.0,-57.025671510229586,3.9104616160687233,0.08529213620496945
63857.7588130727,1.2939730056750705,PPG_1,PPG_3,167161.0,167161.0,-88.98998170605046,7.050723935653478,0.15378273365306622
63857.768922236806,1.3040821697795764,PPG_1,PPG_3,167191.0,167191.0,-58.954291901842225,10.127867133569248,0.2208966733848485
63857.77903140091,1.3141913338840825,PPG_1,PPG_3,167208.0,167208.0,-41.9186020976631,13.084110468006203,0.2853737302583375
63857.78914056502,1.324300497995864,PPG_1,PPG_3,167157.0,167157.0,-92.88291229345486,15.852011682885617,0.3457429569634084
63857.79924972913,1.33440966210037,PPG_1,PPG_3,167211.0,167211.0,-38.84722248927574,18.357784551927814,0.40039504121751157
63857.80935889323,1.344518826204876,PPG_1,PPG_3,167193.0,167193.0,-56.811532685067505,20.527682111320857,0.4477215270709764
63857.81946805734,1.3546279903166578,PPG_1,PPG_3,167206.0,167206.0,-43.775842880888376,22.29791250414547,0.4863310841354222
63857.82957722145,1.3647371544211635,PPG_1,PPG_3,167201.0,167201.0,-48.740153076680144,23.62684657884553,0.5153157610452724
63857.83968638555,1.3748463185256696,PPG_1,PPG_3,167237.0,167237.0,-12.704463272501016,24.506947447795817,0.5345111747382804
63857.849795549664,1.3849554826374515,PPG_1,PPG_3,167217.0,167217.0,-32.668773468292784,24.973429695858016,0.5446853718648873
63857.85990471377,1.3950646467419574,PPG_1,PPG_3,167198.0,167198.0,-51.633083664113656,25.106059426896653,0.5475780886489482
63857.87001387787,1.405173810846463,PPG_1,PPG_3,167189.0,167189.0,-60.597393859905424,25.022049383896515,0.5457457901174418
63857.880123041985,1.4152829749582452,PPG_1,PPG_3,167213.0,167213.0,-36.561704055726295,24.862475571208446,0.542265410246017
63857.89023220609,1.425392139062751,PPG_1,PPG_3,167208.0,167208.0,-41.52601425151806,24.77723377660244,0.5404062466329322
63857.900341370194,1.435501303167257,PPG_1,PPG_3,167204.0,167204.0,-45.490324447338935,24.911348821447387,0.5433313588093645
63857.910450534306,1.4456104672790389,PPG_1,PPG_3,167203.0,167203.0,-46.4546346431307,25.392350241986826,0.5538222259132585
63857.92055969841,1.4557196313835448,PPG_1,PPG_3,167203.0,167203.0,-46.418944838951575,26.318320168641474,0.574018065318144
63857.930668862515,1.465828795488051,PPG_1,PPG_3,167215.0,167215.0,-34.38325503474334,27.747595910426558,0.6051912411583956
63857.94077802663,1.4759379595998323,PPG_1,PPG_3,167211.0,167211.0,-38.347565230564214,29.69118721151052,0.6475818811300802
63857.95088719073,1.4860471237043384,PPG_1,PPG_3,167220.0,167220.0,-29.311875426355982,32.10785675026524,0.7002905798625525
63857.960996354836,1.4961562878088444,PPG_1,PPG_3,167193.0,167193.0,-56.276185622176854,34.90130376083714,0.7612169723809229
63857.97110551895,1.5062654519206262,PPG_1,PPG_3,167226.0,167226.0,-23.240495817968622,37.91991876553887,0.8270543847042187
63857.98121468305,1.516374616025132,PPG_1,PPG_3,167197.0,167197.0,-52.204806013789494,40.961063376332014,0.8933831783276842
63857.99132384715,1.526483780129638,PPG_1,PPG_3,167229.0,167229.0,-20.16911620958126,43.78199831262254,0.9549090954282324
63858.00143301127,1.53659294424142,PPG_1,PPG_3,167241.0,167241.0,-8.133426405402133,46.11813205302898,1.0058612705383205
63858.01154217537,1.5467021083459258,PPG_1,PPG_3,167252.0,167252.0,2.902263398806099,47.70664413718594,1.0405074658637539
63858.02165133948,1.5568112724504315,PPG_1,PPG_3,167229.0,167229.0,-20.062046797014773,48.3106790232483,1.0536817506895433
63858.03176050358,1.5669204365549376,PPG_1,PPG_3,167243.0,167243.0,-6.026356992806541,47.73881455170374,1.0412091177279104
63858.04186966769,1.5770296006667197,PPG_1,PPG_3,167203.0,167203.0,-45.99066718862741,45.85753232123988,1.0001774678783537
63858.0519788318,1.5871387647712254,PPG_1,PPG_3,167235.0,167235.0,-13.95497738441918,42.598252503145346,0.9290910428368505
63858.0620879959,1.5972479288757313,PPG_1,PPG_3,167213.0,167213.0,-35.91928758024005,37.96213721928806,0.8279751890276611
63858.072197160014,1.6073570929875132,PPG_1,PPG_3,167240.0,167240.0,-8.88359777603182,32.02454253588204,0.6984734576802952
63858.08230632412,1.617466257092019,PPG_1,PPG_3,167228.0,167228.0,-20.847907971852692,24.9378489917567,0.5439093399817148
63858.09241548822,1.627575421196525,PPG_1,PPG_3,167201.0,167201.0,-47.81221816764446,16.928891745148448,0.3692302173697549
63858.102524652335,1.6376845853083069,PPG_1,PPG_3,167176.0,167176.0,-72.77652836346533,8.287847150239651,0.1807649725429438
63858.11263381644,1.6477937494128128,PPG_1,PPG_3,167208.0,167208.0,-40.7408385592571,-0.6507418849934502,-0.014189856404937183
63858.122742980544,1.6579029135173189,PPG_1,PPG_3,167181.0,167181.0,-67.70514875507797,-9.531272129526776,-0.207878395833837
63858.132852144656,1.6680120776291003,PPG_1,PPG_3,167146.0,167146.0,-102.66945895089884,-18.002413775886193,-0.39263797748029355
63858.14296130876,1.6781212417336064,PPG_1,PPG_3,167144.0,167144.0,-104.63376914669061,-25.74348281469103,-0.5614743323440541
63858.153070472865,1.6882304058381123,PPG_1,PPG_3,167140.0,167140.0,-108.59807934251148,-32.48852550314079,-0.7085868842680374
63858.16317963698,1.6983395699498942,PPG_1,PPG_3,167162.0,167162.0,-86.56238953830325,-38.04296272545349,-0.8297317712641176
63858.17328880108,1.7084487340544,PPG_1,PPG_3,167132.0,167132.0,-116.52669973412412,-42.29044473984626,-0.9223713507672319
63858.183397965186,1.718557898158906,PPG_1,PPG_3,167147.0,167147.0,-101.49100992991589,-45.19171436401688,-0.9856494051763097
63858.1935071293,1.728667062270688,PPG_1,PPG_3,167135.0,167135.0,-113.45532012573676,-46.77828815026801,-1.0202533253132102
63858.2036162934,1.7387762263751938,PPG_1,PPG_3,167132.0,167132.0,-116.41963032152853,-47.14232344079023,-1.0281931061348821
63858.21372545751,1.7488853904796997,PPG_1,PPG_3,167149.0,167149.0,-99.3839405173494,-46.42294344164837,-1.0125030901683332
63858.22383462162,1.7589945545914816,PPG_1,PPG_3,167152.0,167152.0,-96.34825071314117,-44.789513520622776,-0.9768772157046247
63858.23394378572,1.7691037186959877,PPG_1,PPG_3,167139.0,167139.0,-109.31256090896204,-42.4235331013771,-0.925274070497933
63858.24405294983,1.7792128828004934,PPG_1,PPG_3,167178.0,167178.0,-70.27687110475381,-39.50171505440469,-0.8615478453275995
63858.25416211394,1.7893220469122753,PPG_1,PPG_3,167162.0,167162.0,-86.24118130057468,-36.182801154281876,-0.7891607729226856
63858.26427127804,1.7994312110167812,PPG_1,PPG_3,167157.0,167157.0,-91.20549149636645,-32.60056708301365,-0.7110305637965474
63858.27438044215,1.809540375121287,PPG_1,PPG_3,167165.0,167165.0,-83.16980169218732,-28.864716763732023,-0.6295499120852293
63858.28448960626,1.819649539233069,PPG_1,PPG_3,167146.0,167146.0,-102.13411188797909,-25.06879302586351,-0.5467590308736222
63858.29459877037,1.8297587033375748,PPG_1,PPG_3,167156.0,167156.0,-92.09842208379996,-21.301491720957177,-0.4645924183805142
63858.30470793447,1.8398678674420808,PPG_1,PPG_3,167171.0,167171.0,-77.06273227959173,-17.656789346578133,-0.3850997461967692
63858.31481709858,1.8499770315538624,PPG_1,PPG_3,167160.0,167160.0,-88.0270424754126,-14.23926877562181,-0.31056201594533245
63858.324926262685,1.8600861956583683,PPG_1,PPG_3,167183.0,167183.0,-64.99135267120437,-11.163254085663139,-0.24347268950261353
63858.33503542679,1.8701953597628744,PPG_1,PPG_3,167178.0,167178.0,-69.95566286702524,-8.54632288894537,-0.18639618986564577
63858.345144590894,1.8803045238673803,PPG_1,PPG_3,167184.0,167184.0,-63.91997306281701,-6.498707528879443,-0.14173673626517083
63858.355253755006,1.8904136879791624,PPG_1,PPG_3,167202.0,167202.0,-45.88428325863788,-5.110591854842498,-0.11146128085212445
63858.36536291911,1.900522852083668,PPG_1,PPG_3,167187.0,167187.0,-60.84859345442965,-4.439724842781377,-0.09682935594008031
63858.375472083215,1.910632016188174,PPG_1,PPG_3,167202.0,167202.0,-45.81290365025052,-4.501999259986884,-0.0981875902549452
63858.38558124733,1.920741180299956,PPG_1,PPG_3,167174.0,167174.0,-73.77721384604229,-5.267089503280825,-0.11487456813513736
63858.39569041143,1.9308503444044616,PPG_1,PPG_3,167157.0,167157.0,-90.74152404186316,-6.659254354585483,-0.14523833800793742
63858.405799575536,1.9409595085089677,PPG_1,PPG_3,167224.0,167224.0,-23.705834237654926,-8.56082558320336,-0.18671250044522442
63858.41590873965,1.9510686726207496,PPG_1,PPG_3,167201.0,167201.0,-46.6701444334758,-10.816026168665186,-0.23589948539876252
63858.42601790375,1.9611778367252557,PPG_1,PPG_3,167161.0,167161.0,-86.63445462926757,-13.236906381979464,-0.28870002092284447
63858.43612706786,1.9712870008297616,PPG_1,PPG_3,167198.0,167198.0,-49.59876482508844,-15.615528254024472,-0.34057888215791965
63858.44623623197,1.9813961649415432,PPG_1,PPG_3,167142.0,167142.0,-105.5630750208802,-17.742801969031696,-0.38697572192758045
63858.45634539607,1.9915053290460492,PPG_1,PPG_3,167150.0,167150.0,-97.52738521670108,-19.429523942736363,-0.4237639211131637
63858.46645456018,2.001614493150555,PPG_1,PPG_3,167185.0,167185.0,-62.491695412492845,-20.52363483336018,-0.447626993986389
63858.47656372429,2.011723657262337,PPG_1,PPG_3,167188.0,167188.0,-59.45600560831372,-20.91949882381365,-0.4562609737164426
63858.48667288839,2.021832821366843,PPG_1,PPG_3,167160.0,167160.0,-87.42031580410548,-20.55975253043799,-0.44841473793882275
63858.4967820525,2.0319419854713487,PPG_1,PPG_3,167171.0,167171.0,-76.38462599992636,-19.433826382141458,-0.42385775933919384
63858.50689121661,2.0420511495831306,PPG_1,PPG_3,167159.0,167159.0,-88.34893619571812,-17.575248578053085,-0.38332130370238676
63858.517000380714,2.0521603136876365,PPG_1,PPG_3,167212.0,167212.0,-35.313246391538996,-15.056234977376286,-0.32838043286677787
63858.52710954482,2.0622694777921424,PPG_1,PPG_3,167188.0,167188.0,-59.277556587330764,-11.978810956111362,-0.2612603682457336
63858.53721870893,2.0723786419039243,PPG_1,PPG_3,167180.0,167180.0,-67.24186678315164,-8.46534735382827,-0.1846300753776106
63858.547327873035,2.08248780600843,PPG_1,PPG_3,167196.0,167196.0,-51.206176978943404,-4.652124538120847,-0.10146189314592675
63858.55743703714,2.092596970112936,PPG_1,PPG_3,167203.0,167203.0,-44.170487174764276,-0.6864600352946904,-0.014968886054344415
63858.56754620125,2.102706134224718,PPG_1,PPG_3,167166.0,167166.0,-81.13479737055604,3.274364545668221,0.07141856006612148
63858.57765536536,2.112815298329224,PPG_1,PPG_3,167166.0,167166.0,-81.09910756637692,7.064773257803085,0.1540891559738278
63858.58776452946,2.12292446243373,PPG_1,PPG_3,167230.0,167230.0,-17.063417762168683,10.517169296967564,0.22938753658207117
63858.59787369357,2.1330336265455117,PPG_1,PPG_3,167199.0,167199.0,-48.027727957989555,13.476642471868534,0.2939350377944495
63858.60798285768,2.1431427906500176,PPG_1,PPG_3,167266.0,167266.0,19.007961846218677,15.822559367897213,0.3451005881277845
63858.61809202178,2.1532519547545235,PPG_1,PPG_3,167230.0,167230.0,-16.956348349602195,17.489343263922848,0.38145392846616666
63858.62820118589,2.1633611188663053,PPG_1,PPG_3,167191.0,167191.0,-55.92065854539396,18.47771690961624,0.40301082231968566
63858.63831035,2.1734702829708112,PPG_1,PPG_3,167223.0,167223.0,-23.884968741214834,18.852618818521865,0.41118760919676844
63858.6484195141,2.183579447075317,PPG_1,PPG_3,167229.0,167229.0,-17.849278937006602,18.73094274811964,0.4085337969005756
63858.65852867821,2.193688611179823,PPG_1,PPG_3,167185.0,167185.0,-61.813589132827474,18.26466791202311,0.3983641235264456
63858.66863784232,2.203797775291605,PPG_1,PPG_3,167209.0,167209.0,-37.77789932861924,17.622761631696747,0.38436384578816685
63858.67874700642,2.213906939396111,PPG_1,PPG_3,167213.0,167213.0,-33.74220952444011,16.974445688266776,0.37022377028437364
63858.68885617053,2.2240161035006167,PPG_1,PPG_3,167232.0,167232.0,-14.706519720260985,16.476585240222025,0.3593651998650492
63858.69896533464,2.2341252676123986,PPG_1,PPG_3,167195.0,167195.0,-51.67082991605275,16.265309484004707,0.35475717629982806
63858.70907449874,2.2442344317169045,PPG_1,PPG_3,167214.0,167214.0,-32.635140111873625,16.449601321364902,0.3587766679094578
63858.71918366285,2.2543435958214104,PPG_1,PPG_3,167224.0,167224.0,-22.599450307665393,17.105952034148913,0.3730919855100605
63858.72929282696,2.2644527599331923,PPG_1,PPG_3,167207.0,167207.0,-39.563760503486264,18.274965383034463,0.398588716210112
63858.739401991064,2.274561924037698,PPG_1,PPG_3,167218.0,167218.0,-28.528070699278032,19.960207816445262,0.43534464592634436
63858.74951115517,2.284671088142204,PPG_1,PPG_3,167231.0,167231.0,-15.492380895098904,22.128837177135647,0.4826434717699157
63858.75962031928,2.294780252253986,PPG_1,PPG_3,167227.0,167227.0,-19.456691090890672,24.713575547360712,0.5390178307270183
63858.769729483385,2.304889416358492,PPG_1,PPG_3,167228.0,167228.0,-18.421001286711544,27.61503116255172,0.6022999416876863
63858.77983864749,2.314998580462998,PPG_1,PPG_3,167228.0,167228.0,-18.38531148250331,30.70309333508246,0.6696520293889028
63858.7899478116,2.3251077445747796,PPG_1,PPG_3,167206.0,167206.0,-40.34962167832418,33.81752348081015,0.7375792149813024
63858.800056975706,2.3352169086792856,PPG_1,PPG_3,167234.0,167234.0,-12.313931874115951,36.76999961220865,0.8019741073855358
63858.81016613981,2.3453260727837915,PPG_1,PPG_3,167249.0,167249.0,2.721757930063177,39.35069556235554,0.8582602992603651
63858.82027530392,2.3554352368955733,PPG_1,PPG_3,167249.0,167249.0,2.757447734271409,41.340332415533844,0.9016552143695439
63858.83038446803,2.3655444010000792,PPG_1,PPG_3,167228.0,167228.0,-18.206862461549463,42.5250140014006,0.9274936766838967
63858.84049363213,2.375653565104585,PPG_1,PPG_3,167241.0,167241.0,-5.171172657341231,42.71043467877557,0.9315377888249238
63858.85060279624,2.385762729216367,PPG_1,PPG_3,167222.0,167222.0,-24.135482853162102,41.73494530033212,0.9102619068971047
63858.86071196035,2.395871893320873,PPG_1,PPG_3,167242.0,167242.0,-4.09979304895387,39.48336817254444,0.8611539512588509
63858.87082112445,2.405981057425379,PPG_1,PPG_3,167268.0,167268.0,21.935896755225258,35.90261993696197,0.7830561489075202
63858.88093028856,2.4160902215371607,PPG_1,PPG_3,167233.0,167233.0,-13.02841344056651,31.01683063795772,0.6764947874545801
63858.89103945267,2.4261993856416666,PPG_1,PPG_3,167238.0,167238.0,-7.992723636387382,24.93670941235914,0.5438844852193303
63858.90114861677,2.4363085497461725,PPG_1,PPG_3,167209.0,167209.0,-36.95703383217915,17.85887359037971,0.38951355860482567
63858.911257780885,2.4464177138579544,PPG_1,PPG_3,167229.0,167229.0,-16.92134402800002,10.054937456527908,0.2193060428438564
63858.92136694499,2.4565268779624603,PPG_1,PPG_3,167196.0,167196.0,-49.88565422379179,1.8527659362703874,0.040412826092306155
63858.93147610909,2.466636042066966,PPG_1,PPG_3,167199.0,167199.0,-46.84996441961266,-6.387976759651043,-0.13932164613303713
63858.941585273205,2.476745206178748,PPG_1,PPG_3,167158.0,167158.0,-87.81427461540443,-14.30420313052835,-0.3119782647519111
63858.95169443731,2.486854370283254,PPG_1,PPG_3,167173.0,167173.0,-72.7785848112253,-21.55854811395896,-0.4701989391557827
63858.961803601414,2.49696353438776,PPG_1,PPG_3,167184.0,167184.0,-61.74289500701707,-27.86484157543522,-0.6077421641805791
63858.97191276552,2.5070726984922658,PPG_1,PPG_3,167155.0,167155.0,-90.70720520283794,-33.0069662720948,-0.7198943211613368
63858.98202192963,2.5171818626040476,PPG_1,PPG_3,167136.0,167136.0,-109.67151539862971,-36.8511000290743,-0.8037366855536013
63858.992131093735,2.5272910267085535,PPG_1,PPG_3,167156.0,167156.0,-89.63582559445058,-39.35142134678877,-0.8582698689104367
63859.00224025784,2.5374001908130595,PPG_1,PPG_3,167174.0,167174.0,-71.60013579024235,-40.54737416906732,-0.8843541621896129
63859.01234942195,2.5475093549248413,PPG_1,PPG_3,167171.0,167171.0,-74.56444598606322,-40.5519242967968,-0.8844534026144378
63859.022458586056,2.5576185190293472,PPG_1,PPG_3,167137.0,167137.0,-108.52875618185499,-39.53438520503476,-0.8622603966712938
63859.03256775016,2.567727683133853,PPG_1,PPG_3,167159.0,167159.0,-86.49306637767586,-37.70198875871755,-0.8222949687555041
63859.04267691427,2.577836847245635,PPG_1,PPG_3,167183.0,167183.0,-62.45737657346763,-35.28077974605176,-0.7694872619629951
63859.05278607838,2.587946011350141,PPG_1,PPG_3,167179.0,167179.0,-66.4216867692885,-32.495105321915375,-0.7087303932087271
63859.06289524248,2.598055175454647,PPG_1,PPG_3,167196.0,167196.0,-49.38599696508027,-29.548227517257107,-0.6444576029425084
63859.07300440659,2.6081643395664287,PPG_1,PPG_3,167148.0,167148.0,-97.35030716090114,-26.608985166319624,-0.580351345511417
63859.0831135707,2.6182735036709346,PPG_1,PPG_3,167195.0,167195.0,-50.31461735669291,-23.807067843333172,-0.5192402114973356
63859.0932227348,2.6283826677754405,PPG_1,PPG_3,167177.0,167177.0,-68.27892755251378,-21.235322662414678,-0.463149240107193
63859.103331898914,2.6384918318872224,PPG_1,PPG_3,167163.0,167163.0,-82.24323774830555,-18.956141722427553,-0.41343923234813584
63859.11344106302,2.6486009959917283,PPG_1,PPG_3,167158.0,167158.0,-87.20754794412642,-17.00956658748032,-0.3709835135571735
63859.12355022712,2.658710160096234,PPG_1,PPG_3,167190.0,167190.0,-55.171858139918186,-15.41997787043719,-0.3363138363623606
63859.133659391235,2.668819324208016,PPG_1,PPG_3,167190.0,167190.0,-55.13616833573906,-14.197934064323377,-0.30966048646019423
63859.14376855534,2.678928488312522,PPG_1,PPG_3,167212.0,167212.0,-33.100478531530825,-13.337150086288283,-0.290886383239044
63859.15387771944,2.689037652417028,PPG_1,PPG_3,167190.0,167190.0,-55.0647887273517,-12.811038755564727,-0.2794116477875692
63859.163986883555,2.6991468165288097,PPG_1,PPG_3,167156.0,167156.0,-89.02909892314347,-12.573727529474558,-0.2742357783849757
63859.17409604766,2.7092559806333156,PPG_1,PPG_3,167181.0,167181.0,-63.99340911896434,-12.56613525522448,-0.27407018731440347
63859.18420521176,2.7193651447378215,PPG_1,PPG_3,167210.0,167210.0,-34.957719314756105,-12.722915495438858,-0.2774896380569003
63859.19431437587,2.7294743088496034,PPG_1,PPG_3,167186.0,167186.0,-58.92202951057698,-12.976693407868337,-0.2830246536296516
63859.20442353998,2.7395834729541093,PPG_1,PPG_3,167183.0,167183.0,-61.886339706368744,-13.260948691660055,-0.2892243949994259
63859.214532704085,2.749692637058615,PPG_1,PPG_3,167182.0,167182.0,-62.850649902189616,-13.514690369612211,-0.29475862028119276
63859.2246418682,2.759801801170397,PPG_1,PPG_3,167152.0,167152.0,-92.81496009798138,-13.688819391068343,-0.2985564560983483
63859.2347510323,2.769910965274903,PPG_1,PPG_3,167212.0,167212.0,-32.779270293802256,-13.75091410624262,-0.29991077102743297
63859.244860196406,2.780020129379409,PPG_1,PPG_3,167165.0,167165.0,-79.74358048962313,-13.685588402317574,-0.298485986714785
63859.25496936052,2.7901292934911908,PPG_1,PPG_3,167177.0,167177.0,-67.7078906854149,-13.49035616993329,-0.2942278799465283
63859.26507852462,2.8002384575956967,PPG_1,PPG_3,167184.0,167184.0,-60.67220088123577,-13.168391515888796,-0.2872056794841182
63859.27518768873,2.8103476217002026,PPG_1,PPG_3,167213.0,167213.0,-31.636511077027535,-12.718926307790843,-0.27740263199895376
63859.28529685283,2.8204567858047085,PPG_1,PPG_3,167182.0,167182.0,-62.60082127284841,-12.12683179450361,-0.2644887723166375
63859.29540601694,2.8305659499164904,PPG_1,PPG_3,167213.0,167213.0,-31.565131468640175,-11.355270296577572,-0.24766065333073994
63859.30551518105,2.8406751140209963,PPG_1,PPG_3,167198.0,167198.0,-46.52944166446105,-10.345401963466083,-0.22563495023983843
63859.31562434515,2.850784278125502,PPG_1,PPG_3,167180.0,167180.0,-64.49375186025281,-9.02496417356771,-0.19683558129567238
63859.325733509264,2.860893442237284,PPG_1,PPG_3,167172.0,167172.0,-72.45806205607369,-7.324879389132891,-0.1597559329261194
63859.33584267337,2.87100260634179,PPG_1,PPG_3,167181.0,167181.0,-63.422372251865454,-5.199817935312772,-0.11340734361294792
63859.34595183747,2.881111770446296,PPG_1,PPG_3,167166.0,167166.0,-78.38668244768633,-2.6463657385801103,-0.05771535080755042
63859.356061001585,2.8912209345580777,PPG_1,PPG_3,167175.0,167175.0,-69.3509926434781,0.28696523344704505,0.006261976670528711
63859.36617016569,2.9013300986625836,PPG_1,PPG_3,167223.0,167223.0,-21.315302839298965,3.5012174004754972,0.07636632747448602
63859.376279329794,2.9114392627670895,PPG_1,PPG_3,167210.0,167210.0,-34.27961303509073,6.859644272742856,0.1496151963771803
63859.386388493906,2.9215484268788714,PPG_1,PPG_3,167195.0,167195.0,-49.243923230911605,10.20682567036738,0.22261879619134278
63859.39649765801,2.9316575909833773,PPG_1,PPG_3,167194.0,167194.0,-50.20823342670337,13.388436976588894,0.29201123447641764
63859.406606822115,2.941766755087883,PPG_1,PPG_3,167234.0,167234.0,-10.172543622524245,16.269653831174313,0.35485192855390335
63859.416715986226,2.951875919199665,PPG_1,PPG_3,167242.0,167242.0,-2.1368538183160126,18.75266975283114,0.4090076730873411
63859.42682515033,2.961985083304171,PPG_1,PPG_3,167216.0,167216.0,-28.101164014136884,20.79097249562213,0.453464014127127
63859.436934314435,2.972094247408677,PPG_1,PPG_3,167210.0,167210.0,-34.06547420992865,22.395411347927904,0.48845757975316434
63859.44704347855,2.9822034115204588,PPG_1,PPG_3,167242.0,167242.0,-2.029784405749524,23.629926196371482,0.5153829289512618
63859.45715264265,2.9923125756249647,PPG_1,PPG_3,167197.0,167197.0,-46.99409460154129,24.599111916680382,0.5365213251317753
63859.46726180675,3.0024217397294706,PPG_1,PPG_3,167219.0,167219.0,-24.958404797362164,25.430750318039763,0.5546597496241011
63859.47737097087,3.0125309038412524,PPG_1,PPG_3,167195.0,167195.0,-48.92271499315393,26.256273594978982,0.572664800378063
63859.48748013497,3.0226400679457583,PPG_1,PPG_3,167213.0,167213.0,-30.887025188974803,27.193076707439225,0.5930969166581205
63859.49758929908,3.0327492320502643,PPG_1,PPG_3,167221.0,167221.0,-22.85133538476657,28.332533291872288,0.617949000430634
63859.50769846319,3.042858396162046,PPG_1,PPG_3,167221.0,167221.0,-22.815645580587443,29.73525150173351,0.648542944014756
63859.51780762729,3.052967560266552,PPG_1,PPG_3,167226.0,167226.0,-17.77995577637921,31.432248496181938,0.6855552462331155
63859.5279167914,3.063076724371058,PPG_1,PPG_3,167238.0,167238.0,-5.744265972200083,33.42927860638093,0.7291114117535342
63859.53802595551,3.07318588848284,PPG_1,PPG_3,167254.0,167254.0,10.29142383200815,35.71138056816323,0.7788851283711355
63859.548135119614,3.0832950525873457,PPG_1,PPG_3,167228.0,167228.0,-15.672886363812722,38.244445882609405,0.8341324736898575
63859.55824428372,3.0934042166918516,PPG_1,PPG_3,167202.0,167202.0,-41.63719655960449,40.97128502863026,0.8936061173695748
63859.56835344783,3.1035133808036335,PPG_1,PPG_3,167233.0,167233.0,-10.601506755425362,43.80342460113782,0.9553764128533897
63859.578462611935,3.1136225449081394,PPG_1,PPG_3,167222.0,167222.0,-21.56581695121713,46.614130120311536,1.016679221557704
63859.58857177604,3.1237317090126453,PPG_1,PPG_3,167237.0,167237.0,-6.530127147038002,49.23794420776653,1.073905840277343
63859.598680940144,3.133840873117151,PPG_1,PPG_3,167261.0,167261.0,17.50556265717023,51.477937898547864,1.1227611557090382
63859.608790104256,3.143950037228933,PPG_1,PPG_3,167224.0,167224.0,-19.45874753865064,53.11826919767645,1.1585375524735562
63859.61889926836,3.154059201333439,PPG_1,PPG_3,167252.0,167252.0,8.57694226555759,53.938660970331,1.1764306827067157
63859.629008432465,3.164168365437945,PPG_1,PPG_3,167239.0,167239.0,-4.387367930263281,53.728793446688094,1.1718533733559617
63859.63911759658,3.1742775295497268,PPG_1,PPG_3,167236.0,167236.0,-7.351678126055049,52.3023409406275,1.140741773614083
63859.64922676068,3.1843866936542327,PPG_1,PPG_3,167220.0,167220.0,-23.31598832187592,49.51085096784724,1.0798580650099645
63859.659335924785,3.1944958577587386,PPG_1,PPG_3,167219.0,167219.0,-24.28029851766769,45.25809601585184,0.9871034802588942
63859.6694450889,3.2046050218705204,PPG_1,PPG_3,167246.0,167246.0,2.75539128651144,39.51623054298235,0.861870695006918
63859.679554253,3.2147141859750263,PPG_1,PPG_3,167238.0,167238.0,-5.208918909280328,32.3435680734628,0.7054315546309332
63859.689663417106,3.224823350079532,PPG_1,PPG_3,167249.0,167249.0,5.8267708948988,23.899677356147716,0.5212663285577744
63859.69977258122,3.234932514191314,PPG_1,PPG_3,167182.0,167182.0,-61.13753930089297,14.45071712171977,0.3151800638265992
63859.70988174532,3.24504167829582,PPG_1,PPG_3,167240.0,167240.0,-3.1018494967138395,4.359936735549767,0.0950953998620585
63859.71999090943,3.255150842400326,PPG_1,PPG_3,167184.0,167184.0,-59.06615969250561,-5.937245395279934,-0.1294909831843268
63859.73010007354,3.265260006512108,PPG_1,PPG_3,167154.0,167154.0,-89.03046988832648,-15.97176878717149,-0.34834865565687184
63859.74020923764,3.2753691706166137,PPG_1,PPG_3,167122.0,167122.0,-120.99478008411825,-25.289549465251916,-0.5515738325957362
63859.75031840175,3.2854783347211196,PPG_1,PPG_3,167092.0,167092.0,-150.95909027993912,-33.50200740848587,-0.7306914010681176
63859.76042756586,3.2955874988329015,PPG_1,PPG_3,167141.0,167141.0,-101.92340047573089,-40.32598688480692,-0.8795256014442765
63859.77053672997,3.3056966629374074,PPG_1,PPG_3,167141.0,167141.0,-101.88771067155176,-45.602915779057966,-0.9946179013468432
63859.78064589407,3.3158058270419133,PPG_1,PPG_3,167149.0,167149.0,-93.85202086734353,-49.296029385041855,-1.075166445250328
63859.79075505818,3.325914991153695,PPG_1,PPG_3,167119.0,167119.0,-123.8163310631644,-51.47289580402353,-1.1226449252075277
63859.800864222285,3.336024155258201,PPG_1,PPG_3,167152.0,167152.0,-90.78064125898527,-52.28189562139823,-1.1402895915406004
63859.81097338639,3.346133319362707,PPG_1,PPG_3,167135.0,167135.0,-107.74495145477704,-51.92766052899185,-1.1325635576469724
63859.8210825505,3.356242483474489,PPG_1,PPG_3,167117.0,167117.0,-125.70926165059791,-50.64774035684409,-1.1046478969935456
63859.831191714606,3.3663516475789947,PPG_1,PPG_3,167140.0,167140.0,-102.67357184638968,-48.69164568142258,-1.0619845525496407
63859.84130087871,3.3764608116835007,PPG_1,PPG_3,167136.0,167136.0,-106.63788204221055,-46.30195974876836,-1.009864378951391
63859.85141004282,3.3865699757952825,PPG_1,PPG_3,167143.0,167143.0,-99.60219223800232,-43.69686437889062,-0.9530460242619043
63859.86151920693,3.3966791398997884,PPG_1,PPG_3,167172.0,167172.0,-70.56650243382319,-41.05519965896971,-0.8954300748564843
63859.87162837103,3.4067883040042943,PPG_1,PPG_3,167130.0,167130.0,-112.53081262961496,-38.50698370722138,-0.8398522870157882
63859.88173753514,3.416897468116076,PPG_1,PPG_3,167145.0,167145.0,-97.49512282543583,-36.13209534761431,-0.788054855442133
63859.89184669925,3.427006632220582,PPG_1,PPG_3,167119.0,167119.0,-123.4594330212276,-33.9668715578289,-0.7408303067009806
63859.90195586335,3.437115796325088,PPG_1,PPG_3,167163.0,167163.0,-79.42374321704847,-32.014691941574185,-0.6982523515379985
63859.912065027456,3.447224960429594,PPG_1,PPG_3,167147.0,167147.0,-95.38805341284024,-30.25619227108667,-0.6598986470424145
63859.92217419157,3.457334124541376,PPG_1,PPG_3,167154.0,167154.0,-88.35236360866111,-28.657974529035677,-0.6250407667556188
63859.93228335567,3.4674432886458817,PPG_1,PPG_3,167112.0,167112.0,-130.31667380445288,-27.181086909626046,-0.5928291534817193
63859.94239251978,3.4775524527503876,PPG_1,PPG_3,167152.0,167152.0,-90.28098400027375,-25.78885196089924,-0.5624638547511889
63859.95250168389,3.4876616168621695,PPG_1,PPG_3,167172.0,167172.0,-70.24529419606552,-24.450876268320155,-0.5332819759048731
63859.96261084799,3.4977707809666754,PPG_1,PPG_3,167159.0,167159.0,-83.20960439188639,-23.141718553684502,-0.5047286307050246
63859.9727200121,3.5078799450711813,PPG_1,PPG_3,167157.0,167157.0,-85.17391458767815,-21.83745855207406,-0.47628210692870293
63859.98282917621,3.517989109182963,PPG_1,PPG_3,167137.0,167137.0,-105.13822478349903,-20.514553406817672,-0.4474289238042586
63859.992938340314,3.528098273287469,PPG_1,PPG_3,167185.0,167185.0,-57.102534979290795,-19.15176176635885,-0.41770579746854564
63860.00304750442,3.538207437391975,PPG_1,PPG_3,167163.0,167163.0,-79.06684517511167,-17.73355504446218,-0.3867740421556793
63860.01315666853,3.548316601503757,PPG_1,PPG_3,167116.0,167116.0,-126.03115537090343,-16.254768833138183,-0.3545210196995869
63860.023265832635,3.5584257656082627,PPG_1,PPG_3,167143.0,167143.0,-98.9954655667243,-14.726115797756876,-0.3211803783680828
63860.03337499674,3.5685349297127686,PPG_1,PPG_3,167176.0,167176.0,-65.95977576251607,-13.176516919972402,-0.2873828983669875
63860.04348416085,3.5786440938245505,PPG_1,PPG_3,167183.0,167183.0,-58.924085958336946,-11.647993958398088,-0.2540450940063625
63860.05359332496,3.5887532579290564,PPG_1,PPG_3,167162.0,167162.0,-79.88839615412871,-10.185119476418803,-0.22213911384748677
63860.06370248906,3.5988624220335623,PPG_1,PPG_3,167137.0,167137.0,-104.85270634994959,-8.825301356817693,-0.19248084139955224
63860.07381165317,3.608971586145344,PPG_1,PPG_3,167187.0,167187.0,-54.81701654574135,-7.592762008508426,-0.16559857878807963
63860.08392081728,3.61908075024985,PPG_1,PPG_3,167194.0,167194.0,-47.781326741562225,-6.494514061885005,-0.14164527477864577
63860.09402998138,3.629189914354356,PPG_1,PPG_3,167158.0,167158.0,-83.74563693735399,-5.518127745414201,-0.12034983021079365
63860.10413914549,3.639299078466138,PPG_1,PPG_3,167141.0,167141.0,-100.70994713317486,-4.634277739859012,-0.101072646085939
63860.1142483096,3.649408242570644,PPG_1,PPG_3,167160.0,167160.0,-81.67425732896663,-3.804357482313543,-0.08297169511790527
63860.1243574737,3.6595174066751497,PPG_1,PPG_3,167197.0,167197.0,-44.638567524787504,-2.9884314682780304,-0.06517596517960954
63860.13446663781,3.669626570786931,PPG_1,PPG_3,167159.0,167159.0,-82.60287772057927,-2.149945101103108,-0.046888183333573
63860.14457580192,3.6797357348914375,PPG_1,PPG_3,167157.0,167157.0,-84.56718791640014,-1.2588099137282642,-0.027452105968419814
63860.15468496602,3.6898448989959434,PPG_1,PPG_3,167162.0,167162.0,-79.53149811219191,-0.2951958456821139,-0.006435230143027322
63860.164794130134,3.699954063107725,PPG_1,PPG_3,167162.0,167162.0,-79.49580830801278,0.7474125110587664,0.01630454825453147
63860.17490329424,3.710063227212231,PPG_1,PPG_3,167176.0,167176.0,-65.46011850380455,1.8628627369751232,0.040633042062248804
63860.18501245834,3.720172391316737,PPG_1,PPG_3,167192.0,167192.0,-49.42442869962542,3.037183236853317,0.06624552422037647
63860.195121622455,3.730281555428519,PPG_1,PPG_3,167162.0,167162.0,-79.38873889541719,4.255077481431337,0.09280837023471107
63860.20523078656,3.740390719533025,PPG_1,PPG_3,167174.0,167174.0,-67.35304909123806,5.5047564670525535,0.12006445639341344
63860.215339950664,3.7504998836375303,PPG_1,PPG_3,167182.0,167182.0,-59.31735928702983,6.779847021521186,0.14787478081482347
63860.22544911477,3.7606090477420366,PPG_1,PPG_3,167167.0,167167.0,-74.2816694828507,8.079336950813268,0.17621726707143937
63860.23555827888,3.7707182118538185,PPG_1,PPG_3,167170.0,167170.0,-71.24597967864247,9.406685818361536,0.20516736986809264
63860.245667442985,3.780827375958325,PPG_1,PPG_3,167193.0,167193.0,-48.21028987446334,10.768766623228633,0.23487499254538155
63860.25577660709,3.7909365400628303,PPG_1,PPG_3,167194.0,167194.0,-47.17460007025511,12.174844503500642,0.2655422121205659
63860.2658857712,3.801045704174612,PPG_1,PPG_3,167188.0,167188.0,-53.13891026607598,13.634087119345526,0.29736897957168623
63860.275994935306,3.811154868279118,PPG_1,PPG_3,167118.0,167118.0,-123.10322046186775,15.149391779094325,0.33041848655548617
63860.28610409941,3.821264032383624,PPG_1,PPG_3,167180.0,167180.0,-61.06753065768862,16.709221522248907,0.3644391065399005
63860.29621326352,3.831373196495406,PPG_1,PPG_3,167185.0,167185.0,-56.03184085348039,18.284245802972592,0.39879112653174903
63860.30632242763,3.841482360599912,PPG_1,PPG_3,167196.0,167196.0,-44.99615104930126,19.834032664775602,0.43259270655266113
63860.31643159173,3.8515915247044177,PPG_1,PPG_3,167214.0,167214.0,-26.96046124509303,21.321336448226084,0.4650315012609988
63860.32654075584,3.861700688816199,PPG_1,PPG_3,167163.0,167163.0,-77.9247714409139,22.726540120762028,0.49567965395448876
63860.33664991995,3.8718098529207055,PPG_1,PPG_3,167201.0,167201.0,-39.88908163670567,24.056800931159266,0.5246932675936016
63860.34675908405,3.8819190170252114,PPG_1,PPG_3,167199.0,167199.0,-41.85339183252654,25.34934238783676,0.5528842043959706
63860.35686824816,3.8920281811369937,PPG_1,PPG_3,167203.0,167203.0,-37.81770202834741,26.67034854869825,0.5816959697780372
63860.36697741227,3.902137345241499,PPG_1,PPG_3,167197.0,167197.0,-43.78201222413918,28.10916592407978,0.613077253132612
63860.37708657637,3.912246509346005,PPG_1,PPG_3,167194.0,167194.0,-46.74632241996005,29.76632193200614,0.6492206047054155
63860.38719574048,3.922355673457787,PPG_1,PPG_3,167165.0,167165.0,-75.71063261575182,31.73577082451082,0.6921752109018096
63860.39730490459,3.932464837562293,PPG_1,PPG_3,167201.0,167201.0,-39.67494281157269,34.08490678719503,0.7434109705922061
63860.40741406869,3.9425740016667983,PPG_1,PPG_3,167212.0,167212.0,-28.63925300736446,36.83720330531502,0.8034398515250835
63860.417523232805,3.9526831657785806,PPG_1,PPG_3,167180.0,167180.0,-60.60356320318533,39.960133076044634,0.8715524179345044
63860.42763239691,3.9627923298830865,PPG_1,PPG_3,167190.0,167190.0,-50.5678733989771,43.35805571462414,0.945662708067686
63860.437741561014,3.972901493987592,PPG_1,PPG_3,167231.0,167231.0,-9.53218359479797,46.87009657763259,1.02226197032339
63860.447850725126,3.9830106580993743,PPG_1,PPG_3,167194.0,167194.0,-46.49649379058974,50.27419003941792,1.096506849011635
63860.45795988923,3.99311982220388,PPG_1,PPG_3,167185.0,167185.0,-55.46080398641061,53.297109604109195,1.1624381458119049
63860.468069053335,4.003228986308386,PPG_1,PPG_3,167218.0,167218.0,-22.42511418220238,55.63001028973125,1.2133198064772652
63860.47817821745,4.013338150420168,PPG_1,PPG_3,167195.0,167195.0,-45.38942437802325,56.95106636741534,1.2421326605686989
63860.48828738155,4.023447314524674,PPG_1,PPG_3,167239.0,167239.0,-1.353734573815018,56.95637093612848,1.242248355706045
63860.498396545656,4.03355647862918,PPG_1,PPG_3,167246.0,167246.0,5.68195523036411,55.39630557484287,1.2082225967794273
63860.50850570977,4.043665642740962,PPG_1,PPG_3,167229.0,167229.0,-11.282354965427658,52.110490920181334,1.1365574344781968
63860.51861487387,4.0537748068454675,PPG_1,PPG_3,167195.0,167195.0,-45.24666516124853,47.053161852973254,1.026254710038759
63860.52872403798,4.0638839709499734,PPG_1,PPG_3,167236.0,167236.0,-4.210975357040297,40.304124883524935,0.8790550409684591
63860.53883320208,4.073993135054479,PPG_1,PPG_3,167205.0,167205.0,-35.17528555286117,32.06527905284315,0.6993619402657214
63860.54894236619,4.084102299166261,PPG_1,PPG_3,167163.0,167163.0,-77.13959574865294,22.643980605752798,0.4938789921203669
63860.5590515303,4.094211463270767,PPG_1,PPG_3,167169.0,167169.0,-71.10390594447381,12.424566923423717,0.27098877549523886
63860.5691606944,4.104320627375273,PPG_1,PPG_3,167134.0,167134.0,-106.06821614026558,1.832325560822891,0.039967011894641434
63860.579269858514,4.114429791487055,PPG_1,PPG_3,167164.0,167164.0,-76.03252633608645,-8.703170063543103,-0.18981710047850986
63860.58937902262,4.124538955591561,PPG_1,PPG_3,167145.0,167145.0,-94.99683653187822,-18.78033774491595,-0.40960486495200266
63860.59948818672,4.134648119696067,PPG_1,PPG_3,167102.0,167102.0,-137.9611467276991,-28.052650637565915,-0.611838368115924
63860.609597350835,4.144757283807849,PPG_1,PPG_3,167083.0,167083.0,-156.92545692349086,-36.25086553290747,-0.7906452890180214
63860.61970651494,4.1548664479123545,PPG_1,PPG_3,167119.0,167119.0,-120.88976711931173,-43.19753950565428,-0.9421555140407153
63860.62981567904,4.16497561201686,PPG_1,PPG_3,167118.0,167118.0,-121.8540773151035,-48.809005905747675,-1.0645442342139837
63860.639924843155,4.175084776128642,PPG_1,PPG_3,167089.0,167089.0,-150.81838751092437,-53.08418410803417,-1.1577878805952202
63860.65003400726,4.185193940233148,PPG_1,PPG_3,167126.0,167126.0,-113.78269770671614,-56.08501699841583,-1.2232374566457065
63860.66014317136,4.195303104337654,PPG_1,PPG_3,167097.0,167097.0,-142.747007902537,-57.914029938667376,-1.2631290887035957
63860.67025233547,4.205412268449436,PPG_1,PPG_3,167106.0,167106.0,-133.71131809832877,-58.692725410097665,-1.2801128030053488
63860.68036149958,4.215521432553942,PPG_1,PPG_3,167122.0,167122.0,-117.67562829414965,-58.54353077519278,-1.276858797880695
63860.690470663685,4.225630596658448,PPG_1,PPG_3,167111.0,167111.0,-128.63993848994141,-57.577573929990194,-1.2557908249841656
63860.7005798278,4.23573976077023,PPG_1,PPG_3,167083.0,167083.0,-156.6042486857623,-55.89019162108334,-1.2189882235773948
63860.7106889919,4.2458489248747355,PPG_1,PPG_3,167114.0,167114.0,-125.56855888155405,-53.56449835455439,-1.16826376011071
63860.720798156006,4.255958088979241,PPG_1,PPG_3,167090.0,167090.0,-149.53286907737493,-50.68038380049279,-1.1053598658454211
63860.73090732012,4.266067253091023,PPG_1,PPG_3,167087.0,167087.0,-152.4971792731667,-47.324797894703806,-1.0321729597571774
63860.74101648422,4.276176417195529,PPG_1,PPG_3,167116.0,167116.0,-123.46148946898757,-43.59966611341273,-0.9509260843982882
63860.75112564833,4.286285581300035,PPG_1,PPG_3,167116.0,167116.0,-123.42579966477933,-39.62479085306737,-0.8642321863551743
63860.76123481244,4.296394745411817,PPG_1,PPG_3,167097.0,167097.0,-142.3901098606002,-35.53506286026583,-0.775033296224167
63860.77134397654,4.306503909516323,PPG_1,PPG_3,167150.0,167150.0,-89.35442005639197,-31.473262346965345,-0.6864435175499692
63860.78145314065,4.316613073620829,PPG_1,PPG_3,167129.0,167129.0,-110.31873025221284,-27.580229602699873,-0.6015346432572625
63860.79156230476,4.326722237732611,PPG_1,PPG_3,167123.0,167123.0,-116.28304044800461,-23.984703826808495,-0.5231145358047756
63860.801671468864,4.336831401837117,PPG_1,PPG_3,167122.0,167122.0,-117.24735064382548,-20.795145128917287,-0.4535487611712637
63860.81178063297,4.3469405659416225,PPG_1,PPG_3,167163.0,167163.0,-76.21166083961725,-18.093653114788033,-0.3946279503539555
63860.82188979708,4.357049730053404,PPG_1,PPG_3,167133.0,167133.0,-106.17597103543812,-15.930899389577577,-0.34745727488237627
63860.831998961185,4.36715889415791,PPG_1,PPG_3,167142.0,167142.0,-97.14028123122989,-14.322919468071529,-0.3123864768724011
63860.84210812529,4.377268058262416,PPG_1,PPG_3,167135.0,167135.0,-104.10459142705076,-13.251543125047151,-0.28901925516997984
63860.85221728939,4.387377222366922,PPG_1,PPG_3,167142.0,167142.0,-97.06890162284253,-12.668205245314306,-0.2762963817820357
63860.862326453505,4.397486386478704,PPG_1,PPG_3,167140.0,167140.0,-99.0332118186634,-12.499301526120654,-0.2726125122636738
63860.87243561761,4.40759555058321,PPG_1,PPG_3,167150.0,167150.0,-88.99752201445517,-12.65192161637411,-0.27594122817980904
63860.882544781714,4.417704714687716,PPG_1,PPG_3,167139.0,167139.0,-99.96183221027604,-13.020120440612077,-0.28397181762912604
63860.892653945826,4.427813878799498,PPG_1,PPG_3,167143.0,167143.0,-95.92614240606781,-13.49247662062647,-0.29427412797298436
63860.90276310993,4.4379230429040035,PPG_1,PPG_3,167119.0,167119.0,-119.89045260188868,-13.961088602179654,-0.3044947755882314
63860.912872274035,4.448032207008509,PPG_1,PPG_3,167164.0,167164.0,-74.85476279770955,-14.330828180488593,-0.31255896960815494
63860.92298143815,4.458141371120291,PPG_1,PPG_3,167125.0,167125.0,-113.81907299350132,-14.527335075722222,-0.3168448773723832
63860.93309060225,4.468250535224797,PPG_1,PPG_3,167127.0,167127.0,-111.7833831893222,-14.503387594445861,-0.31632257154787746
63860.94319976635,4.478359699329303,PPG_1,PPG_3,167102.0,167102.0,-136.74769338511396,-14.243198366364272,-0.310647722166752
63860.95330893047,4.488468863441085,PPG_1,PPG_3,167174.0,167174.0,-64.71200358093483,-13.761982454493824,-0.30015217690609497
63860.96341809457,4.498578027545591,PPG_1,PPG_3,167133.0,167133.0,-105.6763137767266,-13.098364338725316,-0.2856783538299465
63860.97352725868,4.508687191650097,PPG_1,PPG_3,167160.0,167160.0,-78.64062397254747,-12.301766004309489,-0.2683041696702253
63860.98363642279,4.518796355761879,PPG_1,PPG_3,167159.0,167159.0,-79.60493416833924,-11.420466292416622,-0.24908260864905568
63860.99374558689,4.528905519866385,PPG_1,PPG_3,167119.0,167119.0,-119.56924436416011,-10.494864598482486,-0.22889480057291312
63861.003854751,4.5390146839708905,PPG_1,PPG_3,167135.0,167135.0,-103.53355455995188,-9.556737286591277,-0.20843380288075145
63861.01396391511,4.549123848082672,PPG_1,PPG_3,167157.0,167157.0,-81.49786475577275,-8.631640831904518,-0.18825701431011044
63861.024073079214,4.559233012187178,PPG_1,PPG_3,167119.0,167119.0,-119.46217495156452,-7.740618635501121,-0.1688234013311623
63861.03418224332,4.569342176291684,PPG_1,PPG_3,167133.0,167133.0,-105.42648514738539,-6.899336243652416,-0.15047463687256102
63861.04429140743,4.579451340403466,PPG_1,PPG_3,167164.0,167164.0,-74.39079534317716,-6.114064596695532,-0.13334749309106958
63861.054400571535,4.589560504507972,PPG_1,PPG_3,167174.0,167174.0,-64.35510553899803,-5.374572285613609,-0.11721881814617768
63861.06450973564,4.599669668612478,PPG_1,PPG_3,167150.0,167150.0,-88.3194157347898,-4.6471153789242,-0.10135264102900922
63861.07461889975,4.60977883272426,PPG_1,PPG_3,167163.0,167163.0,-75.28372593061067,-3.873276834042577,-0.08447485857855566
63861.084728063855,4.619887996828766,PPG_1,PPG_3,167114.0,167114.0,-124.24803612640244,-2.9777675680582876,-0.06494338050264738
63861.09483722796,4.6299971609332715,PPG_1,PPG_3,167149.0,167149.0,-89.21234632222331,-1.882694067959118,-0.041059312664235605
63861.10494639207,4.640106325045053,PPG_1,PPG_3,167149.0,167149.0,-89.17665651801508,-0.5223785088156084,-0.01139019082603175
63861.115055556176,4.650215489149559,PPG_1,PPG_3,167138.0,167138.0,-100.14096671383595,1.1461357209075698,0.02500088890373511
63861.12516472028,4.660324653254065,PPG_1,PPG_3,167171.0,167171.0,-67.10527690962772,3.1381507342345754,0.06844767280374575
63861.13527388439,4.670433817365847,PPG_1,PPG_3,167157.0,167157.0,-81.06958710544859,5.440584577926686,0.11866483732395149
63861.1453830485,4.680542981470353,PPG_1,PPG_3,167136.0,167136.0,-102.03389730124036,8.013418248308765,0.17477954918100091
63861.1554922126,4.690652145574859,PPG_1,PPG_3,167159.0,167159.0,-78.99820749706123,10.79238155794525,0.23539004537308697
63861.165601376706,4.700761309679365,PPG_1,PPG_3,167163.0,167163.0,-74.962517692853,13.694205041722578,0.2986801797205601
63861.17571054082,4.710870473791147,PPG_1,PPG_3,167162.0,167162.0,-75.92682788867387,16.62623750952041,0.3626291862109623
63861.18581970492,4.720979637895653,PPG_1,PPG_3,167198.0,167198.0,-39.89113808446564,19.499798563815396,0.4253029036850717
63861.19592886903,4.7310888020001585,PPG_1,PPG_3,167195.0,167195.0,-42.85544828028651,22.243831746617154,0.48515155739001015
63861.20603803314,4.74119796611194,PPG_1,PPG_3,167160.0,167160.0,-77.81975847607828,24.813988236931934,0.5412078786912319
63861.21614719724,4.751307130216446,PPG_1,PPG_3,167169.0,167169.0,-68.78406867189915,27.193721569924538,0.5931109814120793
63861.22625636135,4.761416294320952,PPG_1,PPG_3,167180.0,167180.0,-57.74837886769092,29.388690053435404,0.6409842759065599
63861.23636552546,4.771525458432734,PPG_1,PPG_3,167180.0,167180.0,-57.71268906351179,31.419123453950988,0.6852689828918898
63861.24647468957,4.78163462253724,PPG_1,PPG_3,167173.0,167173.0,-64.67699925930356,33.31338343480155,0.7265836835783062
63861.25658385367,4.791743786641746,PPG_1,PPG_3,167179.0,167179.0,-58.64130945512443,35.103314356914154,0.7656229184478713
63861.26669301778,4.801852950753528,PPG_1,PPG_3,167186.0,167186.0,-51.605619650916196,36.82162929414754,0.8031001750200758
63861.276802181885,4.811962114858034,PPG_1,PPG_3,167182.0,167182.0,-55.56992984673707,38.50189583823279,0.8397475782509196
63861.28691134599,4.8220712789625395,PPG_1,PPG_3,167201.0,167201.0,-36.534240042528836,40.18090879767143,0.8763676402113024
63861.2970205101,4.832180443074321,PPG_1,PPG_3,167199.0,167199.0,-38.49855023834971,41.90203736605574,0.913906263401615
63861.307129674205,4.842289607178827,PPG_1,PPG_3,167204.0,167204.0,-33.462860434141476,43.71723151398921,0.9534965011027419
63861.31723883831,4.852398771283333,PPG_1,PPG_3,167213.0,167213.0,-24.427170629962347,45.68504372557708,0.9964154105189258
63861.32734800242,4.862507935395115,PPG_1,PPG_3,167182.0,167182.0,-55.391480825754115,47.86272781565001,1.0439117242670182
63861.337457166526,4.872617099499621,PPG_1,PPG_3,167199.0,167199.0,-38.35579102157499,50.29247563598707,1.0969056664689871
63861.34756633063,4.882726263604127,PPG_1,PPG_3,167194.0,167194.0,-43.320101217366755,52.98452769766604,1.1556205874855712
63861.35767549474,4.892835427715909,PPG_1,PPG_3,167212.0,167212.0,-25.284411413187627,55.9011707587185,1.2192339437801956
63861.36778465885,4.902944591820415,PPG_1,PPG_3,167177.0,167177.0,-60.248721608979395,58.9444553071925,1.2856094104504792
63861.37789382295,4.9130537559249206,PPG_1,PPG_3,167203.0,167203.0,-34.213031804800266,61.949260991803165,1.3511456350107367
63861.38800298706,4.923162920036702,PPG_1,PPG_3,167194.0,167194.0,-43.177342000592034,64.68396220753681,1.4107907541269007
63861.39811215117,4.933272084141208,PPG_1,PPG_3,167198.0,167198.0,-39.141652196412906,66.86134259147804,1.4582804439014863
63861.40822131527,4.943381248245714,PPG_1,PPG_3,167229.0,167229.0,-8.105962392204674,68.16075783464613,1.4866213012186278
63861.418330479384,4.953490412357496,PPG_1,PPG_3,167221.0,167221.0,-16.070272588025546,68.25965792764961,1.4887783587406174
63861.42843964349,4.963599576462002,PPG_1,PPG_3,167218.0,167218.0,-19.034582783817314,66.86974824732465,1.458463775207055
63861.43854880759,4.973708740566508,PPG_1,PPG_3,167208.0,167208.0,-28.998892979638185,63.77208838821961,1.3909023574497175
63861.448657971705,4.98381790467829,PPG_1,PPG_3,167248.0,167248.0,11.036796824570047,58.846999879511095,1.2834838617583109
63861.45876713581,4.993927068782796,PPG_1,PPG_3,167213.0,167213.0,-23.927513371250825,52.09575608207705,1.1362360607321982
63861.468876299914,5.004036232887302,PPG_1,PPG_3,167189.0,167189.0,-47.8918235670717,43.650127420534716,0.952032929278424
63861.47898546402,5.0141453969918075,PPG_1,PPG_3,167176.0,167176.0,-60.856133762863465,33.76688849510715,0.7364748421392805
63861.48909462813,5.024254561103589,PPG_1,PPG_3,167193.0,167193.0,-43.820443958684336,22.808824814580074,0.4974743218092357
63861.499203792235,5.034363725208095,PPG_1,PPG_3,167148.0,167148.0,-88.7847541544761,11.21644474937087,0.24463906293297286
63861.50931295634,5.044472889312601,PPG_1,PPG_3,167155.0,167155.0,-81.74906435029698,-0.5267643322207246,-0.011485847696301737
63861.51942212045,5.054582053424383,PPG_1,PPG_3,167101.0,167101.0,-135.71337454608874,-11.933667233882561,-0.26027576244156303
63861.52953128456,5.064691217528889,PPG_1,PPG_3,167112.0,167112.0,-124.67768474190962,-22.553572692137003,-0.491900892973439
63861.53964044866,5.074800381633395,PPG_1,PPG_3,167111.0,167111.0,-125.64199493770138,-32.00720559804214,-0.6980890708661853
63861.54974961277,5.084909545745177,PPG_1,PPG_3,167111.0,167111.0,-125.60630513352226,-40.01184878888148,-0.8726741018937593
63861.55985877688,5.095018709849683,PPG_1,PPG_3,167082.0,167082.0,-154.57061532931402,-46.39586394693431,-1.0119124736583711
63861.56996794098,5.1051278739541885,PPG_1,PPG_3,167077.0,167077.0,-159.5349255251349,-51.10423650198428,-1.114604292520891
63861.58007710509,5.11523703806597,PPG_1,PPG_3,167063.0,167063.0,-173.49923572092666,-54.195250777352925,-1.1820207669728051
63861.5901862692,5.125346202170476,PPG_1,PPG_3,167100.0,167100.0,-136.46354591674753,-55.82600973639228,-1.2175883864999568
63861.6002954333,5.135455366274982,PPG_1,PPG_3,167102.0,167102.0,-134.4278561125393,-56.22569590318542,-1.2263057296928088
63861.61040459741,5.145564530386764,PPG_1,PPG_3,167101.0,167101.0,-135.39216630836017,-55.66017595107617,-1.2139714736826603
63861.62051376152,5.15567369449127,PPG_1,PPG_3,167129.0,167129.0,-107.35647650415194,-54.395506025778474,-1.1863884280822747
63861.63062292562,5.165782858595776,PPG_1,PPG_3,167107.0,167107.0,-129.3207866999728,-52.66825268172966,-1.148716220655422
63861.640732089734,5.175892022707558,PPG_1,PPG_3,167102.0,167102.0,-134.28509689576458,-50.66838815125368,-1.1050982350962826
63861.65084125384,5.186001186812064,PPG_1,PPG_3,167070.0,167070.0,-166.24940709158545,-48.53674453322857,-1.0586060856874817
63861.66095041794,5.19611035091657,PPG_1,PPG_3,167093.0,167093.0,-143.21371728737722,-46.373747616732366,-1.0114301060996345
63861.671059582055,5.2062195150283515,PPG_1,PPG_3,167107.0,167107.0,-129.1780274831981,-44.252498700455476,-0.9651646700225798
63861.68116874616,5.216328679132857,PPG_1,PPG_3,167079.0,167079.0,-157.14233767898986,-42.2305126951429,-0.9210642046978036
63861.691277910264,5.226437843237363,PPG_1,PPG_3,167086.0,167086.0,-150.10664787481073,-40.35801820555701,-0.8802242196079703
63861.701387074376,5.236547007349145,PPG_1,PPG_3,167089.0,167089.0,-147.0709580706025,-38.681645296492164,-0.8436617383873448
63861.71149623848,5.246656171453651,PPG_1,PPG_3,167126.0,167126.0,-110.03526826642337,-37.24144965151398,-0.8122503943249335
63861.721605402585,5.256765335558157,PPG_1,PPG_3,167129.0,167129.0,-106.99957846221514,-36.06131627094793,-0.7865111305063301
63861.7317145667,5.266874499669939,PPG_1,PPG_3,167132.0,167132.0,-103.96388865803601,-35.137649978043235,-0.7663655344364845
63861.7418237308,5.276983663774445,PPG_1,PPG_3,167104.0,167104.0,-131.92819885382778,-34.43370151334751,-0.7510120874906713
63861.751932894906,5.287092827878951,PPG_1,PPG_3,167126.0,167126.0,-109.89250904964865,-33.88408712414713,-0.7390247392848748
63861.76204205902,5.2972019919907325,PPG_1,PPG_3,167079.0,167079.0,-156.85681924544042,-33.40878565345013,-0.7286581907666284
63861.77215122312,5.307311156095238,PPG_1,PPG_3,167087.0,167087.0,-148.8211294412613,-32.931928900649524,-0.7182577208145539
63861.78226038723,5.317420320199744,PPG_1,PPG_3,167093.0,167093.0,-142.78543963705306,-32.3986794425362,-0.7066272994490277
63861.79236955133,5.32752948430425,PPG_1,PPG_3,167125.0,167125.0,-110.74974983287393,-31.783844216826882,-0.6932174541382274
63861.80247871544,5.337638648416032,PPG_1,PPG_3,167101.0,167101.0,-134.7140600286657,-31.08993424082803,-0.6780829513500526
63861.81258787955,5.347747812520538,PPG_1,PPG_3,167115.0,167115.0,-120.67837022448657,-30.33751002321853,-0.6616722254444201
63861.82269704365,5.357856976625044,PPG_1,PPG_3,167123.0,167123.0,-112.64268042027834,-29.552223675647117,-0.6445447610356149
63861.83280620776,5.367966140736826,PPG_1,PPG_3,167129.0,167129.0,-106.60699061609921,-28.751727465077675,-0.6270855623645661
63861.84291537187,5.378075304841332,PPG_1,PPG_3,167117.0,167117.0,-118.57130081189098,-27.935177984366184,-0.6092762343249716
63861.85302453597,5.388184468945838,PPG_1,PPG_3,167104.0,167104.0,-131.53561100771185,-27.077904555457486,-0.5905786978306001
63861.86313370008,5.3982936330576194,PPG_1,PPG_3,167126.0,167126.0,-109.49992120350362,-26.1317396220697,-0.5699423958350595
63861.87324286419,5.408402797162125,PPG_1,PPG_3,167128.0,167128.0,-107.46423139932449,-25.02928892114723,-0.5458974277786209
63861.88335202829,5.418511961266631,PPG_1,PPG_3,167114.0,167114.0,-121.42854159511626,-23.690899983812404,-0.5167065358699134
63861.893461192405,5.428621125378413,PPG_1,PPG_3,167125.0,167125.0,-110.39285179093713,-22.034704450077843,-0.4805841326907583
63861.90357035651,5.438730289482919,PPG_1,PPG_3,167106.0,167106.0,-129.3571619867289,-19.989679332460046,-0.4359811734957671
63861.913679520614,5.448839453587425,PPG_1,PPG_3,167122.0,167122.0,-113.32147218254977,-17.509752288144515,-0.38189279882924454
63861.923788684726,5.458948617699207,PPG_1,PPG_3,167106.0,167106.0,-129.28578237834154,-14.585862178253812,-0.3181213809925727
63861.93389784883,5.469057781803713,PPG_1,PPG_3,167117.0,167117.0,-118.25009257416241,-11.252935288334326,-0.24542867869259485
63861.944007012935,5.479166945908219,PPG_1,PPG_3,167140.0,167140.0,-95.21440276995418,-7.589456543405496,-0.16552648504026385
63861.95411617705,5.4892761100200005,PPG_1,PPG_3,167137.0,167137.0,-98.17871296577505,-3.7090767942029013,-0.08089357851813454
63861.96422534115,5.499385274124506,PPG_1,PPG_3,167155.0,167155.0,-80.14302316156682,0.2535639979906261,0.005533480023083924
63861.974334505256,5.509494438229012,PPG_1,PPG_3,167134.0,167134.0,-101.10733335738769,4.158846768103773,0.09070953313834618
63861.98444366937,5.519603602340794,PPG_1,PPG_3,167179.0,167179.0,-56.071643553179456,7.8766579831461385,0.17179674350590463
63861.99455283347,5.5297127664453,PPG_1,PPG_3,167139.0,167139.0,-96.03595374900033,11.297422872353287,0.24640523386356716
63862.00466199758,5.539821930549806,PPG_1,PPG_3,167165.0,167165.0,-70.0002639447921,14.338489905078328,0.3127323354728973
63862.01477116169,5.549931094661588,PPG_1,PPG_3,167149.0,167149.0,-85.96457414061297,16.945590949865874,0.36959443487504784
63862.02488032579,5.560040258766094,PPG_1,PPG_3,167148.0,167148.0,-86.92888433643384,19.090718397229622,0.4163806729405613
63862.0349894899,5.5701494228706,PPG_1,PPG_3,167161.0,167161.0,-73.8931945322256,20.76884037813257,0.45298130224022587
63862.04509865401,5.5802585869823815,PPG_1,PPG_3,167165.0,167165.0,-69.85750472804648,21.995626307916076,0.4797380800889318
63862.05520781811,5.590367751086887,PPG_1,PPG_3,167160.0,167160.0,-74.82181492383825,22.806879211845665,0.49743188729895754
63862.06531698222,5.600476915191393,PPG_1,PPG_3,167163.0,167163.0,-71.78612511965912,23.2587641343181,0.507287709892153
63862.07542614633,5.610586079303175,PPG_1,PPG_3,167195.0,167195.0,-39.750435315450886,23.42742689253615,0.5109663239383598
63862.085535310434,5.620695243407681,PPG_1,PPG_3,167160.0,167160.0,-74.71474551127176,23.40628712570499,0.5105052556858288
63862.09564447454,5.630804407512187,PPG_1,PPG_3,167138.0,167138.0,-96.67905570706353,23.29893730263222,0.5081639055787545
63862.10575363864,5.640913571616693,PPG_1,PPG_3,167142.0,167142.0,-92.6433659028844,23.20801651960216,0.5061808805584113
63862.115862802755,5.651022735728475,PPG_1,PPG_3,167178.0,167178.0,-56.607676098676166,23.224846130734445,0.5065479422889172
63862.12597196686,5.661131899832981,PPG_1,PPG_3,167178.0,167178.0,-56.57198629449704,23.42467392100802,0.5109062803351412
63862.13608113096,5.671241063937487,PPG_1,PPG_3,167165.0,167165.0,-69.5362964902888,23.86679128818529,0.5205490679555572
63862.14619029507,5.6813502280492685,PPG_1,PPG_3,167146.0,167146.0,-88.50060668610968,24.594868321288047,0.5364287703213264
63862.15629945918,5.691459392153774,PPG_1,PPG_3,167170.0,167170.0,-64.46491688190144,25.63525749111241,0.5591201472089815
63862.166408623285,5.70156855625828,PPG_1,PPG_3,167172.0,167172.0,-62.42922707772232,26.99516275303447,0.5887803202719022
63862.1765177874,5.711677720370062,PPG_1,PPG_3,167161.0,167161.0,-73.39353727351408,28.66274805523101,0.6251511396556181
63862.1866269515,5.721786884474568,PPG_1,PPG_3,167159.0,167159.0,-75.35784746933496,30.609054241646017,0.6676009925526581
63862.196736115606,5.731896048579074,PPG_1,PPG_3,167160.0,167160.0,-74.32215766512672,32.79152185269724,0.7152016371420518
63862.20684527972,5.742005212690856,PPG_1,PPG_3,167187.0,167187.0,-47.286467860947596,35.160420789626606,0.7668684365914392
63862.21695444382,5.752114376795362,PPG_1,PPG_3,167223.0,167223.0,-11.250778056739364,37.66853972418046,0.8215716896372526
63862.22706360793,5.762223540899868,PPG_1,PPG_3,167189.0,167189.0,-45.215088252560236,40.28026537167094,0.8785346537984102
63862.23717277204,5.7723327050116495,PPG_1,PPG_3,167166.0,167166.0,-68.179398448352,42.97337212291386,0.9372725780902003
63862.24728193614,5.782441869116155,PPG_1,PPG_3,167186.0,167186.0,-48.143708644172875,45.73040384812311,0.9974047361157464
63862.25739110025,5.792551033220661,PPG_1,PPG_3,167188.0,167188.0,-46.10801883996464,48.523428011938186,1.0583219061475675
63862.26750026436,5.802660197332443,PPG_1,PPG_3,167207.0,167207.0,-27.072329035785515,51.29812476895048,1.1188393468211855
63862.27760942846,5.812769361436949,PPG_1,PPG_3,167160.0,167160.0,-74.03663923157728,53.95988748075736,1.1768936428778367
63862.28771859257,5.822878525541455,PPG_1,PPG_3,167180.0,167180.0,-54.000949427398155,56.362700131283596,1.2293001163638313
63862.29782775668,5.832987689653237,PPG_1,PPG_3,167154.0,167154.0,-79.96525962318992,58.30404156867825,1.2716416857507764
63862.307936920784,5.843096853757743,PPG_1,PPG_3,167210.0,167210.0,-23.929569819010794,59.531526711229446,1.2984137137586502
63862.31804608489,5.853206017862249,PPG_1,PPG_3,167209.0,167209.0,-24.893880014802562,59.764612313895256,1.303497420327865
63862.328155249,5.863315181974031,PPG_1,PPG_3,167190.0,167190.0,-43.858190210623434,58.728467004018405,1.2808986040207315
63862.338264413105,5.8734243460785365,PPG_1,PPG_3,167211.0,167211.0,-22.8225004064152,56.19278180575079,1.2255941178042393
63862.34837357721,5.883533510183042,PPG_1,PPG_3,167230.0,167230.0,-3.7868106022360735,52.00878427150362,1.1343391646575718
63862.35848274132,5.893642674294824,PPG_1,PPG_3,167221.0,167221.0,-12.751120798027841,46.13893657758739,1.006315026999283
63862.368591905426,5.90375183839933,PPG_1,PPG_3,167165.0,167165.0,-68.71543099384871,38.67310582779373,0.8434817486101849
63862.37870106953,5.913861002503836,PPG_1,PPG_3,167183.0,167183.0,-50.67974118964048,29.826856193738966,0.6505408854113627
63862.38881023364,5.923970166615618,PPG_1,PPG_3,167154.0,167154.0,-79.64405138546135,19.92353286677579,0.43454474803291837
63862.39891939775,5.934079330720124,PPG_1,PPG_3,167169.0,167169.0,-64.60836158125312,9.365860833876031,0.2042769577643703
63862.40902856185,5.94418849482463,PPG_1,PPG_3,167125.0,167125.0,-108.57267177707399,-1.3983902445377843,-0.030496418601006235
63862.41913772595,5.954297658929136,PPG_1,PPG_3,167112.0,167112.0,-121.53698197286576,-11.914179059531328,-0.25985071619744377
63862.42924689007,5.9644068230409175,PPG_1,PPG_3,167094.0,167094.0,-139.50129216868663,-21.756933809388904,-0.47452582443552893
63862.43935605417,5.974515987145423,PPG_1,PPG_3,167105.0,167105.0,-128.4656023644784,-30.564568357975364,-0.666624474467082
63862.44946521828,5.984625151249929,PPG_1,PPG_3,167114.0,167114.0,-119.42991256029927,-38.05868901716392,-0.8300747690793551
63862.45957438239,5.994734315361711,PPG_1,PPG_3,167097.0,167097.0,-136.39422275609104,-44.05413353337831,-0.9608382324758582
63862.46968354649,6.004843479466217,PPG_1,PPG_3,167105.0,167105.0,-128.3585329519119,-48.46020757952856,-1.0569367787467594
63862.4797927106,6.014952643570723,PPG_1,PPG_3,167067.0,167067.0,-166.32284314770368,-51.27763435537664,-1.1183861812188487
63862.48990187471,6.025061807682505,PPG_1,PPG_3,167072.0,167072.0,-161.28715334352455,-52.59243729052441,-1.1470626513319218
63862.500011038814,6.035170971787011,PPG_1,PPG_3,167107.0,167107.0,-126.25146353931632,-52.564739629032594,-1.1464585523139328
63862.51012020292,6.045280135891517,PPG_1,PPG_3,167074.0,167074.0,-159.2157737351372,-51.410278548180365,-1.1212792134208047
63862.52022936703,6.055389300003299,PPG_1,PPG_3,167131.0,167131.0,-102.18008393092896,-49.37574106876429,-1.0769049945453006
63862.530338531134,6.0654984641078045,PPG_1,PPG_3,167127.0,167127.0,-106.14439412674983,-46.71261934916347,-1.0188210578897852
63862.54044769524,6.07560762821231,PPG_1,PPG_3,167117.0,167117.0,-116.1087043225416,-43.65619782776093,-0.9521590676641527
63862.55055685935,6.085716792324092,PPG_1,PPG_3,167068.0,167068.0,-165.07301451836247,-40.4155919633905,-0.8814799303321206
63862.560666023455,6.095825956428598,PPG_1,PPG_3,167091.0,167091.0,-142.03732471415424,-37.17531323906609,-0.810807928078283
63862.57077518756,6.105935120533104,PPG_1,PPG_3,167092.0,167092.0,-141.0016349099751,-34.10138875598901,-0.7437641900302713
63862.58088435167,6.116044284644886,PPG_1,PPG_3,167114.0,167114.0,-118.96594510579598,-31.343134738332374,-0.6836053732318401
63862.590993515776,6.126153448749392,PPG_1,PPG_3,167149.0,167149.0,-83.93025530158775,-29.02699488364209,-0.6330892741684785
63862.60110267988,6.136262612853898,PPG_1,PPG_3,167095.0,167095.0,-137.89456549740862,-27.2456899394659,-0.5942381759328353
63862.61121184399,6.14637177696568,PPG_1,PPG_3,167142.0,167142.0,-90.85887569320039,-26.048577376412194,-0.5681285881621511
63862.6213210081,6.1564809410701855,PPG_1,PPG_3,167122.0,167122.0,-110.82318588902126,-25.436826219682796,-0.5547860078456439
63862.6314301722,6.166590105174691,PPG_1,PPG_3,167140.0,167140.0,-92.78749608481303,-25.364126127360233,-0.5532003846552976
63862.64153933631,6.176699269286473,PPG_1,PPG_3,167107.0,167107.0,-125.7518062806339,-25.743291846766656,-0.5614701672438481
63862.65164850042,6.186808433390979,PPG_1,PPG_3,167098.0,167098.0,-134.71611647642567,-26.458620056004534,-0.5770718117678183
63862.66175766452,6.196917597495485,PPG_1,PPG_3,167122.0,167122.0,-110.68042667224654,-27.381037135941966,-0.5971901619155848
63862.671866828634,6.207026761607267,PPG_1,PPG_3,167113.0,167113.0,-119.64473686803831,-28.381175422141673,-0.6190036481091814
63862.68197599274,6.217135925711773,PPG_1,PPG_3,167147.0,167147.0,-85.60904706385918,-29.337753599281314,-0.6398670678462843
63862.69208515684,6.227245089816279,PPG_1,PPG_3,167107.0,167107.0,-125.57335725965095,-30.142946601937346,-0.6574287057607344
63862.702194320955,6.237354253928061,PPG_1,PPG_3,167107.0,167107.0,-125.53766745547182,-30.708142636814987,-0.6697558969837861
63862.71230348506,6.2474634180325666,PPG_1,PPG_3,167112.0,167112.0,-120.50197765126359,-30.970949873347227,-0.6754878463599632
63862.72241264917,6.2575725821370725,PPG_1,PPG_3,167101.0,167101.0,-131.46628784708446,-30.90070346849703,-0.6739557392468839
63862.73252181327,6.267681746241578,PPG_1,PPG_3,167125.0,167125.0,-107.43059804287623,-30.49901876860242,-0.6651948071075652
63862.74263097738,6.27779091035336,PPG_1,PPG_3,167128.0,167128.0,-104.3949082386971,-29.794233168821517,-0.6498231018520016
63862.752740141485,6.287900074457866,PPG_1,PPG_3,167126.0,167126.0,-106.35921843448887,-28.83152341744871,-0.62882594959838
63862.76284930559,6.298009238562372,PPG_1,PPG_3,167133.0,167133.0,-99.32352863030974,-27.662253741625506,-0.6033236282873172
63862.7729584697,6.308118402674154,PPG_1,PPG_3,167098.0,167098.0,-134.2878388261015,-26.33553199225476,-0.5743872032329281
63862.783067633805,6.31822756677866,PPG_1,PPG_3,167137.0,167137.0,-95.25214902192238,-24.892319885550272,-0.5429100687222075
63862.79317679791,6.328336730883166,PPG_1,PPG_3,167145.0,167145.0,-87.21645921771415,-23.36037042967686,-0.5094975309101017
63862.80328596202,6.338445894994948,PPG_1,PPG_3,167155.0,167155.0,-77.18076941353502,-21.74964249703569,-0.4743667974854115
63862.813395126126,6.3485550590994535,PPG_1,PPG_3,167130.0,167130.0,-102.14507960932679,-20.05140834598361,-0.43732751229993094
63862.82350429023,6.358664223203959,PPG_1,PPG_3,167103.0,167103.0,-129.10938980514766,-18.244589092841927,-0.3979199349913061
63862.83361345434,6.368773387315741,PPG_1,PPG_3,167132.0,167132.0,-100.07370000093943,-16.307912720993208,-0.3556801128769959
63862.84372261845,6.378882551420247,PPG_1,PPG_3,167139.0,167139.0,-93.0380101967603,-14.231675758774157,-0.31039640867835805
63862.85383178255,6.388991715524753,PPG_1,PPG_3,167130.0,167130.0,-102.00232039255206,-12.023809096542584,-0.2622417988424601
63862.86394094666,6.399100879636535,PPG_1,PPG_3,167133.0,167133.0,-98.96663058837294,-9.709361132453564,-0.21176260070848085
63862.87405011077,6.409210043741041,PPG_1,PPG_3,167161.0,167161.0,-70.9309407841647,-7.324675711991758,-0.15975149063192132
63862.88415927487,6.419319207845547,PPG_1,PPG_3,167157.0,167157.0,-74.89525097998558,-4.907609980189702,-0.10703415074283376
63862.894268438984,6.429428371957329,PPG_1,PPG_3,167197.0,167197.0,-34.859561175777344,-2.4866439089695462,-0.054231742617462275
63862.90437760309,6.4395375360618345,PPG_1,PPG_3,167129.0,167129.0,-102.82387137159822,-0.07386998903385411,-0.001608009162789082
63862.91448676719,6.4496467001663405,PPG_1,PPG_3,167165.0,167165.0,-66.78818156738998,2.3342202332209516,0.050913570643626914
63862.924595931305,6.459755864278122,PPG_1,PPG_3,167145.0,167145.0,-86.75249176321086,4.749046686717675,0.10358207082017572
63862.93470509541,6.469865028382628,PPG_1,PPG_3,167171.0,167171.0,-60.71680195900262,7.180166963837091,0.156605946949769
63862.944814259514,6.479974192487134,PPG_1,PPG_3,167181.0,167181.0,-50.681112154823495,9.6273601674842,0.20998038116291967
63862.954923423626,6.490083356598916,PPG_1,PPG_3,167157.0,167157.0,-74.64542235061526,12.074889961864294,0.26336215657819023
63862.96503258773,6.500192520703422,PPG_1,PPG_3,167146.0,167146.0,-85.60973254643613,14.486692942410468,0.31596471338833304
63862.975141751835,6.510301684807928,PPG_1,PPG_3,167166.0,167166.0,-65.5740427422279,16.803544878275193,0.36649634327686337
63862.98525091595,6.52041084891971,PPG_1,PPG_3,167194.0,167194.0,-37.538352938048774,18.94592249156556,0.4132226061685213
63862.99536008005,6.530520013024216,PPG_1,PPG_3,167189.0,167189.0,-42.50266313384054,20.82434188148691,0.4541918161200055
63863.005469244155,6.5406291771287215,PPG_1,PPG_3,167181.0,167181.0,-50.466973329661414,22.353908911578753,0.4875523921058213
63863.01557840827,6.550738341240503,PPG_1,PPG_3,167153.0,167153.0,-78.43128352545318,23.468269901214928,0.5118571291582107
63863.02568757237,6.560847505345009,PPG_1,PPG_3,167226.0,167226.0,-5.395593721274054,24.13163372325347,0.5263254059685635
63863.03579673648,6.570956669449515,PPG_1,PPG_3,167192.0,167192.0,-39.35990391706582,24.349901344961015,0.5310859254070484
63863.04590590058,6.581065833554021,PPG_1,PPG_3,167198.0,167198.0,-33.32421411288669,24.17926384433605,0.5273642413006074
63863.05601506469,6.591174997665803,PPG_1,PPG_3,167178.0,167178.0,-53.28852430867846,23.72802240933914,0.5175224534717608
63863.0661242288,6.601284161770309,PPG_1,PPG_3,167204.0,167204.0,-27.252834504499333,23.14978635762971,0.5049108533514103
63863.0762333929,6.611393325874815,PPG_1,PPG_3,167193.0,167193.0,-38.2171447002911,22.629742845736004,0.49356845988113607
63863.08634255701,6.621502489986597,PPG_1,PPG_3,167180.0,167180.0,-51.18145489611197,22.36586449005356,0.48781314889275285
63863.09645172112,6.6316116540911025,PPG_1,PPG_3,167163.0,167163.0,-68.14576509190374,22.546307436695297,0.49174869438642416
63863.10656088522,6.641720818195608,PPG_1,PPG_3,167189.0,167189.0,-42.11007528772461,23.326073167780137,0.508755751554379
63863.116670049334,6.65182998230739,PPG_1,PPG_3,167188.0,167188.0,-43.07438548351638,24.807748394613576,0.5410717847968776
63863.12677921344,6.661939146411896,PPG_1,PPG_3,167195.0,167195.0,-36.03869567933725,27.0293503758498,0.5895259683973306
63863.13688837754,6.672048310516402,PPG_1,PPG_3,167186.0,167186.0,-45.003005875158124,29.958904519717475,0.6534209214777398
63863.146997541655,6.682157474628184,PPG_1,PPG_3,167190.0,167190.0,-40.96731607094989,33.49439887078205,0.7305317153335869
63863.15710670576,6.69226663873269,PPG_1,PPG_3,167219.0,167219.0,-11.931626266770763,37.46905295959519,0.8172207895216087
63863.167215869864,6.702375802837196,PPG_1,PPG_3,167213.0,167213.0,-17.89593646256253,41.662060922033426,0.908672264342985
63863.177325033976,6.712484966948978,PPG_1,PPG_3,167212.0,167212.0,-18.860246658383403,45.81316622439281,0.9992098224493254
63863.18743419808,6.722594131053484,PPG_1,PPG_3,167199.0,167199.0,-31.82455685417517,49.63860412173336,1.082644421353818
63863.197543362185,6.7327032951579895,PPG_1,PPG_3,167246.0,167246.0,15.211132950003957,52.84780197113694,1.152638535114309
63863.2076525263,6.742812459269771,PPG_1,PPG_3,167221.0,167221.0,-9.75317724578781,55.1615492224871,1.203102450374044
63863.2177616904,6.752921623374277,PPG_1,PPG_3,167240.0,167240.0,9.282512558391318,56.33064731448404,1.2286010293611933
63863.227870854505,6.763030787478783,PPG_1,PPG_3,167220.0,167220.0,-10.68179763740045,56.1522459652923,1.2247100120676748
63863.23798001862,6.773139951590565,PPG_1,PPG_3,167198.0,167198.0,-32.64610783322132,54.482309104900764,1.188287904094243
63863.24808918272,6.783249115695071,PPG_1,PPG_3,167234.0,167234.0,3.38958197098691,51.24567643843142,1.1176954240762598
63863.258198346826,6.793358279799577,PPG_1,PPG_3,167236.0,167236.0,5.425271775166038,46.44637035512656,1.0130203022140516
63863.26830751094,6.803467443911359,PPG_1,PPG_3,167244.0,167244.0,13.46096157937427,40.177762041718864,0.8762990079846664
63863.27841667504,6.813576608015865,PPG_1,PPG_3,167200.0,167200.0,-30.5033486164466,32.62759206165484,0.711626251334945
63863.28852583915,6.8236857721203705,PPG_1,PPG_3,167219.0,167219.0,-11.46765881223837,24.07237019054509,0.5250328404600175
63863.29863500326,6.833794936232152,PPG_1,PPG_3,167170.0,167170.0,-60.43196900805924,14.859973076888405,0.3241061286027412
63863.30874416736,6.843904100336658,PPG_1,PPG_3,167174.0,167174.0,-56.39627920385101,5.383662548254422,0.11742334109737917
63863.31885333147,6.854013264441164,PPG_1,PPG_3,167168.0,167168.0,-62.36058939967188,-3.947322797273943,-0.08608983584612569
63863.32896249558,6.864122428552946,PPG_1,PPG_3,167176.0,167176.0,-54.32489959546365,-12.735903380390145,-0.27777290993337794
63863.33907165968,6.874231592657452,PPG_1,PPG_3,167134.0,167134.0,-96.28920979128452,-20.621783000385083,-0.44976765164930044
63863.34918082379,6.884340756761958,PPG_1,PPG_3,167186.0,167186.0,-44.25351998707629,-27.302698484091437,-0.5954815590912097
63863.35928998789,6.894449920866464,PPG_1,PPG_3,167118.0,167118.0,-112.21783018289716,-32.55295462831554,-0.7099921137766537
63863.369399152005,6.904559084978246,PPG_1,PPG_3,167128.0,167128.0,-102.18214037868893,-36.239251239709084,-0.7903919758234091
63863.37950831611,6.914668249082752,PPG_1,PPG_3,167110.0,167110.0,-120.1464505745098,-38.33184095443575,-0.8360323412417744
63863.389617480214,6.9247774131872575,PPG_1,PPG_3,167131.0,167131.0,-99.11076077030157,-38.90636432397236,-0.8485629660185796
63863.399726644326,6.934886577299039,PPG_1,PPG_3,167179.0,167179.0,-51.07507096612244,-38.13232048685683,-0.8316807060479952
63863.40983580843,6.944995741403545,PPG_1,PPG_3,167141.0,167141.0,-89.0393811619142,-36.24967571579641,-0.7906193385474883
63863.419944972535,6.955104905508051,PPG_1,PPG_3,167141.0,167141.0,-89.00369135773508,-33.540530246150674,-0.731531602267426
63863.43005413665,6.965214069619833,PPG_1,PPG_3,167161.0,167161.0,-68.96800155352685,-30.30218097374666,-0.6609016822670202
63863.44016330075,6.975323233724339,PPG_1,PPG_3,167177.0,167177.0,-52.93231174934772,-26.823419896082527,-0.5850282677747215
63863.450272464856,6.985432397828845,PPG_1,PPG_3,167159.0,167159.0,-70.89662194513949,-23.36446651528845,-0.5095868684628873
63863.46038162897,6.995541561940627,PPG_1,PPG_3,167151.0,167151.0,-78.86093214096036,-20.142443942081556,-0.43931304144725913
63863.47049079307,7.005650726045133,PPG_1,PPG_3,167167.0,167167.0,-62.825242336752126,-17.32330167451707,-0.37782622329437116
63863.480599957176,7.0157598901496385,PPG_1,PPG_3,167193.0,167193.0,-36.789552532573,-15.01828591977051,-0.3275527460802945
63863.49070912129,7.02586905426142,PPG_1,PPG_3,167185.0,167185.0,-44.753862728364766,-13.283607332468968,-0.28971859060744426
63863.50081828539,7.035978218365926,PPG_1,PPG_3,167138.0,167138.0,-91.71817292418564,-12.124964035215411,-0.26444803560851593
63863.5109274495,7.046087382470432,PPG_1,PPG_3,167180.0,167180.0,-49.682483119977405,-11.508013540701828,-0.2509920552906928
63863.52103661361,7.056196546582214,PPG_1,PPG_3,167199.0,167199.0,-30.646793315798277,-11.371900282846967,-0.24802336114914128
63863.53114577771,7.06630571068672,PPG_1,PPG_3,167142.0,167142.0,-87.61110351159004,-11.64236648636102,-0.25392235619572245
63863.54125494182,7.076414874791226,PPG_1,PPG_3,167179.0,167179.0,-50.57541370741092,-12.243937107176329,-0.26704289423800653
63863.55136410593,7.086524038903008,PPG_1,PPG_3,167149.0,167149.0,-80.53972390320268,-13.110686132181911,-0.28594709793779094
63863.561473270034,7.096633203007514,PPG_1,PPG_3,167182.0,167182.0,-47.504034099023556,-14.19274904884228,-0.3095473988350417
63863.57158243414,7.10674236711202,PPG_1,PPG_3,167162.0,167162.0,-67.46834429481532,-15.4562748634124,-0.3371054908426049
63863.58169159825,7.116851531223801,PPG_1,PPG_3,167173.0,167173.0,-56.432654490636196,-16.877249276161383,-0.3680976107940699
63863.591800762355,7.126960695328307,PPG_1,PPG_3,167191.0,167191.0,-38.396964686427964,-18.431346527729325,-0.4019932024420977
63863.60190992646,7.137069859432813,PPG_1,PPG_3,167166.0,167166.0,-63.361274882248836,-20.08266271886303,-0.4380091848653172
63863.61201909057,7.147179023544595,PPG_1,PPG_3,167190.0,167190.0,-39.3255850780406,-21.774623471232285,-0.47491164427635935
63863.62212825467,7.157288187649101,PPG_1,PPG_3,167199.0,167199.0,-30.289895273861475,-23.426171717657287,-0.5109326879345727
63863.63223741878,7.167397351753607,PPG_1,PPG_3,167136.0,167136.0,-93.25420546965324,-24.935662923670915,-0.5438554007594658
63863.64234658289,7.177506515865389,PPG_1,PPG_3,167130.0,167130.0,-99.21851566547411,-26.192772608424175,-0.5712735539594586
63863.652455747,7.187615679969895,PPG_1,PPG_3,167177.0,167177.0,-52.18282586126588,-27.093787929811807,-0.5909251216921466
63863.6625649111,7.197724844074401,PPG_1,PPG_3,167163.0,167163.0,-66.14713605708675,-27.552700726875052,-0.6009342255340177
63863.672674075206,7.207834008178907,PPG_1,PPG_3,167180.0,167180.0,-49.11144625287852,-27.504881563200367,-0.5998912670941697
63863.68278323932,7.217943172290688,PPG_1,PPG_3,167160.0,167160.0,-69.0757564486994,-26.90658251851734,-0.5868420836653201
63863.69289240342,7.228052336395194,PPG_1,PPG_3,167165.0,167165.0,-64.04006664452027,-25.734507044153975,-0.5612785665690722
63863.70300156753,7.2381615004997,PPG_1,PPG_3,167180.0,167180.0,-49.004376840312034,-23.986583642712375,-0.523155535473353
63863.71311073164,7.248270664611482,PPG_1,PPG_3,167179.0,167179.0,-49.968687036132906,-21.683182111184337,-0.4729172652265293
63863.72321989574,7.258379828715988,PPG_1,PPG_3,167158.0,167158.0,-70.93299723192467,-18.868569327021028,-0.41152923723596097
63863.73332905985,7.268488992820494,PPG_1,PPG_3,167172.0,167172.0,-56.897307427745545,-15.612570253304117,-0.34051436677163316
63863.74343822396,7.278598156932276,PPG_1,PPG_3,167187.0,167187.0,-41.86161762353731,-12.0107604153582,-0.26195720097155795
63863.75354738806,7.288707321036782,PPG_1,PPG_3,167179.0,167179.0,-49.825927819358185,-8.180879906840484,-0.17842570662879073
63863.76365655217,7.298816485141288,PPG_1,PPG_3,167212.0,167212.0,-16.790238015149953,-4.2551783495673225,-0.09280431016656254
63863.77376571628,7.308925649253069,PPG_1,PPG_3,167180.0,167180.0,-48.754548210970825,-0.37060936691278645,-0.008080034493460215
63863.783874880384,7.319034813357575,PPG_1,PPG_3,167203.0,167203.0,-25.718858406762592,3.340993979384874,0.07287177933841633
63863.79398404449,7.329143977462081,PPG_1,PPG_3,167227.0,167227.0,-1.6831686025834642,6.7618224595094025,0.1474816566438814
63863.8040932086,7.339253141573863,PPG_1,PPG_3,167197.0,167197.0,-31.647478798375232,9.795557344371069,0.21364884066142048
63863.814202372705,7.349362305678369,PPG_1,PPG_3,167182.0,167182.0,-46.611788994196104,12.372380055249636,0.26985055536697244
63863.82431153681,7.359471469782875,PPG_1,PPG_3,167214.0,167214.0,-14.576099189987872,14.452038751772495,0.31520888919935613
63863.83442070092,7.369580633894657,PPG_1,PPG_3,167242.0,167242.0,13.459590614191256,16.027995563020223,0.3495812481203227
63863.844529865026,7.379689797999163,PPG_1,PPG_3,167234.0,167234.0,5.4952804183994886,17.13358552242179,0.37369468487997637
63863.85463902913,7.389798962103669,PPG_1,PPG_3,167207.0,167207.0,-21.469029777421383,17.845826072503087,0.38922898610621265
63863.86474819324,7.399908126215451,PPG_1,PPG_3,167226.0,167226.0,-2.433339973213151,18.281863739503752,0.39873917260766994
63863.87485735735,7.410017290319956,PPG_1,PPG_3,167219.0,167219.0,-9.397650169034023,18.58777997893889,0.4054113496029848
63863.88496652145,7.420126454424462,PPG_1,PPG_3,167207.0,167207.0,-21.36196036482579,18.922944924868634,0.41272145463695625
63863.89507568556,7.430235618536244,PPG_1,PPG_3,167227.0,167227.0,-1.3262705606466625,19.442950694752952,0.4240630249362629
63863.90518484967,7.44034478264075,PPG_1,PPG_3,167214.0,167214.0,-14.29058075643843,20.283228480132873,0.442389878455508
63863.91529401377,7.450453946745256,PPG_1,PPG_3,167226.0,167226.0,-2.254890952259302,21.544771031986855,0.4699047145708874
63863.92540317789,7.460563110857038,PPG_1,PPG_3,167194.0,167194.0,-34.21920114805107,23.282787663231517,0.5078116743513735
63863.93551234199,7.470672274961544,PPG_1,PPG_3,167257.0,167257.0,28.816488656128058,25.49941647288045,0.5561573907415872
63863.94562150609,7.48078143906605,PPG_1,PPG_3,167233.0,167233.0,4.85217846033629,28.141516134562057,0.613782826431277
63863.955730670205,7.490890603177832,PPG_1,PPG_3,167230.0,167230.0,1.8878682645154186,31.10232046314589,0.6783593607312627
63863.96583983431,7.500999767282337,PPG_1,PPG_3,167198.0,167198.0,-30.07644193127635,34.22450048983247,0.7464555748706456
63863.97594899841,7.511108931386843,PPG_1,PPG_3,167234.0,167234.0,5.959247872902779,37.3054438114917,0.813652397087736
63863.98605816252,7.521218095491349,PPG_1,PPG_3,167252.0,167252.0,23.99493767711101,40.109238345229706,0.8748044739507977
63863.99616732663,7.531327259603131,PPG_1,PPG_3,167252.0,167252.0,24.03062748129014,42.38778000413143,0.9245005386888521
63864.006276490734,7.541436423707637,PPG_1,PPG_3,167272.0,167272.0,44.06631728549837,43.907497829795986,0.957646298895933
63864.01638565484,7.551545587812143,PPG_1,PPG_3,167255.0,167255.0,27.1020070896775,44.474863030909916,0.9700208006543374
63864.02649481895,7.561654751923925,PPG_1,PPG_3,167280.0,167280.0,52.13769689388573,43.954774265206055,0.9586774201771896
63864.036603983055,7.571763916028431,PPG_1,PPG_3,167244.0,167244.0,16.17338669806486,42.27830917055289,0.9221129283455458
63864.04671314716,7.581873080132937,PPG_1,PPG_3,167209.0,167209.0,-18.790923497726908,39.439056057712904,0.8601874832029588
63864.05682231127,7.5919822442447185,PPG_1,PPG_3,167227.0,167227.0,-0.7552336935477797,35.48142001185519,0.7738695805320885
63864.066931475376,7.602091408349224,PPG_1,PPG_3,167228.0,167228.0,0.2804561106604524,30.488300194569852,0.664967290018656
63864.07704063948,7.61220057245373,PPG_1,PPG_3,167237.0,167237.0,9.31614591483958,24.574685673150515,0.5359885772774513
63864.08714980359,7.622309736565512,PPG_1,PPG_3,167249.0,167249.0,21.351835719047813,17.887838481974384,0.39014529650709145
63864.0972589677,7.632418900670018,PPG_1,PPG_3,167225.0,167225.0,-2.612474476773059,10.609265831174504,0.23139620528831048
63864.1073681318,7.642528064774524,PPG_1,PPG_3,167194.0,167194.0,-33.57678467256483,2.9526197014740974,0.06440115375988198
63864.11747729591,7.652637228886306,PPG_1,PPG_3,167202.0,167202.0,-25.5410948683857,-4.844900306388735,-0.10566642327700491
63864.12758646002,7.662746392990812,PPG_1,PPG_3,167185.0,167185.0,-42.50540506417747,-12.535241188438905,-0.27339637319430626
63864.13769562412,7.672855557095318,PPG_1,PPG_3,167191.0,167191.0,-36.46971525999834,-19.872136602173054,-0.43341751129059786
63864.147804788234,7.6829647212070995,PPG_1,PPG_3,167169.0,167169.0,-58.434025455790106,-26.621386222438232,-0.5806218183751818
63864.15791395234,7.693073885311605,PPG_1,PPG_3,167184.0,167184.0,-43.39833565161098,-32.568514848877484,-0.7103314895020717
63864.16802311644,7.703183049416111,PPG_1,PPG_3,167188.0,167188.0,-39.362645847402746,-37.524419700881914,-0.8184221041277279
63864.178132280555,7.713292213527893,PPG_1,PPG_3,167173.0,167173.0,-54.32695604322362,-41.330671636444976,-0.9014382481864067
63864.18824144466,7.723401377632399,PPG_1,PPG_3,167147.0,167147.0,-80.29126623901539,-43.86695866436062,-0.9567558605904463
63864.19835060876,7.733510541736905,PPG_1,PPG_3,167176.0,167176.0,-51.25557643483626,-45.06151082796714,-0.9828096048455269
63864.208459772875,7.743619705848687,PPG_1,PPG_3,167144.0,167144.0,-83.21988663062803,-44.902297868245206,-0.9793370953469329
63864.21856893698,7.753728869953193,PPG_1,PPG_3,167153.0,167153.0,-74.1841968264489,-43.44569060325039,-0.9475678061367483
63864.228678101084,7.763838034057699,PPG_1,PPG_3,167156.0,167156.0,-71.14850702224066,-40.81982583504117,-0.8902964611058214
63864.2387872652,7.77394719816948,PPG_1,PPG_3,167180.0,167180.0,-47.11281721806154,-37.22048169515766,-0.811793073339628
63864.2488964293,7.784056362273987,PPG_1,PPG_3,167182.0,167182.0,-45.07712741388241,-32.89904546425948,-0.7175405176081675
63864.259005593405,7.794165526378492,PPG_1,PPG_3,167157.0,167157.0,-70.04143760967418,-28.14493695478913,-0.6138511760789664
63864.26911475752,7.804274690490274,PPG_1,PPG_3,167203.0,167203.0,-24.005747805495048,-23.26542512466431,-0.5074267291733662
63864.27922392162,7.81438385459478,PPG_1,PPG_3,167173.0,167173.0,-53.970058001286816,-18.563941353869325,-0.4048851579339102
63864.289333085726,7.824493018699286,PPG_1,PPG_3,167200.0,167200.0,-26.934368197107688,-14.31708099777334,-0.31225913709049435
63864.29944224983,7.834602182803792,PPG_1,PPG_3,167211.0,167211.0,-15.898678392899456,-10.751299186913394,-0.23448775949817646
63864.30955141394,7.844711346915574,PPG_1,PPG_3,167220.0,167220.0,-6.862988588720327,-8.02150112129104,-0.17494958039094288
63864.31966057805,7.85482051102008,PPG_1,PPG_3,167219.0,167219.0,-7.827298784512095,-6.195134440361317,-0.13511566449288662
63864.32976974215,7.864929675124586,PPG_1,PPG_3,167214.0,167214.0,-12.791608980332967,-5.2460087052408735,-0.11441478601966432
63864.33987890626,7.875038839236368,PPG_1,PPG_3,167200.0,167200.0,-26.755919176124735,-5.060284708517176,-0.11036405834104909
63864.34998807037,7.885148003340873,PPG_1,PPG_3,167206.0,167206.0,-20.720229371945607,-5.453716022927448,-0.11894498026298354
63864.36009723447,7.895257167445379,PPG_1,PPG_3,167207.0,167207.0,-19.684539567737374,-6.196654412099028,-0.1351488157910348
63864.370206398584,7.905366331557161,PPG_1,PPG_3,167197.0,167197.0,-29.648849763558246,-7.042976642089727,-0.15360750148877403
63864.38031556269,7.915475495661667,PPG_1,PPG_3,167182.0,167182.0,-44.613159959350014,-7.759977130885809,-0.16924561921605827
63864.39042472679,7.925584659766173,PPG_1,PPG_3,167167.0,167167.0,-59.577470155170886,-8.155954085294965,-0.17788206274309046
63864.400533890905,7.935693823877955,PPG_1,PPG_3,167216.0,167216.0,-10.541780350962654,-8.100669888774684,-0.17667628842751903
63864.41064305501,7.945802987982461,PPG_1,PPG_3,167196.0,167196.0,-30.506090546783525,-7.534540288875294,-0.164328735712468
63864.42075221911,7.955912152086967,PPG_1,PPG_3,167214.0,167214.0,-12.470400742575293,-6.466737912811653,-0.14103946390960573
63864.430861383225,7.9660213161987485,PPG_1,PPG_3,167201.0,167201.0,-25.434710938396165,-4.966305130308847,-0.10831431955990811
63864.44097054733,7.9761304803032544,PPG_1,PPG_3,167197.0,167197.0,-29.399021134187933,-3.1501572846882393,-0.0687032812638853
63864.451079711434,7.98623964440776,PPG_1,PPG_3,167204.0,167204.0,-22.363331330008805,-1.169123055854793,-0.025495993435818123
63864.461188875546,7.996348808519542,PPG_1,PPG_3,167223.0,167223.0,-3.3276415258005727,0.8086607369371562,0.017640400854132644
63864.47129803965,8.006457972624048,PPG_1,PPG_3,167228.0,167228.0,1.7080482783785556,2.6168696265961744,0.05707828678847783
63864.481407203755,8.016567136728554,PPG_1,PPG_3,167191.0,167191.0,-35.25626191741321,4.110134801093724,0.0896471022380412
63864.49151636787,8.026676300840336,PPG_1,PPG_3,167219.0,167219.0,-7.220572113234084,5.180434288702697,0.1129908372176157
63864.50162553197,8.036785464944842,PPG_1,PPG_3,167245.0,167245.0,18.815117690974148,5.770376232311558,0.12585774834330957
63864.51173469608,8.046894629049348,PPG_1,PPG_3,167232.0,167232.0,5.850807495153276,5.883372621809521,0.1283222527186054
63864.52184386019,8.05700379316113,PPG_1,PPG_3,167202.0,167202.0,-24.11350270063849,5.587786129322204,0.12187537236030441
63864.53195302429,8.067112957265635,PPG_1,PPG_3,167220.0,167220.0,-6.077812896459363,5.011899343081733,0.10931501082423697
63864.5420621884,8.077222121370141,PPG_1,PPG_3,167241.0,167241.0,14.957876907748869,4.3305593087220045,0.09445466437242359
63864.55217135251,8.087331285481923,PPG_1,PPG_3,167201.0,167201.0,-25.006433288072003,3.746294514757686,0.08171157454934255
63864.56228051661,8.09744044958643,PPG_1,PPG_3,167189.0,167189.0,-36.97074348386377,3.4662674423970534,0.07560405245859018
63864.57238968072,8.107549613690935,PPG_1,PPG_3,167233.0,167233.0,7.064946320315357,3.6770500801939185,0.08020132087924303
63864.58249884483,8.117658777802717,PPG_1,PPG_3,167175.0,167175.0,-50.89936387547641,4.521607935248396,0.09862152473017904
63864.592608008934,8.127767941907223,PPG_1,PPG_3,167209.0,167209.0,-16.863674071297282,6.082656893973402,0.13266873637934562
63864.60271717304,8.137877106011729,PPG_1,PPG_3,167209.0,167209.0,-16.82798426708905,8.375021459864012,0.18266628521706696
63864.61282633714,8.147986270116235,PPG_1,PPG_3,167227.0,167227.0,1.207705537090078,11.348592459947286,0.24752126662415166
63864.622935501255,8.158095434228017,PPG_1,PPG_3,167243.0,167243.0,17.24339534129831,14.900908272884317,0.32499894447131666
63864.63304466536,8.168204598332522,PPG_1,PPG_3,167231.0,167231.0,5.279085145477438,18.894950351477636,0.41211087983086564
63864.643153829464,8.178313762437028,PPG_1,PPG_3,167243.0,167243.0,17.31477494968567,23.176738449786082,0.5054986911516964
63864.653262993575,8.18842292654881,PPG_1,PPG_3,167234.0,167234.0,8.350464753864799,27.589266053118155,0.601737992538593
63864.66337215768,8.198532090653316,PPG_1,PPG_3,167249.0,167249.0,23.38615455807303,31.9820881064602,0.6975475066164984
63864.673481321784,8.208641254757822,PPG_1,PPG_3,167263.0,167263.0,37.42184436225216,36.21723680783748,0.7899180907647736
63864.683590485896,8.218750418869604,PPG_1,PPG_3,167243.0,167243.0,17.45753416646039,40.17162663798256,0.8761651919448841
63864.69369965,8.22885958297411,PPG_1,PPG_3,167250.0,167250.0,24.49322397063952,43.73550476390705,0.9538950492738248
63864.703808814105,8.238968747078616,PPG_1,PPG_3,167255.0,167255.0,29.52891377484775,46.80763051667488,1.0208995561681964
63864.71391797822,8.249077911190398,PPG_1,PPG_3,167266.0,167266.0,40.56460357902688,49.28942898752448,1.0750287475271971
63864.72402714232,8.259187075294903,PPG_1,PPG_3,167251.0,167251.0,25.600293383235112,51.07994907038947,1.1140808322697402
63864.734136306426,8.26929623939941,PPG_1,PPG_3,167233.0,167233.0,7.63598318741424,52.07232166243038,1.1357249450230296
63864.74424547054,8.279405403511191,PPG_1,PPG_3,167285.0,167285.0,59.67167299162247,52.15306124975531,1.137485913378797
63864.75435463464,8.289514567615697,PPG_1,PPG_3,167225.0,167225.0,-0.29263720419839956,51.206352400640036,1.1168377483255412
63864.76446379875,8.299623731720203,PPG_1,PPG_3,167257.0,167257.0,31.743052600009833,49.1242440427991,1.0714259862282085
63864.77457296286,8.309732895831985,PPG_1,PPG_3,167269.0,167269.0,43.77874240418896,45.822305933245346,0.9994091637960365
63864.78468212696,8.31984205993649,PPG_1,PPG_3,167265.0,167265.0,39.81443220839719,41.25930272207759,0.8998879186626716
63864.79479129107,8.329951224040997,PPG_1,PPG_3,167245.0,167245.0,19.85012201257632,35.45707723533838,0.7733386531325577
63864.80490045518,8.340060388152779,PPG_1,PPG_3,167271.0,167271.0,45.88581181675545,28.51531784946348,0.6219356175599197
63864.81500961928,8.350169552257285,PPG_1,PPG_3,167230.0,167230.0,4.9215016209636815,20.617301679229833,0.44967617197781895
63864.82511878339,8.36027871636179,PPG_1,PPG_3,167245.0,167245.0,19.95719142514281,12.024648617469355,0.26226636923815044
63864.8352279475,8.370387880473572,PPG_1,PPG_3,167193.0,167193.0,-32.00711877064896,3.0605936608568762,0.06675611657328825
63864.845337111605,8.380497044578078,PPG_1,PPG_3,167220.0,167220.0,-4.97142896646983,-5.916457608354172,-0.12903759177900068
63864.85544627571,8.390606208682584,PPG_1,PPG_3,167183.0,167183.0,-41.9357391622616,-14.545234392259674,-0.31723526988065137
63864.86555543982,8.400715372794366,PPG_1,PPG_3,167182.0,167182.0,-42.90004935808247,-22.495630959644483,-0.49063715654898793
63864.875664603926,8.410824536898872,PPG_1,PPG_3,167128.0,167128.0,-96.86435955387424,-29.50064981624086,-0.6434199109167541
63864.88577376803,8.420933701003378,PPG_1,PPG_3,167149.0,167149.0,-75.82866974969511,-35.381068790929774,-0.7716746131783235
63864.89588293214,8.43104286511516,PPG_1,PPG_3,167183.0,167183.0,-41.79297994548688,-40.05617757576733,-0.8736409335749937
63864.905992096246,8.441152029219666,PPG_1,PPG_3,167177.0,167177.0,-47.75729014130775,-43.53715892648788,-0.9495627732664179
63864.91610126035,8.451261193324171,PPG_1,PPG_3,167163.0,167163.0,-61.72160033709952,-45.90715355601865,-1.001253470286534
63864.926210424455,8.461370357428677,PPG_1,PPG_3,167163.0,167163.0,-61.68591053292039,-47.296254648355784,-1.0315504181359592
63864.93631958857,8.47147952154046,PPG_1,PPG_3,167157.0,167157.0,-67.65022072871216,-47.857028565829744,-1.0437811608995702
63864.94642875267,8.481588685644965,PPG_1,PPG_3,167186.0,167186.0,-38.61453092453303,-47.741928062719886,-1.0412707648172412
63864.956537916776,8.491697849749471,PPG_1,PPG_3,167196.0,167196.0,-28.578841120324796,-47.083584516455886,-1.0269119825815958
63864.96664708089,8.501807013861253,PPG_1,PPG_3,167154.0,167154.0,-70.54315131614567,-45.9815375947148,-1.0028758211389226
63864.97675624499,8.511916177965759,PPG_1,PPG_3,167187.0,167187.0,-37.507461511937436,-44.499673049348885,-0.9705556587702309
63864.9868654091,8.522025342070265,PPG_1,PPG_3,167176.0,167176.0,-48.47177170775831,-42.67549539872328,-0.9307694866521848
63864.99697457321,8.532134506182047,PPG_1,PPG_3,167121.0,167121.0,-103.43608190355008,-40.53873687083796,-0.88416577865478
63865.00708373731,8.542243670286553,PPG_1,PPG_3,167140.0,167140.0,-84.40039209937095,-38.134198650974035,-0.8317216696903288
63865.01719290142,8.552352834391058,PPG_1,PPG_3,167136.0,167136.0,-88.36470229516272,-35.54039553800495,-0.775149604432584
63865.02730206553,8.56246199850284,PPG_1,PPG_3,167186.0,167186.0,-38.32901249098359,-32.874608904423084,-0.7170075447503483
63865.037411229634,8.572571162607346,PPG_1,PPG_3,167209.0,167209.0,-15.293322686775355,-30.28076709065782,-0.6604346354100454
63865.04752039374,8.582680326711852,PPG_1,PPG_3,167183.0,167183.0,-41.257632882596226,-27.90582009496346,-0.6086359249557614
63865.05762955785,8.592789490823634,PPG_1,PPG_3,167187.0,167187.0,-37.221943078387994,-25.875040005496288,-0.5643436565214166
63865.067738721955,8.60289865492814,PPG_1,PPG_3,167184.0,167184.0,-40.186253274208866,-24.273617411423977,-0.529415876905414
63865.07784788606,8.613007819032646,PPG_1,PPG_3,167211.0,167211.0,-13.150563470000634,-23.13594878374627,-0.5046027893102649
63865.08795705017,8.623116983144428,PPG_1,PPG_3,167201.0,167201.0,-23.114873665821506,-22.441954255561633,-0.48946644239916964
63865.098066214276,8.633226147248934,PPG_1,PPG_3,167153.0,167153.0,-71.07918386161327,-22.121217660348258,-0.4824710264771847
63865.10817537838,8.64333531135344,PPG_1,PPG_3,167191.0,167191.0,-33.043494057434145,-22.064948700539873,-0.48124377401135604
63865.11828454249,8.653444475465221,PPG_1,PPG_3,167185.0,167185.0,-39.00780425322591,-22.142038878394334,-0.48292514703096107
63865.1283937066,8.663553639569727,PPG_1,PPG_3,167210.0,167210.0,-13.972114449046785,-22.214725711954955,-0.48451048104147637
63865.1385028707,8.673662803674233,PPG_1,PPG_3,167156.0,167156.0,-67.93642464483855,-22.15316772845113,-0.48316787248244536
63865.14861203481,8.683771967786015,PPG_1,PPG_3,167182.0,167182.0,-41.900734840659425,-21.850295846935715,-0.4765620943645323
63865.15872119892,8.693881131890521,PPG_1,PPG_3,167161.0,167161.0,-62.86504503645119,-21.235489931904368,-0.4631528883333976
63865.16883036302,8.703990295995027,PPG_1,PPG_3,167187.0,167187.0,-36.829355232272064,-20.28268857317819,-0.44237184278139946
63865.17893952713,8.714099460106809,PPG_1,PPG_3,167188.0,167188.0,-35.79366542806383,-19.009671834663546,-0.41460674926086044
63865.18904869124,8.724208624211315,PPG_1,PPG_3,167201.0,167201.0,-22.757975623884704,-17.468980069157073,-0.3810035375658403
63865.19915785534,8.73431778831582,PPG_1,PPG_3,167187.0,167187.0,-36.72228581967647,-15.733921135669984,-0.34316108656388
63865.209267019454,8.744426952427602,PPG_1,PPG_3,167202.0,167202.0,-21.686596015497344,-13.883644986637643,-0.3028056939265075
63865.21937618356,8.754536116532108,PPG_1,PPG_3,167211.0,167211.0,-12.650906211289112,-11.989933721300883,-0.2615029609834021
63865.22948534766,8.764645280636614,PPG_1,PPG_3,167196.0,167196.0,-27.615216407109983,-10.107355268890851,-0.22044303992383713
63865.23959451177,8.77475444474112,PPG_1,PPG_3,167178.0,167178.0,-45.57952660290175,-8.268035007470312,-0.18032660034571285
63865.24970367588,8.784863608852902,PPG_1,PPG_3,167216.0,167216.0,-7.543836798722623,-6.480619313422638,-0.14134222378266897
63865.259812839984,8.794972772957408,PPG_1,PPG_3,167232.0,167232.0,8.49185300548561,-4.731413062093025,-0.10319121312781614
63865.26992200409,8.805081937061914,PPG_1,PPG_3,167189.0,167189.0,-34.47245719033526,-2.9875605815509143,-0.06515697073068157
63865.2800311682,8.815191101173696,PPG_1,PPG_3,167184.0,167184.0,-39.43676738612703,-1.204544541122982,-0.02626855268139033
63865.290140332305,8.825300265278202,PPG_1,PPG_3,167209.0,167209.0,-14.401077581947902,0.6623318993281551,0.014448900115732142
63865.30024949641,8.835409429382707,PPG_1,PPG_3,167222.0,167222.0,-1.3653877777396701,2.6469386640482497,0.05773410663095971
63865.31035866052,8.84551859349449,PPG_1,PPG_3,167191.0,167191.0,-32.32969797356054,4.765059516532346,0.10393131816617023
63865.320467824626,8.855627757598995,PPG_1,PPG_3,167218.0,167218.0,-5.29400816935231,7.010360465548771,0.15290238739495
63865.33057698873,8.865736921703501,PPG_1,PPG_3,167196.0,167196.0,-27.25831836517318,9.352795721240556,0.20399200151579527
63865.34068615284,8.875846085815283,PPG_1,PPG_3,167234.0,167234.0,10.77737143903505,11.74044018211725,0.2560676496548679
63865.35079531695,8.885955249919789,PPG_1,PPG_3,167199.0,167199.0,-24.18693875678582,14.105537049709588,0.30765152418463687
63865.36090448105,8.896064414024295,PPG_1,PPG_3,167224.0,167224.0,0.8487510473933071,16.374163650284455,0.3571313368394483
63865.37101364516,8.906173578136077,PPG_1,PPG_3,167224.0,167224.0,0.8844408516015392,18.478661424851776,0.4030314226409955
63865.38112280927,8.916282742240583,PPG_1,PPG_3,167267.0,167267.0,43.92013065578067,20.371829312441868,0.4443223042600007
63865.39123197337,8.926391906345089,PPG_1,PPG_3,167254.0,167254.0,30.9558204599889,22.039555429984443,0.48069619489261184
63865.40134113748,8.93650107045687,PPG_1,PPG_3,167224.0,167224.0,0.9915102641680278,23.505756353337564,0.5126747263016329
63865.41145030159,8.946610234561376,PPG_1,PPG_3,167196.0,167196.0,-26.97279993162374,24.825299213210304,0.5414545764012274
63865.42155946569,8.956719398665882,PPG_1,PPG_3,167220.0,167220.0,-2.937110127444612,26.067857244715096,0.5685553512030432
63865.43166862981,8.966828562777664,PPG_1,PPG_3,167246.0,167246.0,23.09857967676362,27.301408181921218,0.5954596770439108
63865.44177779391,8.97693772688217,PPG_1,PPG_3,167233.0,167233.0,10.134269480942748,28.58183414947786,0.6233863693329831
63865.45188695801,8.987046890986676,PPG_1,PPG_3,167220.0,167220.0,-2.8300407148490194,29.9483846537711,0.6531914782559912
63865.461996122125,8.997156055098458,PPG_1,PPG_3,167210.0,167210.0,-12.794350910669891,31.42234737062847,0.6853392980302101
63865.47210528623,9.007265219202964,PPG_1,PPG_3,167266.0,167266.0,43.24133889353834,33.00924490566033,0.7199502792802149
63865.482214450334,9.01737438330747,PPG_1,PPG_3,167247.0,167247.0,24.27702869771747,34.70610386488921,0.7569595708855447
63865.492323614446,9.027483547419251,PPG_1,PPG_3,167271.0,167271.0,48.3127185019257,36.51146114509041,0.7963352618770545
63865.50243277855,9.037592711523756,PPG_1,PPG_3,167230.0,167230.0,7.3484083061048295,38.43217854165764,0.8382270112380563
63865.512541942655,9.047701875628263,PPG_1,PPG_3,167254.0,167254.0,31.38409811031306,40.482915052765506,0.8829545386100295
63865.52265110677,9.057811039740043,PPG_1,PPG_3,167250.0,167250.0,27.41978791449219,42.67885362436785,0.9308489911818301
63865.53276027087,9.067920203844553,PPG_1,PPG_3,167277.0,167277.0,54.45547771870042,45.024526349426885,0.9820092160315308
63865.542869434976,9.078029367949055,PPG_1,PPG_3,167219.0,167219.0,-3.5088324771204498,47.50021021450063,1.0360050449640437
63865.55297859908,9.088138532053565,PPG_1,PPG_3,167213.0,167213.0,-9.473142672912218,50.04693667836416,1.0915503463737541
63865.56308776319,9.098247696165345,PPG_1,PPG_3,167257.0,167257.0,34.56254713126691,52.55479386049434,1.1462478904761555
63865.5731969273,9.10835686026985,PPG_1,PPG_3,167285.0,167285.0,62.59823693547514,54.86154482364389,1.1965592134012342
63865.5833060914,9.118466024374356,PPG_1,PPG_3,167269.0,167269.0,46.63392673965427,56.76331947893486,1.2380378126698934
63865.59341525551,9.128575188486138,PPG_1,PPG_3,167228.0,167228.0,5.669616543862503,58.03158409108855,1.2656992600804942
63865.60352441962,9.138684352590644,PPG_1,PPG_3,167258.0,167258.0,35.70530634804163,58.43087134459059,1.2744079027869357
63865.61363358372,9.14879351669515,PPG_1,PPG_3,167268.0,167268.0,45.74099615224986,57.738052053794355,1.2592971883557682
63865.62374274783,9.158902680806932,PPG_1,PPG_3,167295.0,167295.0,72.77668595642899,55.765658298060444,1.216278353307945
63865.63385191194,9.169011844911438,PPG_1,PPG_3,167240.0,167240.0,17.812375760637224,52.38672141530485,1.1425821514346115
63865.64396107604,9.179121009015944,PPG_1,PPG_3,167275.0,167275.0,52.84806556481635,47.55497697908112,1.0371995338457598
63865.654070240154,9.189230173127726,PPG_1,PPG_3,167228.0,167228.0,5.883755369024584,41.31673559306067,0.9011405565783827
63865.66417940426,9.199339337232232,PPG_1,PPG_3,167282.0,167282.0,59.91944517320371,33.81457637441537,0.7375149372053781
63865.67428856836,9.209448501336738,PPG_1,PPG_3,167250.0,167250.0,27.955134977411944,25.28312823926984,0.5514400426880197
63865.684397732475,9.21955766544852,PPG_1,PPG_3,167183.0,167183.0,-39.00917521840893,16.03503639698479,0.3497348120190322
63865.69450689658,9.229666829553024,PPG_1,PPG_3,167216.0,167216.0,-5.973485414200695,6.43635885846922,0.14038314250261735
63865.70461606069,9.239775993657531,PPG_1,PPG_3,167224.0,167224.0,2.062204389978433,-3.124428546265864,-0.06814212538364428
63865.7147252248,9.249885157769311,PPG_1,PPG_3,167189.0,167189.0,-32.902105805813335,-12.268294060388005,-0.2675741308379169
63865.7248343889,9.25999432187382,PPG_1,PPG_3,167142.0,167142.0,-79.8664160016342,-20.656703527034132,-0.45052928475188525
63865.734943553005,9.270103485978323,PPG_1,PPG_3,167168.0,167168.0,-53.830726197425975,-28.020740456638308,-0.611142392068707
63865.74505271712,9.280212650090109,PPG_1,PPG_3,167136.0,167136.0,-85.79503639324685,-34.182837662863456,-0.7455406289788694
63865.75516188122,9.290321814194613,PPG_1,PPG_3,167188.0,167188.0,-33.759346589038614,-39.06469742441948,-0.8520162853727622
63865.765271045326,9.30043097829912,PPG_1,PPG_3,167162.0,167162.0,-59.723656784859486,-42.68005955717793,-0.9308690330937216
63865.77538020944,9.3105401424109,PPG_1,PPG_3,167160.0,167160.0,-61.687966980651254,-45.116770667646435,-0.9840148479269462
63865.78548937354,9.320649306515406,PPG_1,PPG_3,167158.0,167158.0,-63.652277176472126,-46.51431382888294,-1.0144959212677387
63865.79559853765,9.330758470619912,PPG_1,PPG_3,167176.0,167176.0,-45.61658737226389,-47.04072124010198,-1.0259771143740093
63865.80570770176,9.340867634731694,PPG_1,PPG_3,167191.0,167191.0,-30.580897568084765,-46.87099395338497,-1.0222752824607984
63865.81581686586,9.3509767988362,PPG_1,PPG_3,167161.0,167161.0,-60.54520776387653,-46.17034559865508,-1.0069938124647435
63865.82592602997,9.361085962940706,PPG_1,PPG_3,167132.0,167132.0,-89.5095179596974,-45.086152879942844,-0.9833470595835075
63865.83603519408,9.371195127052488,PPG_1,PPG_3,167150.0,167150.0,-71.47382815548917,-43.74841255606455,-0.9541703142392045
63865.846144358184,9.381304291156994,PPG_1,PPG_3,167174.0,167174.0,-47.438138351310045,-42.273077449974025,-0.9219925620106414
63865.85625352229,9.3914134552615,PPG_1,PPG_3,167162.0,167162.0,-59.40244854710181,-40.76273504566649,-0.8890512841508043
63865.86636268639,9.401522619366006,PPG_1,PPG_3,167143.0,167143.0,-78.36675874292268,-39.30399963106076,-0.8572355789971486
63865.876471850504,9.411631783477787,PPG_1,PPG_3,167174.0,167174.0,-47.33106893871445,-37.96337872885436,-0.8279960068853307
63865.88658101461,9.421740947582292,PPG_1,PPG_3,167202.0,167202.0,-19.295379134535324,-36.782085801191904,-0.8022314527994442
63865.89669017871,9.4318501116868,PPG_1,PPG_3,167173.0,167173.0,-48.25968933032709,-35.77107461103623,-0.7801808234591443
63865.906799342825,9.44195927579858,PPG_1,PPG_3,167172.0,167172.0,-49.22399952614796,-34.910540659420924,-0.7614121734317487
63865.91690850693,9.452068439903089,PPG_1,PPG_3,167151.0,167151.0,-70.18830972196884,-34.157138050575504,-0.7449801083533126
63865.927017671034,9.462177604007591,PPG_1,PPG_3,167146.0,167146.0,-75.1526199177606,-33.45670231194784,-0.7297032756143995
63865.937126835146,9.472286768119377,PPG_1,PPG_3,167179.0,167179.0,-42.116930113581475,-32.756232444131435,-0.7144256985018356
63865.94723599925,9.48239593222388,PPG_1,PPG_3,167203.0,167203.0,-18.081240309373243,-32.01018816516095,-0.6981541220571709
63865.957345163355,9.492505096328388,PPG_1,PPG_3,167173.0,167173.0,-48.045550505194115,-31.181793380797412,-0.6800864423763702
63865.96745432747,9.502614260440168,PPG_1,PPG_3,167144.0,167144.0,-77.00986070098588,-30.244324543144266,-0.6596398063168938
63865.97756349157,9.512723424544674,PPG_1,PPG_3,167182.0,167182.0,-38.974170896806754,-29.18492057618553,-0.6365337077647568
63865.98767265568,9.52283258864918,PPG_1,PPG_3,167181.0,167181.0,-39.93848109259852,-28.00797483173754,-0.6108639677884171
63865.99778181979,9.532941752760962,PPG_1,PPG_3,167163.0,167163.0,-57.902791288419394,-26.73465596236135,-0.5830922846517541
63866.00789098389,9.543050916865468,PPG_1,PPG_3,167177.0,167177.0,-43.86710148421116,-25.398509866239458,-0.5539503101642751
63866.018000148,9.553160080969974,PPG_1,PPG_3,167191.0,167191.0,-29.831411680032033,-24.038260052490717,-0.5242826222640385
63866.02810931211,9.563269245081756,PPG_1,PPG_3,167190.0,167190.0,-30.7957218758238,-22.688519613613114,-0.4948441487702676
63866.03821847621,9.573378409186262,PPG_1,PPG_3,167207.0,167207.0,-13.760032071644673,-21.370509171684958,-0.46609772142644423
63866.04832764032,9.583487573290768,PPG_1,PPG_3,167179.0,167179.0,-41.72434226743644,-20.086435968681776,-0.4380914812176936
63866.05843680443,9.59359673740255,PPG_1,PPG_3,167182.0,167182.0,-38.68865246325731,-18.820151545924066,-0.41047322266871916
63866.068545968534,9.603705901507055,PPG_1,PPG_3,167196.0,167196.0,-24.65296265904908,-17.543600229513984,-0.38263103834265233
63866.07865513264,9.61381506561156,PPG_1,PPG_3,167174.0,167174.0,-46.61727285486995,-16.226259103030497,-0.3538992090833268
63866.08876429675,9.623924229723343,PPG_1,PPG_3,167174.0,167174.0,-46.58158305066172,-14.844690142174779,-0.32376654056241577
63866.098873460855,9.634033393827847,PPG_1,PPG_3,167188.0,167188.0,-32.54589324648259,-13.389660671173758,-0.2920316637809672
63866.10898262496,9.644142557932357,PPG_1,PPG_3,167192.0,167192.0,-28.51020344227436,-11.868316078899529,-0.25885042302937566
63866.11909178907,9.654251722044137,PPG_1,PPG_3,167204.0,167204.0,-16.47451363809523,-10.30051351936092,-0.22465591217155223
63866.129200953175,9.664360886148645,PPG_1,PPG_3,167214.0,167214.0,-6.438823833887,-8.711393007608434,-0.18999644675423477
63866.13931011728,9.674470050253149,PPG_1,PPG_3,167200.0,167200.0,-20.40313402970787,-7.1241265036115236,-0.1553774181176476
63866.149419281384,9.684579214357656,PPG_1,PPG_3,167198.0,167198.0,-22.36744422549964,-5.5563344284754175,-0.12118313592957157
63866.159528445496,9.694688378469436,PPG_1,PPG_3,167194.0,167194.0,-26.33175442132051,-4.021153512304838,-0.08770011844925381
63866.1696376096,9.704797542573942,PPG_1,PPG_3,167193.0,167193.0,-27.29606461711228,-2.5309918331958516,-0.05519899169308862
63866.179746773705,9.714906706678448,PPG_1,PPG_3,167191.0,167191.0,-29.26037481293315,-1.100642716883027,-0.02400240504978653
63866.18985593782,9.72501587079023,PPG_1,PPG_3,167207.0,167207.0,-13.224685008724919,0.25306066501907165,0.005522502094354184
