timestamp,PPG_1,PPG_2,PPG_3,time_from_segment_start_sec
63102.98669988278,185778.0,159366.0,10979.0,0.0
63102.996702652716,185822.0,159391.0,10974.0,0.010002769937273115
63103.00670542266,185771.0,159402.0,10985.0,0.020005539881822187
63103.0167081926,185797.0,159394.0,10981.0,0.030008309819095302
63103.02671096254,185842.0,159423.0,10997.0,0.040011079763644375
63103.03671373248,185841.0,159408.0,11016.0,0.05001384970091749
63103.046716502424,185826.0,159386.0,11028.0,0.06001661964546656
63103.05671927236,185833.0,159408.0,11034.0,0.07001938958273968
63103.066722042306,185827.0,159384.0,11026.0,0.08002215952728875
63103.07672481225,185853.0,159410.0,11038.0,0.09002492947183782
63103.08672758219,185869.0,159414.0,11062.0,0.10002769940911094
63103.09673035213,185828.0,159388.0,11045.0,0.11003046935366001
63103.10673312207,185859.0,159438.0,11080.0,0.12003323929093312
63103.116735892014,185878.0,159420.0,11060.0,0.1300360092354822
63103.12673866195,185893.0,159408.0,11044.0,0.1400387791727553
63103.136741431896,185913.0,159435.0,11050.0,0.15004154911730438
63103.14674420183,185894.0,159424.0,11064.0,0.1600443190545775
63103.15674697178,185908.0,159441.0,11086.0,0.17004708899912657
63103.166749741715,185926.0,159442.0,11112.0,0.1800498589363997
63103.17675251166,185919.0,159425.0,11085.0,0.19005262888094876
63103.1867552816,185948.0,159449.0,11111.0,0.20005539881822187
63103.19675805154,185948.0,159453.0,11114.0,0.21005816876277095
63103.20676082148,185912.0,159426.0,11102.0,0.22006093870004406
63103.21676359142,185900.0,159460.0,11104.0,0.23006370864459313
63103.22676636136,185898.0,159424.0,11103.0,0.24006647858186625
63103.236769131305,185905.0,159439.0,11119.0,0.2500692485264153
63103.24677190124,185912.0,159450.0,11098.0,0.26007201846368844
63103.25677467119,185826.0,159427.0,11117.0,0.2700747884082375
63103.26677744113,185844.0,159448.0,11099.0,0.2800775583527866
63103.27678021107,185809.0,159411.0,11062.0,0.2900803282900597
63103.28678298101,185767.0,159375.0,11011.0,0.30008309823460877
63103.29678575095,185769.0,159383.0,11013.0,0.3100858681718819
63103.306788520895,185709.0,159357.0,10990.0,0.32008863811643096
63103.31679129083,185736.0,159383.0,10969.0,0.33009140805370407
63103.32679406078,185698.0,159386.0,10936.0,0.34009417799825314
63103.336796830714,185682.0,159350.0,10930.0,0.35009694793552626
63103.34679960066,185703.0,159376.0,10911.0,0.36009971788007533
63103.356802370596,185682.0,159362.0,10904.0,0.37010248781734845
63103.36680514054,185647.0,159311.0,10910.0,0.3801052577618975
63103.37680791048,185640.0,159360.0,10891.0,0.39010802769917063
63103.38681068042,185641.0,159294.0,10877.0,0.4001107976437197
63103.39681345036,185655.0,159332.0,10866.0,0.4101135675809928
63103.406816220304,185626.0,159317.0,10853.0,0.4201163375255419
63103.41681899024,185613.0,159311.0,10827.0,0.430119107462815
63103.426821760186,185600.0,159291.0,10833.0,0.4401218774073641
63103.43682453012,185607.0,159325.0,10806.0,0.4501246473446372
63103.44682730007,185633.0,159302.0,10822.0,0.46012741728918627
63103.456830070005,185632.0,159317.0,10799.0,0.4701301872264594
63103.46683283995,185588.0,159287.0,10802.0,0.48013295717100846
63103.476835609894,185625.0,159298.0,10806.0,0.49013572711555753
63103.48683837983,185612.0,159335.0,10807.0,0.5001384970528306
63103.496841149776,185575.0,159268.0,10808.0,0.5101412669973797
63103.50684391971,185617.0,159320.0,10818.0,0.5201440369346528
63103.51684668966,185585.0,159281.0,10772.0,0.5301468068792019
63103.526849459595,185613.0,159302.0,10789.0,0.540149576816475
63103.53685222954,185601.0,159269.0,10793.0,0.5501523467610241
63103.54685499948,185591.0,159281.0,10766.0,0.5601551166982972
63103.55685776942,185623.0,159306.0,10791.0,0.5701578866428463
63103.56686053936,185610.0,159298.0,10787.0,0.5801606565801194
63103.5768633093,185590.0,159305.0,10782.0,0.5901634265246685
63103.58686607924,185645.0,159300.0,10797.0,0.6001661964619416
63103.596868849185,185606.0,159273.0,10775.0,0.6101689664064907
63103.60687161912,185613.0,159303.0,10782.0,0.6201717363437638
63103.61687438907,185595.0,159284.0,10796.0,0.6301745062883128
63103.626877159004,185622.0,159317.0,10787.0,0.640177276225586
63103.63687992895,185610.0,159299.0,10804.0,0.650180046170135
63103.646882698886,185613.0,159299.0,10787.0,0.6601828161074081
63103.65688546883,185621.0,159296.0,10765.0,0.6701855860519572
63103.666888238775,185635.0,159316.0,10777.0,0.6801883559965063
63103.67689100871,185604.0,159285.0,10775.0,0.6901911259337794
63103.68689377866,185631.0,159292.0,10779.0,0.7001938958783285
63103.696896548594,185628.0,159305.0,10803.0,0.7101966658156016
63103.70689931854,185632.0,159304.0,10779.0,0.7201994357601507
63103.716902088476,185672.0,159328.0,10823.0,0.7302022056974238
63103.72690485842,185666.0,159313.0,10803.0,0.7402049756419729
63103.73690762836,185643.0,159280.0,10796.0,0.750207745579246
63103.7469103983,185671.0,159344.0,10836.0,0.760210515523795
63103.75691316824,185667.0,159326.0,10836.0,0.7702132854610682
63103.766915938184,185669.0,159306.0,10815.0,0.7802160554056172
63103.77691870812,185674.0,159332.0,10813.0,0.7902188253428903
63103.786921478066,185689.0,159315.0,10815.0,0.8002215952874394
63103.796924248,185705.0,159353.0,10852.0,0.8102243652247125
63103.80692701795,185704.0,159336.0,10830.0,0.8202271351692616
63103.816929787885,185703.0,159333.0,10841.0,0.8302299051065347
63103.82693255783,185700.0,159311.0,10847.0,0.8402326750510838
63103.83693532777,185687.0,159310.0,10842.0,0.8502354449883569
63103.84693809771,185728.0,159345.0,10858.0,0.860238214932906
63103.856940867656,185702.0,159335.0,10859.0,0.870240984877455
63103.86694363759,185718.0,159332.0,10857.0,0.8802437548147282
63103.87694640754,185753.0,159356.0,10849.0,0.8902465247592772
63103.886949177475,185763.0,159328.0,10898.0,0.9002492946965504
63103.89695194742,185722.0,159352.0,10908.0,0.9102520646410994
63103.90695471736,185746.0,159346.0,10887.0,0.9202548345783725
63103.9169574873,185747.0,159330.0,10908.0,0.9302576045229216
63103.92696025724,185775.0,159362.0,10898.0,0.9402603744601947
63103.93696302718,185727.0,159328.0,10908.0,0.9502631444047438
63103.94696579712,185780.0,159371.0,10919.0,0.9602659143420169
63103.956968567065,185807.0,159388.0,10943.0,0.970268684286566
63103.966971337,185804.0,159378.0,10923.0,0.9802714542238391
63103.97697410695,185762.0,159358.0,10917.0,0.9902742241683882
63103.986976876884,185813.0,159407.0,10936.0,1.0002769941056613
63103.99697964683,185790.0,159372.0,10925.0,1.0102797640502104
63104.006982416766,185815.0,159399.0,10951.0,1.0202825339874835
63104.01698518671,185809.0,159377.0,11001.0,1.0302853039320325
63104.02698795665,185814.0,159367.0,10979.0,1.0402880738693057
63104.03699072659,185870.0,159405.0,10986.0,1.0502908438138547
63104.04699349654,185854.0,159408.0,10992.0,1.0602936137584038
63104.056996266474,185854.0,159390.0,10978.0,1.070296383695677
63104.06699903642,185882.0,159399.0,11008.0,1.080299153640226
63104.077001806356,185872.0,159379.0,10995.0,1.090301923577499
63104.0870045763,185874.0,159412.0,11015.0,1.1003046935220482
63104.09700734624,185924.0,159424.0,11035.0,1.1103074634593213
63104.10701011618,185873.0,159400.0,11006.0,1.1203102334038704
63104.11701288612,185935.0,159443.0,11047.0,1.1303130033411435
63104.127015656064,185908.0,159445.0,11036.0,1.1403157732856926
63104.137018426,185898.0,159411.0,11048.0,1.1503185432229657
63104.147021195946,185885.0,159404.0,11070.0,1.1603213131675147
63104.15702396588,185911.0,159413.0,11041.0,1.1703240831047879
63104.16702673583,185939.0,159436.0,11082.0,1.180326853049337
63104.177029505765,185912.0,159407.0,11065.0,1.19032962298661
63104.18703227571,185929.0,159453.0,11059.0,1.2003323929311591
63104.19703504565,185955.0,159463.0,11113.0,1.2103351628684322
63104.20703781559,185969.0,159451.0,11088.0,1.2203379328129813
63104.21704058553,185964.0,159449.0,11117.0,1.2303407027502544
63104.22704335547,185985.0,159471.0,11135.0,1.2403434726948035
63104.23704612541,185940.0,159441.0,11097.0,1.2503462426320766
63104.247048895355,185982.0,159470.0,11132.0,1.2603490125766257
63104.2570516653,185933.0,159455.0,11099.0,1.2703517825211748
63104.26705443524,185923.0,159450.0,11084.0,1.2803545524584479
63104.27705720518,185903.0,159457.0,11085.0,1.290357322402997
63104.28705997512,185764.0,159395.0,10988.0,1.30036009234027
63104.29706274506,185815.0,159391.0,11011.0,1.3103628622848191
63104.307065515,185810.0,159419.0,10981.0,1.3203656322220922
63104.317068284945,185750.0,159373.0,10931.0,1.3303684021666413
63104.32707105488,185759.0,159369.0,10953.0,1.3403711721039144
63104.33707382483,185737.0,159391.0,10912.0,1.3503739420484635
63104.347076594764,185723.0,159368.0,10875.0,1.3603767119857366
63104.35707936471,185731.0,159366.0,10901.0,1.3703794819302857
63104.367082134646,185687.0,159329.0,10838.0,1.3803822518675588
63104.37708490459,185695.0,159353.0,10839.0,1.3903850218121079
63104.38708767453,185678.0,159352.0,10822.0,1.400387791749381
63104.39709044447,185647.0,159312.0,10797.0,1.41039056169393
63104.40709321441,185674.0,159353.0,10810.0,1.4203933316312032
63104.417095984354,185614.0,159321.0,10758.0,1.4303961015757523
63104.42709875429,185608.0,159294.0,10788.0,1.4403988715130254
63104.437101524236,185640.0,159327.0,10773.0,1.4504016414575744
63104.44710429418,185626.0,159302.0,10709.0,1.4604044114021235
63104.45710706412,185624.0,159307.0,10733.0,1.4704071813393966
63104.46710983406,185588.0,159285.0,10729.0,1.4804099512839457
63104.477112604,185577.0,159281.0,10708.0,1.4904127212212188
63104.487115373944,185609.0,159304.0,10729.0,1.500415491165768
63104.49711814388,185591.0,159293.0,10708.0,1.510418261103041
63104.507120913826,185584.0,159276.0,10685.0,1.52042103104759
63104.51712368376,185620.0,159318.0,10711.0,1.5304238009848632
63104.52712645371,185559.0,159292.0,10677.0,1.5404265709294123
63104.537129223645,185586.0,159286.0,10689.0,1.5504293408666854
63104.54713199359,185601.0,159279.0,10655.0,1.5604321108112345
63104.55713476353,185592.0,159278.0,10670.0,1.5704348807485076
63104.56713753347,185576.0,159272.0,10715.0,1.5804376506930566
63104.57714030341,185597.0,159288.0,10683.0,1.5904404206303298
63104.58714307335,185601.0,159292.0,10717.0,1.6004431905748788
63104.59714584329,185625.0,159298.0,10710.0,1.610445960512152
63104.607148613235,185572.0,159274.0,10665.0,1.620448730456701
63104.61715138317,185605.0,159284.0,10691.0,1.6304515003939741
63104.62715415312,185627.0,159320.0,10666.0,1.6404542703385232
63104.63715692306,185583.0,159278.0,10676.0,1.6504570402830723
63104.647159693,185573.0,159268.0,10672.0,1.6604598102203454
63104.65716246294,185586.0,159285.0,10687.0,1.6704625801648945
63104.66716523288,185589.0,159260.0,10685.0,1.6804653501021676
63104.677168002825,185578.0,159269.0,10695.0,1.6904681200467166
63104.68717077276,185584.0,159269.0,10658.0,1.7004708899839898
63104.69717354271,185609.0,159284.0,10685.0,1.7104736599285388
63104.707176312644,185622.0,159316.0,10702.0,1.720476429865812
63104.71717908259,185600.0,159260.0,10667.0,1.730479199810361
63104.727181852526,185653.0,159324.0,10706.0,1.7404819697476341
63104.73718462247,185639.0,159306.0,10708.0,1.7504847396921832
63104.74718739241,185606.0,159316.0,10703.0,1.7604875096294563
63104.75719016235,185621.0,159298.0,10693.0,1.7704902795740054
63104.76719293229,185680.0,159321.0,10715.0,1.7804930495112785
63104.777195702234,185671.0,159312.0,10715.0,1.7904958194558276
63104.78719847217,185653.0,159303.0,10734.0,1.8004985893931007
63104.797201242116,185669.0,159300.0,10736.0,1.8105013593376498
63104.80720401205,185657.0,159311.0,10734.0,1.8205041292749229
63104.817206782,185662.0,159304.0,10742.0,1.830506899219472
63104.827209551935,185670.0,159315.0,10734.0,1.840509669156745
63104.83721232188,185717.0,159338.0,10783.0,1.8505124391012941
63104.847215091824,185689.0,159341.0,10735.0,1.8605152090458432
63104.85721786176,185724.0,159339.0,10775.0,1.8705179789831163
63104.867220631706,185731.0,159333.0,10767.0,1.8805207489276654
63104.87722340164,185753.0,159373.0,10759.0,1.8905235188649385
63104.88722617159,185735.0,159364.0,10813.0,1.9005262888094876
63104.897228941525,185749.0,159353.0,10783.0,1.9105290587467607
63104.90723171147,185727.0,159340.0,10803.0,1.9205318286913098
63104.91723448141,185739.0,159376.0,10821.0,1.930534598628583
63104.92723725135,185762.0,159341.0,10813.0,1.940537368573132
63104.93724002129,185781.0,159369.0,10817.0,1.950540138510405
63104.94724279123,185787.0,159378.0,10793.0,1.9605429084549542
63104.95724556117,185774.0,159393.0,10847.0,1.9705456783922273
63104.967248331115,185773.0,159379.0,10813.0,1.9805484483367763
63104.97725110105,185795.0,159385.0,10843.0,1.9905512182740495
63104.987253871,185815.0,159382.0,10845.0,2.0005539882185985
63104.997256640934,185781.0,159362.0,10879.0,2.0105567581558716
63105.00725941088,185812.0,159371.0,10893.0,2.0205595281004207
63105.017262180816,185844.0,159403.0,10880.0,2.030562298037694
63105.02726495076,185834.0,159419.0,10878.0,2.040565067982243
63105.037267720705,185822.0,159412.0,10874.0,2.050567837926792
63105.04727049064,185841.0,159413.0,10881.0,2.060570607864065
63105.05727326059,185872.0,159413.0,10886.0,2.070573377808614
63105.067276030524,185857.0,159427.0,10912.0,2.0805761477458873
63105.07727880047,185842.0,159393.0,10900.0,2.0905789176904364
63105.087281570406,185874.0,159407.0,10903.0,2.1005816876277095
63105.09728434035,185887.0,159427.0,10929.0,2.1105844575722585
63105.10728711029,185891.0,159402.0,10954.0,2.1205872275095317
63105.11728988023,185885.0,159415.0,10951.0,2.1305899974540807
63105.12729265017,185919.0,159436.0,10952.0,2.140592767391354
63105.137295420114,185928.0,159435.0,10986.0,2.150595537335903
63105.14729819005,185927.0,159461.0,10967.0,2.160598307273176
63105.157300959996,185930.0,159424.0,10953.0,2.170601077217725
63105.16730372993,185932.0,159442.0,10989.0,2.180603847154998
63105.17730649988,185960.0,159467.0,10995.0,2.1906066170995473
63105.187309269815,185963.0,159458.0,11001.0,2.2006093870368204
63105.19731203976,185980.0,159487.0,10991.0,2.2106121569813695
63105.2073148097,185983.0,159455.0,11020.0,2.2206149269186426
63105.21731757964,185922.0,159408.0,10989.0,2.2306176968631917
63105.227320349586,185986.0,159464.0,11041.0,2.2406204668077407
63105.23732311952,185959.0,159452.0,11015.0,2.250623236745014
63105.24732588947,185996.0,159503.0,11054.0,2.260626006689563
63105.257328659405,185977.0,159456.0,11069.0,2.270628776626836
63105.26733142935,186013.0,159475.0,11065.0,2.280631546571385
63105.27733419929,185999.0,159488.0,11078.0,2.2906343165086582
63105.28733696923,186050.0,159499.0,11075.0,2.3006370864532073
63105.29733973917,185978.0,159454.0,11071.0,2.3106398563904804
63105.30734250911,185983.0,159480.0,11075.0,2.3206426263350295
63105.31734527905,185949.0,159443.0,11048.0,2.3306453962723026
63105.327348048995,185924.0,159429.0,11034.0,2.3406481662168517
63105.33735081893,185876.0,159407.0,11011.0,2.350650936154125
63105.34735358888,185845.0,159402.0,10972.0,2.360653706098674
63105.357356358814,185837.0,159416.0,10960.0,2.370656476035947
63105.36735912876,185791.0,159397.0,10923.0,2.380659245980496
63105.377361898696,185761.0,159403.0,10903.0,2.390662015917769
63105.38736466864,185777.0,159386.0,10872.0,2.4006647858623182
63105.39736743858,185759.0,159370.0,10852.0,2.4106675557995914
63105.40737020852,185745.0,159336.0,10839.0,2.4206703257441404
63105.41737297847,185737.0,159335.0,10807.0,2.4306730956886895
63105.427375748404,185716.0,159346.0,10785.0,2.4406758656259626
63105.43737851835,185674.0,159369.0,10784.0,2.4506786355705117
63105.447381288286,185676.0,159347.0,10760.0,2.460681405507785
63105.45738405823,185708.0,159327.0,10753.0,2.470684175452334
63105.46738682817,185679.0,159349.0,10749.0,2.480686945389607
63105.47738959811,185646.0,159330.0,10705.0,2.490689715334156
63105.48739236805,185640.0,159310.0,10718.0,2.500692485271429
63105.497395137994,185665.0,159304.0,10707.0,2.5106952552159782
63105.50739790793,185645.0,159320.0,10714.0,2.5206980251532514
63105.517400677876,185651.0,159295.0,10677.0,2.5307007950978004
63105.52740344781,185620.0,159309.0,10709.0,2.5407035650350736
63105.53740621776,185617.0,159282.0,10699.0,2.5507063349796226
63105.547408987695,185636.0,159306.0,10683.0,2.5607091049168957
63105.55741175764,185618.0,159323.0,10661.0,2.570711874861445
63105.56741452758,185595.0,159325.0,10658.0,2.580714644798718
63105.57741729752,185638.0,159304.0,10658.0,2.590717414743267
63105.58742006746,185649.0,159302.0,10671.0,2.60072018468054
63105.5974228374,185622.0,159335.0,10652.0,2.610722954625089
63105.60742560734,185666.0,159320.0,10712.0,2.6207257245623623
63105.617428377285,185609.0,159258.0,10676.0,2.6307284945069114
63105.62743114723,185641.0,159291.0,10679.0,2.6407312644514604
63105.63743391717,185603.0,159276.0,10649.0,2.6507340343887336
63105.64743668711,185630.0,159283.0,10675.0,2.6607368043332826
63105.65743945705,185604.0,159271.0,10684.0,2.6707395742705557
63105.66744222699,185640.0,159300.0,10673.0,2.680742344215105
63105.67744499693,185639.0,159290.0,10667.0,2.690745114152378
63105.687447766875,185666.0,159336.0,10652.0,2.700747884096927
63105.69745053681,185604.0,159291.0,10640.0,2.7107506540342
63105.70745330676,185636.0,159295.0,10671.0,2.720753423978749
63105.717456076694,185652.0,159306.0,10694.0,2.7307561939160223
63105.72745884664,185652.0,159278.0,10671.0,2.7407589638605714
63105.737461616576,185670.0,159307.0,10699.0,2.7507617337978445
63105.74746438652,185622.0,159285.0,10674.0,2.7607645037423936
63105.75746715646,185634.0,159308.0,10686.0,2.7707672736796667
63105.7674699264,185639.0,159316.0,10691.0,2.7807700436242158
63105.77747269634,185687.0,159290.0,10691.0,2.790772813561489
63105.787475466284,185688.0,159307.0,10691.0,2.800775583506038
63105.79747823622,185699.0,159321.0,10692.0,2.810778353443311
63105.807481006166,185677.0,159334.0,10698.0,2.82078112338786
63105.81748377611,185710.0,159333.0,10712.0,2.830783893332409
63105.82748654605,185699.0,159341.0,10713.0,2.8407866632696823
63105.83748931599,185676.0,159295.0,10728.0,2.8507894332142314
63105.84749208593,185729.0,159316.0,10747.0,2.8607922031515045
63105.857494855874,185743.0,159362.0,10757.0,2.8707949730960536
63105.86749762581,185727.0,159357.0,10733.0,2.8807977430333267
63105.877500395756,185700.0,159354.0,10746.0,2.8908005129778758
63105.88750316569,185721.0,159319.0,10753.0,2.900803282915149
63105.89750593564,185752.0,159367.0,10729.0,2.910806052859698
63105.907508705575,185759.0,159358.0,10765.0,2.920808822796971
63105.91751147552,185754.0,159322.0,10791.0,2.93081159274152
63105.92751424546,185793.0,159363.0,10808.0,2.9408143626787933
63105.9375170154,185753.0,159334.0,10782.0,2.9508171326233423
63105.94751978534,185795.0,159372.0,10792.0,2.9608199025606154
63105.95752255528,185787.0,159405.0,10798.0,2.9708226725051645
63105.96752532522,185785.0,159372.0,10798.0,2.9808254424424376
63105.977528095165,185792.0,159400.0,10825.0,2.9908282123869867
63105.9875308651,185781.0,159388.0,10802.0,3.00083098232426
63105.99753363505,185819.0,159376.0,10844.0,3.010833752268809
63106.00753640499,185842.0,159398.0,10801.0,3.020836522213358
63106.01753917493,185832.0,159384.0,10826.0,3.030839292150631
63106.02754194487,185862.0,159396.0,10883.0,3.04084206209518
63106.03754471481,185838.0,159400.0,10863.0,3.0508448320324533
63106.047547484755,185849.0,159387.0,10870.0,3.0608476019770023
63106.05755025469,185881.0,159416.0,10904.0,3.0708503719142755
63106.06755302464,185852.0,159382.0,10871.0,3.0808531418588245
63106.077555794574,185871.0,159417.0,10896.0,3.0908559117960976
63106.08755856452,185891.0,159423.0,10903.0,3.1008586817406467
63106.097561334456,185875.0,159416.0,10898.0,3.11086145167792
63106.1075641044,185908.0,159445.0,10929.0,3.120864221622469
63106.11756687434,185912.0,159426.0,10934.0,3.130866991559742
63106.12756964428,185886.0,159432.0,10921.0,3.140869761504291
63106.13757241422,185936.0,159452.0,10955.0,3.150872531441564
63106.147575184164,185938.0,159431.0,10936.0,3.1608753013861133
63106.1575779541,185920.0,159428.0,10956.0,3.1708780713233864
63106.167580724046,185933.0,159453.0,10986.0,3.1808808412679355
63106.17758349398,185912.0,159428.0,10966.0,3.1908836112052086
63106.18758626393,185981.0,159413.0,11005.0,3.2008863811497577
63106.197589033865,185953.0,159449.0,10989.0,3.2108891510870308
63106.20759180381,185964.0,159446.0,10989.0,3.22089192103158
63106.217594573754,186021.0,159487.0,10998.0,3.230894690976129
63106.22759734369,185977.0,159456.0,10996.0,3.240897460913402
63106.237600113636,185995.0,159464.0,11012.0,3.250900230857951
63106.24760288357,186012.0,159480.0,11044.0,3.260903000795224
63106.25760565352,186006.0,159474.0,11032.0,3.2709057707397733
63106.267608423455,186029.0,159501.0,11067.0,3.2809085406770464
63106.2776111934,186021.0,159445.0,11042.0,3.2909113106215955
63106.28761396334,186046.0,159478.0,11050.0,3.3009140805588686
63106.29761673328,186056.0,159491.0,11085.0,3.3109168505034177
63106.30761950322,186025.0,159476.0,11054.0,3.320919620440691
63106.31762227316,186053.0,159497.0,11094.0,3.33092239038524
63106.3276250431,186046.0,159513.0,11105.0,3.340925160322513
63106.337627813045,186005.0,159467.0,11073.0,3.350927930267062
63106.34763058298,186011.0,159447.0,11087.0,3.360930700204335
63106.35763335293,185941.0,159457.0,11052.0,3.3709334701488842
63106.367636122864,185886.0,159443.0,11048.0,3.3809362400861573
63106.37763889281,185914.0,159460.0,11016.0,3.3909390100307064
63106.387641662746,185853.0,159422.0,10985.0,3.4009417799679795
63106.39764443269,185836.0,159416.0,10969.0,3.4109445499125286
63106.407647202635,185856.0,159395.0,10943.0,3.4209473198570777
63106.41764997257,185778.0,159354.0,10897.0,3.430950089794351
63106.42765274252,185801.0,159388.0,10914.0,3.4409528597389
63106.437655512455,185776.0,159363.0,10892.0,3.450955629676173
63106.4476582824,185740.0,159356.0,10848.0,3.460958399620722
63106.457661052336,185770.0,159375.0,10877.0,3.470961169557995
63106.46766382228,185743.0,159351.0,10827.0,3.4809639395025442
63106.47766659222,185751.0,159357.0,10834.0,3.4909667094398174
63106.48766936216,185726.0,159350.0,10822.0,3.5009694793843664
63106.4976721321,185719.0,159336.0,10797.0,3.5109722493216395
63106.507674902045,185753.0,159354.0,10824.0,3.5209750192661886
63106.51767767198,185730.0,159346.0,10801.0,3.5309777892034617
63106.527680441926,185707.0,159348.0,10800.0,3.540980559148011
63106.53768321186,185704.0,159351.0,10794.0,3.550983329085284
63106.54768598181,185657.0,159355.0,10789.0,3.560986099029833
63106.557688751745,185701.0,159317.0,10780.0,3.570988868967106
63106.56769152169,185702.0,159331.0,10789.0,3.580991638911655
63106.57769429163,185692.0,159314.0,10765.0,3.5909944088489283
63106.58769706157,185720.0,159355.0,10799.0,3.6009971787934774
63106.59769983152,185709.0,159340.0,10783.0,3.6109999487380264
63106.607702601454,185711.0,159312.0,10759.0,3.6210027186752995
63106.6177053714,185740.0,159365.0,10797.0,3.6310054886198486
63106.627708141335,185706.0,159327.0,10768.0,3.6410082585571217
63106.63771091128,185720.0,159357.0,10779.0,3.651011028501671
63106.64771368122,185752.0,159356.0,10778.0,3.661013798438944
63106.65771645116,185711.0,159341.0,10771.0,3.671016568383493
63106.6677192211,185756.0,159307.0,10802.0,3.681019338320766
63106.677721991044,185698.0,159308.0,10773.0,3.691022108265315
63106.68772476098,185686.0,159325.0,10773.0,3.7010248782025883
63106.697727530925,185696.0,159353.0,10769.0,3.7110276481471374
63106.70773030086,185706.0,159331.0,10767.0,3.7210304180844105
63106.71773307081,185717.0,159345.0,10788.0,3.7310331880289596
63106.727735840745,185750.0,159375.0,10777.0,3.7410359579662327
63106.73773861069,185680.0,159324.0,10758.0,3.7510387279107817
63106.74774138063,185694.0,159313.0,10794.0,3.761041497848055
63106.75774415057,185719.0,159343.0,10760.0,3.771044267792604
63106.76774692051,185697.0,159343.0,10796.0,3.781047037729877
63106.77774969045,185696.0,159336.0,10825.0,3.791049807674426
63106.7877524604,185729.0,159343.0,10773.0,3.801052577618975
63106.797755230335,185747.0,159345.0,10832.0,3.8110553475562483
63106.80775800028,185705.0,159354.0,10815.0,3.8210581175007974
63106.81776077022,185740.0,159344.0,10816.0,3.8310608874380705
63106.82776354016,185765.0,159348.0,10852.0,3.8410636573826196
63106.8377663101,185740.0,159361.0,10816.0,3.8510664273198927
63106.84776908004,185758.0,159330.0,10833.0,3.8610691972644418
63106.85777184998,185756.0,159349.0,10854.0,3.871071967201715
63106.867774619925,185773.0,159396.0,10854.0,3.881074737146264
63106.87777738986,185765.0,159383.0,10849.0,3.891077507083537
63106.88778015981,185787.0,159344.0,10867.0,3.901080277028086
63106.897782929744,185822.0,159400.0,10843.0,3.9110830469653592
63106.90778569969,185824.0,159395.0,10899.0,3.9210858169099083
63106.917788469626,185795.0,159362.0,10863.0,3.9310885868471814
63106.92779123957,185832.0,159385.0,10891.0,3.9410913567917305
63106.93779400951,185800.0,159335.0,10892.0,3.9510941267290036
63106.94779677945,185843.0,159402.0,10941.0,3.9610968966735527
63106.95779954939,185870.0,159415.0,10923.0,3.971099666610826
63106.967802319334,185859.0,159386.0,10918.0,3.981102436555375
63106.97780508927,185828.0,159407.0,10925.0,3.991105206492648
63106.987807859216,185829.0,159389.0,10907.0,4.001107976437197
63106.99781062916,185863.0,159415.0,10924.0,4.011110746381746
63107.0078133991,185873.0,159408.0,10943.0,4.021113516319019
63107.01781616904,185872.0,159413.0,10970.0,4.031116286263568
63107.02781893898,185884.0,159412.0,10959.0,4.041119056200841
63107.037821708924,185907.0,159417.0,10974.0,4.0511218261453905
63107.04782447886,185895.0,159427.0,10970.0,4.061124596082664
63107.057827248806,185881.0,159405.0,10978.0,4.071127366027213
63107.06783001874,185897.0,159429.0,11005.0,4.081130135964486
63107.07783278869,185864.0,159451.0,10981.0,4.091132905909035
63107.087835558625,185934.0,159438.0,10998.0,4.101135675846308
63107.09783832857,185873.0,159406.0,10998.0,4.111138445790857
63107.10784109851,185942.0,159459.0,11003.0,4.12114121572813
63107.11784386845,185950.0,159466.0,11044.0,4.131143985672679
63107.12784663839,185961.0,159456.0,11032.0,4.141146755609952
63107.13784940833,185953.0,159434.0,11031.0,4.1511495255545015
63107.14785217827,185942.0,159431.0,11036.0,4.161152295491775
63107.157854948215,185969.0,159425.0,11046.0,4.171155065436324
63107.16785771815,185987.0,159455.0,11067.0,4.181157835373597
63107.1778604881,185959.0,159464.0,11056.0,4.191160605318146
63107.18786325804,186007.0,159496.0,11088.0,4.201163375262695
63107.19786602798,185977.0,159478.0,11079.0,4.211166145199968
63107.20786879792,186007.0,159480.0,11075.0,4.221168915144517
63107.21787156786,186019.0,159472.0,11083.0,4.23117168508179
63107.227874337805,186019.0,159485.0,11116.0,4.241174455026339
63107.23787710774,186046.0,159517.0,11116.0,4.251177224963612
63107.24787987769,186044.0,159502.0,11115.0,4.2611799949081615
63107.257882647624,186052.0,159495.0,11126.0,4.271182764845435
63107.26788541757,186056.0,159473.0,11127.0,4.281185534789984
63107.277888187506,186059.0,159490.0,11147.0,4.291188304727257
63107.28789095745,186082.0,159524.0,11155.0,4.301191074671806
63107.29789372739,186098.0,159547.0,11164.0,4.311193844609079
63107.30789649733,186066.0,159499.0,11151.0,4.321196614553628
63107.31789926727,186090.0,159515.0,11160.0,4.331199384490901
63107.327902037214,186090.0,159517.0,11176.0,4.34120215443545
63107.33790480715,186040.0,159500.0,11203.0,4.351204924372723
63107.347907577096,186069.0,159506.0,11191.0,4.361207694317272
63107.35791034703,186003.0,159471.0,11143.0,4.3712104642545455
63107.36791311698,185990.0,159476.0,11143.0,4.381213234199095
63107.37791588692,185943.0,159449.0,11123.0,4.391216004143644
63107.38791865686,185912.0,159455.0,11109.0,4.401218774080917
63107.397921426804,185891.0,159478.0,11093.0,4.411221544025466
63107.40792419674,185916.0,159452.0,11060.0,4.421224313962739
63107.417926966686,185923.0,159423.0,11026.0,4.431227083907288
63107.42792973662,185866.0,159422.0,11023.0,4.441229853844561
63107.43793250657,185853.0,159424.0,11027.0,4.45123262378911
63107.447935276505,185839.0,159415.0,10986.0,4.461235393726383
63107.45793804645,185844.0,159397.0,10967.0,4.471238163670932
63107.46794081639,185811.0,159368.0,10970.0,4.4812409336082055
63107.47794358633,185816.0,159411.0,10996.0,4.491243703552755
63107.48794635627,185809.0,159393.0,10949.0,4.501246473490028
63107.49794912621,185790.0,159357.0,10938.0,4.511249243434577
63107.50795189615,185822.0,159408.0,10953.0,4.52125201337185
63107.517954666095,185784.0,159377.0,10920.0,4.531254783316399
63107.52795743603,185806.0,159397.0,10929.0,4.541257553253672
63107.53796020598,185794.0,159415.0,10894.0,4.551260323198221
63107.547962975914,185772.0,159371.0,10908.0,4.561263093135494
63107.55796574586,185797.0,159385.0,10912.0,4.571265863080043
63107.567968515796,185779.0,159384.0,10912.0,4.5812686330173165
63107.57797128574,185784.0,159344.0,10892.0,4.5912714029618655
63107.587974055685,185805.0,159404.0,10936.0,4.601274172906415
63107.59797682562,185789.0,159389.0,10888.0,4.611276942843688
63107.60797959557,185750.0,159382.0,10896.0,4.621279712788237
63107.617982365504,185772.0,159404.0,10919.0,4.63128248272551
63107.62798513545,185806.0,159387.0,10929.0,4.641285252670059
63107.637987905386,185795.0,159381.0,10885.0,4.651288022607332
63107.64799067533,185789.0,159389.0,10938.0,4.661290792551881
63107.65799344527,185783.0,159413.0,10938.0,4.671293562489154
63107.66799621521,185795.0,159395.0,10902.0,4.681296332433703
63107.67799898515,185793.0,159383.0,10915.0,4.6912991023709765
63107.688001755094,185805.0,159393.0,10928.0,4.7013018723155255
63107.69800452503,185796.0,159391.0,10915.0,4.711304642252799
63107.708007294976,185776.0,159364.0,10886.0,4.721307412197348
63107.71801006491,185774.0,159410.0,10908.0,4.731310182134621
63107.72801283486,185808.0,159393.0,10936.0,4.74131295207917
63107.738015604795,185804.0,159375.0,10903.0,4.751315722016443
63107.74801837474,185805.0,159402.0,10896.0,4.761318491960992
63107.75802114468,185779.0,159369.0,10912.0,4.771321261898265
63107.76802391462,185799.0,159396.0,10929.0,4.781324031842814
63107.778026684566,185804.0,159409.0,10919.0,4.791326801787363
63107.7880294545,185813.0,159401.0,10921.0,4.8013295717246365
63107.79803222445,185830.0,159392.0,10937.0,4.8113323416691856
63107.808034994385,185793.0,159370.0,10931.0,4.821335111606459
63107.81803776433,185838.0,159405.0,10933.0,4.831337881551008
63107.82804053427,185803.0,159431.0,10941.0,4.841340651488281
63107.83804330421,185829.0,159414.0,10964.0,4.85134342143283
63107.84804607415,185861.0,159436.0,10968.0,4.861346191370103
63107.85804884409,185847.0,159419.0,10967.0,4.871348961314652
63107.86805161403,185833.0,159407.0,10997.0,4.881351731251925
63107.878054383975,185865.0,159415.0,10995.0,4.891354501196474
63107.88805715391,185834.0,159415.0,10965.0,4.901357271133747
63107.89805992386,185863.0,159415.0,10994.0,4.9113600410782965
63107.908062693794,185855.0,159417.0,11040.0,4.92136281101557
63107.91806546374,185851.0,159417.0,10986.0,4.931365580960119
63107.928068233676,185866.0,159445.0,10999.0,4.941368350897392
63107.93807100362,185898.0,159437.0,11017.0,4.951371120841941
63107.94807377356,185905.0,159427.0,11010.0,4.961373890779214
63107.9580765435,185941.0,159470.0,11016.0,4.971376660723763
63107.96807931345,185903.0,159430.0,11060.0,4.981379430668312
63107.978082083384,185918.0,159461.0,11036.0,4.991382200605585
63107.98808485333,185958.0,159460.0,11057.0,5.001384970550134
63107.998087623266,185921.0,159434.0,11045.0,5.011387740487407
63108.00809039321,185909.0,159431.0,11037.0,5.0213905104319565
63108.01809316315,185945.0,159460.0,11066.0,5.03139328036923
63108.02809593309,185919.0,159448.0,11073.0,5.041396050313779
63108.03809870303,185930.0,159455.0,11080.0,5.051398820251052
63108.048101472974,185978.0,159463.0,11076.0,5.061401590195601
63108.05810424291,185965.0,159476.0,11090.0,5.071404360132874
63108.068107012856,185966.0,159471.0,11090.0,5.081407130077423
63108.07810978279,185957.0,159481.0,11109.0,5.091409900014696
63108.08811255274,186011.0,159498.0,11134.0,5.101412669959245
63108.098115322675,185996.0,159491.0,11119.0,5.111415439896518
63108.10811809262,186001.0,159493.0,11100.0,5.121418209841067
63108.11812086256,186037.0,159503.0,11124.0,5.1314209797783406
63108.1281236325,186000.0,159482.0,11161.0,5.14142374972289
63108.13812640244,185971.0,159510.0,11131.0,5.151426519660163
63108.14812917238,185996.0,159515.0,11139.0,5.161429289604712
63108.15813194233,185992.0,159499.0,11136.0,5.171432059549261
63108.168134712265,186048.0,159486.0,11163.0,5.181434829486534
63108.17813748221,186063.0,159514.0,11160.0,5.191437599431083
63108.18814025215,186063.0,159524.0,11177.0,5.201440369368356
63108.19814302209,186087.0,159540.0,11196.0,5.211443139312905
63108.20814579203,186070.0,159523.0,11188.0,5.221445909250178
63108.21814856197,186093.0,159527.0,11206.0,5.2314486791947274
63108.22815133191,186070.0,159516.0,11205.0,5.241451449132001
63108.238154101855,186070.0,159514.0,11217.0,5.25145421907655
63108.24815687179,186105.0,159529.0,11199.0,5.261456989013823
63108.25815964174,186117.0,159542.0,11226.0,5.271459758958372
63108.268162411674,186111.0,159523.0,11201.0,5.281462528895645
63108.27816518162,186130.0,159563.0,11230.0,5.291465298840194
63108.288167951556,186102.0,159541.0,11233.0,5.301468068777467
63108.2981707215,186122.0,159555.0,11267.0,5.311470838722016
63108.30817349144,186109.0,159533.0,11243.0,5.321473608659289
63108.31817626138,186090.0,159524.0,11249.0,5.331476378603838
63108.32817903132,186049.0,159521.0,11222.0,5.3414791485411115
63108.338181801264,186022.0,159516.0,11225.0,5.351481918485661
63108.3481845712,186003.0,159524.0,11221.0,5.361484688422934
63108.358187341146,186008.0,159523.0,11205.0,5.371487458367483
63108.36819011109,185937.0,159488.0,11150.0,5.381490228312032
63108.37819288103,185947.0,159474.0,11144.0,5.391492998249305
63108.38819565097,185916.0,159462.0,11118.0,5.401495768193854
63108.39819842091,185873.0,159443.0,11088.0,5.411498538131127
63108.408201190854,185915.0,159458.0,11125.0,5.421501308075676
63108.41820396079,185871.0,159443.0,11079.0,5.431504078012949
63108.428206730736,185876.0,159430.0,11077.0,5.441506847957498
63108.43820950067,185846.0,159416.0,11037.0,5.4515096178947715
63108.44821227062,185900.0,159482.0,11024.0,5.461512387839321
63108.458215040555,185859.0,159448.0,11030.0,5.471515157776594
63108.4682178105,185865.0,159421.0,11079.0,5.481517927721143
63108.47822058044,185897.0,159452.0,11045.0,5.491520697658416
63108.48822335038,185855.0,159416.0,11032.0,5.501523467602965
63108.49822612032,185880.0,159445.0,11017.0,5.511526237540238
63108.50822889026,185873.0,159427.0,11056.0,5.521529007484787
63108.5182316602,185895.0,159434.0,11055.0,5.53153177742206
63108.528234430145,185881.0,159477.0,11050.0,5.541534547366609
63108.53823720008,185834.0,159397.0,11006.0,5.5515373173038824
63108.54823997003,185837.0,159403.0,11016.0,5.5615400872484315
63108.55824273997,185819.0,159411.0,11028.0,5.571542857192981
63108.56824550991,185854.0,159431.0,10993.0,5.581545627130254
63108.57824827985,185869.0,159439.0,11032.0,5.591548397074803
63108.58825104979,185861.0,159450.0,11014.0,5.601551167012076
63108.598253819735,185852.0,159429.0,11038.0,5.611553936956625
63108.60825658967,185895.0,159468.0,11050.0,5.621556706893898
63108.61825935962,185892.0,159444.0,11037.0,5.631559476838447
63108.628262129554,185871.0,159458.0,11027.0,5.64156224677572
63108.6382648995,185869.0,159463.0,11025.0,5.651565016720269
63108.648267669436,185853.0,159424.0,11002.0,5.6615677866575425
63108.65827043938,185886.0,159477.0,11000.0,5.6715705566020915
63108.66827320932,185842.0,159440.0,11004.0,5.681573326539365
63108.67827597926,185829.0,159404.0,11025.0,5.691576096483914
63108.6882787492,185873.0,159439.0,11030.0,5.701578866421187
63108.698281519144,185894.0,159450.0,11011.0,5.711581636365736
63108.70828428908,185849.0,159430.0,11025.0,5.721584406303009
63108.718287059026,185851.0,159426.0,11029.0,5.731587176247558
63108.72828982896,185845.0,159419.0,11033.0,5.741589946184831
63108.73829259891,185882.0,159464.0,11058.0,5.75159271612938
63108.74829536885,185869.0,159452.0,11033.0,5.761595486073929
63108.75829813879,185842.0,159420.0,11022.0,5.7715982560112025
63108.768300908734,185901.0,159461.0,11009.0,5.7816010259557515
63108.77830367867,185879.0,159424.0,11017.0,5.791603795893025
63108.788306448616,185880.0,159447.0,11047.0,5.801606565837574
63108.79830921855,185854.0,159426.0,11020.0,5.811609335774847
63108.8083119885,185871.0,159442.0,11032.0,5.821612105719396
63108.818314758435,185889.0,159419.0,11058.0,5.831614875656669
63108.82831752838,185900.0,159454.0,11053.0,5.841617645601218
63108.83832029832,185884.0,159457.0,11061.0,5.851620415538491
63108.84832306826,185892.0,159454.0,11070.0,5.86162318548304
63108.8583258382,185915.0,159459.0,11060.0,5.871625955420313
63108.86832860814,185949.0,159481.0,11100.0,5.8816287253648625
63108.87833137808,185956.0,159500.0,11091.0,5.891631495302136
63108.888334148025,185925.0,159464.0,11084.0,5.901634265246685
63108.89833691796,185913.0,159463.0,11083.0,5.911637035183958
63108.90833968791,185972.0,159492.0,11116.0,5.921639805128507
63108.918342457844,185996.0,159497.0,11142.0,5.93164257506578
63108.92834522779,185995.0,159508.0,11144.0,5.941645345010329
63108.938347997726,185964.0,159492.0,11126.0,5.951648114947602
63108.94835076767,185974.0,159500.0,11139.0,5.961650884892151
63108.958353537615,185982.0,159498.0,11142.0,5.9716536548367
63108.96835630755,185950.0,159502.0,11114.0,5.981656424773973
63108.9783590775,186006.0,159520.0,11138.0,5.9916591947185225
63108.988361847434,186005.0,159501.0,11155.0,6.001661964655796
63108.99836461738,185981.0,159503.0,11171.0,6.011664734600345
63109.008367387316,186034.0,159512.0,11188.0,6.021667504537618
63109.01837015726,185991.0,159495.0,11184.0,6.031670274482167
63109.0283729272,186008.0,159517.0,11177.0,6.04167304441944
63109.03837569714,185976.0,159524.0,11173.0,6.051675814363989
63109.04837846708,185990.0,159490.0,11181.0,6.061678584301262
63109.058381237024,186045.0,159548.0,11219.0,6.071681354245811
63109.06838400696,186024.0,159495.0,11207.0,6.081684124183084
63109.078386776906,186004.0,159495.0,11184.0,6.091686894127633
63109.08838954684,186044.0,159533.0,11189.0,6.1016896640649065
63109.09839231679,186044.0,159511.0,11209.0,6.111692434009456
63109.108395086725,186053.0,159535.0,11222.0,6.121695203946729
63109.11839785667,186071.0,159536.0,11256.0,6.131697973891278
63109.12840062661,186062.0,159540.0,11224.0,6.141700743828551
63109.13840339655,186064.0,159528.0,11217.0,6.1517035137731
63109.148406166496,186093.0,159528.0,11248.0,6.161706283717649
63109.15840893643,186115.0,159545.0,11273.0,6.171709053654922
63109.16841170638,186089.0,159568.0,11290.0,6.181711823599471
63109.178414476315,186112.0,159537.0,11254.0,6.191714593536744
63109.18841724626,186116.0,159557.0,11280.0,6.201717363481293
63109.1984200162,186083.0,159597.0,11301.0,6.2117201334185665
63109.20842278614,186104.0,159532.0,11284.0,6.221722903363116
63109.21842555608,186139.0,159568.0,11325.0,6.231725673300389
63109.22842832602,186138.0,159569.0,11319.0,6.241728443244938
63109.23843109596,186123.0,159569.0,11332.0,6.251731213182211
63109.248433865905,186148.0,159583.0,11337.0,6.26173398312676
63109.25843663584,186142.0,159579.0,11315.0,6.271736753064033
63109.26843940579,186127.0,159565.0,11320.0,6.281739523008582
63109.278442175724,186093.0,159537.0,11318.0,6.291742292945855
63109.28844494567,186080.0,159535.0,11291.0,6.301745062890404
63109.298447715606,186060.0,159560.0,11298.0,6.3117478328276775
63109.30845048555,186027.0,159530.0,11257.0,6.321750602772227
63109.31845325549,185972.0,159518.0,11241.0,6.3317533727095
63109.32845602543,186026.0,159541.0,11247.0,6.341756142654049
63109.33845879538,185960.0,159494.0,11173.0,6.351758912598598
63109.348461565314,185946.0,159481.0,11172.0,6.361761682535871
63109.35846433526,185936.0,159510.0,11180.0,6.37176445248042
63109.368467105196,185929.0,159487.0,11125.0,6.381767222417693
63109.37846987514,185902.0,159456.0,11156.0,6.391769992362242
63109.38847264508,185909.0,159477.0,11126.0,6.401772762299515
63109.39847541502,185888.0,159438.0,11111.0,6.411775532244064
63109.40847818496,185872.0,159428.0,11122.0,6.4217783021813375
63109.418480954904,185879.0,159457.0,11100.0,6.431781072125887
63109.42848372484,185889.0,159460.0,11093.0,6.44178384206316
63109.438486494786,185895.0,159469.0,11096.0,6.451786612007709
63109.44848926472,185878.0,159457.0,11083.0,6.461789381944982
63109.45849203467,185879.0,159460.0,11093.0,6.471792151889531
63109.468494804605,185875.0,159437.0,11092.0,6.481794921826804
63109.47849757455,185879.0,159465.0,11089.0,6.491797691771353
63109.48850034449,185901.0,159454.0,11095.0,6.501800461708626
63109.49850311443,185889.0,159425.0,11073.0,6.511803231653175
63109.50850588437,185887.0,159432.0,11089.0,6.521806001590448
63109.51850865431,185902.0,159459.0,11084.0,6.5318087715349975
63109.52851142426,185865.0,159457.0,11066.0,6.541811541479547
63109.538514194195,185874.0,159438.0,11068.0,6.55181431141682
63109.54851696414,185928.0,159478.0,11104.0,6.561817081361369
63109.55851973408,185926.0,159466.0,11078.0,6.571819851298642
63109.56852250402,185896.0,159456.0,11111.0,6.581822621243191
63109.57852527396,185918.0,159470.0,11095.0,6.591825391180464
63109.5885280439,185901.0,159435.0,11087.0,6.601828161125013
63109.59853081384,185872.0,159420.0,11059.0,6.611830931062286
63109.608533583785,185857.0,159401.0,11078.0,6.621833701006835
63109.61853635372,185870.0,159451.0,11092.0,6.631836470944108
63109.62853912367,185881.0,159445.0,11097.0,6.6418392408886575
63109.638541893604,185893.0,159448.0,11082.0,6.651842010825931
63109.64854466355,185875.0,159439.0,11060.0,6.66184478077048
63109.658547433486,185920.0,159458.0,11062.0,6.671847550707753
63109.66855020343,185889.0,159433.0,11054.0,6.681850320652302
63109.67855297337,185895.0,159445.0,11082.0,6.691853090589575
63109.68855574331,185884.0,159431.0,11074.0,6.701855860534124
63109.69855851325,185871.0,159427.0,11084.0,6.711858630471397
63109.708561283194,185899.0,159444.0,11079.0,6.721861400415946
63109.71856405313,185897.0,159443.0,11087.0,6.731864170353219
63109.728566823076,185850.0,159464.0,11069.0,6.7418669402977685
63109.73856959302,185923.0,159441.0,11102.0,6.7518697102423175
63109.74857236296,185895.0,159458.0,11078.0,6.761872480179591
63109.7585751329,185927.0,159455.0,11099.0,6.77187525012414
63109.76857790284,185953.0,159492.0,11065.0,6.781878020061413
63109.778580672784,185939.0,159434.0,11104.0,6.791880790005962
63109.78858344272,185946.0,159493.0,11099.0,6.801883559943235
63109.798586212666,185941.0,159475.0,11115.0,6.811886329887784
63109.8085889826,185936.0,159457.0,11124.0,6.821889099825057
63109.81859175255,185976.0,159474.0,11131.0,6.831891869769606
63109.828594522485,185942.0,159480.0,11119.0,6.841894639706879
63109.83859729243,185957.0,159481.0,11127.0,6.8518974096514285
63109.84860006237,185944.0,159515.0,11134.0,6.861900179588702
63109.85860283231,185945.0,159474.0,11117.0,6.871902949533251
63109.86860560225,186000.0,159520.0,11181.0,6.881905719470524
63109.87860837219,185970.0,159481.0,11153.0,6.891908489415073
63109.88861114213,185975.0,159470.0,11189.0,6.901911259352346
63109.898613912075,186002.0,159523.0,11166.0,6.911914029296895
63109.90861668201,185962.0,159458.0,11161.0,6.921916799234168
63109.91861945196,186008.0,159497.0,11163.0,6.931919569178717
63109.9286222219,186010.0,159510.0,11178.0,6.941922339123266
63109.93862499184,185995.0,159495.0,11181.0,6.951925109060539
63109.94862776178,186040.0,159529.0,11216.0,6.9619278790050885
63109.95863053172,186019.0,159525.0,11195.0,6.971930648942362
63109.968633301665,186009.0,159476.0,11193.0,6.981933418886911
63109.9786360716,186071.0,159541.0,11212.0,6.991936188824184
63109.98863884155,186014.0,159503.0,11185.0,7.001938958768733
63109.998641611484,186009.0,159514.0,11209.0,7.011941728706006
63110.00864438143,186061.0,159512.0,11249.0,7.021944498650555
63110.018647151366,186018.0,159491.0,11215.0,7.031947268587828
63110.02864992131,186071.0,159542.0,11234.0,7.041950038532377
63110.03865269125,186070.0,159526.0,11237.0,7.05195280846965
63110.04865546119,186059.0,159544.0,11220.0,7.061955578414199
63110.05865823113,186076.0,159560.0,11258.0,7.0719583483514725
63110.068661001074,186074.0,159493.0,11248.0,7.081961118296022
63110.07866377101,186083.0,159539.0,11257.0,7.091963888233295
63110.088666540956,186090.0,159553.0,11252.0,7.101966658177844
63110.09866931089,186078.0,159519.0,11244.0,7.111969428115117
63110.10867208084,186110.0,159564.0,11295.0,7.121972198059666
63110.11867485078,186098.0,159554.0,11283.0,7.131974968004215
63110.12867762072,186068.0,159530.0,11272.0,7.141977737941488
63110.138680390664,186132.0,159582.0,11302.0,7.151980507886037
63110.1486831606,186112.0,159552.0,11284.0,7.16198327782331
63110.158685930546,186142.0,159555.0,11296.0,7.171986047767859
63110.16868870048,186157.0,159585.0,11286.0,7.1819888177051325
63110.17869147043,186124.0,159546.0,11294.0,7.191991587649682
63110.188694240365,186157.0,159574.0,11313.0,7.201994357586955
63110.19869701031,186115.0,159552.0,11302.0,7.211997127531504
63110.20869978025,186085.0,159517.0,11320.0,7.221999897468777
63110.21870255019,186045.0,159561.0,11309.0,7.232002667413326
63110.22870532013,186043.0,159531.0,11239.0,7.242005437350599
63110.23870809007,186015.0,159520.0,11271.0,7.252008207295148
63110.24871086001,185984.0,159530.0,11227.0,7.262010977232421
63110.258713629955,185904.0,159498.0,11170.0,7.27201374717697
63110.26871639989,185936.0,159453.0,11177.0,7.2820165171142435
63110.27871916984,185880.0,159460.0,11121.0,7.2920192870587925
63110.288721939774,185916.0,159440.0,11136.0,7.302022056996066
63110.29872470972,185935.0,159463.0,11119.0,7.312024826940615
63110.308727479656,185883.0,159441.0,11090.0,7.322027596877888
63110.3187302496,185932.0,159438.0,11103.0,7.332030366822437
63110.328733019545,185901.0,159442.0,11082.0,7.342033136766986
63110.33873578948,185883.0,159413.0,11074.0,7.352035906704259
63110.34873855943,185885.0,159427.0,11091.0,7.362038676648808
63110.358741329364,185885.0,159425.0,11046.0,7.372041446586081
63110.36874409931,185893.0,159437.0,11051.0,7.38204421653063
63110.378746869246,185926.0,159456.0,11063.0,7.3920469864679035
63110.38874963919,185867.0,159417.0,11038.0,7.4020497564124526
63110.39875240913,185914.0,159453.0,11069.0,7.412052526349726
63110.40875517907,185891.0,159427.0,11042.0,7.422055296294275
63110.41875794901,185884.0,159414.0,11052.0,7.432058066231548
63110.428760718954,185893.0,159416.0,11032.0,7.442060836176097
63110.43876348889,185896.0,159418.0,11039.0,7.45206360611337
63110.448766258836,185907.0,159436.0,11039.0,7.462066376057919
63110.45876902877,185922.0,159449.0,11073.0,7.472069145995192
63110.46877179872,185920.0,159454.0,11050.0,7.482071915939741
63110.478774568655,185949.0,159449.0,11062.0,7.492074685877014
63110.4887773386,185914.0,159428.0,11050.0,7.5020774558215635
63110.49878010854,185909.0,159426.0,11008.0,7.512080225758837
63110.50878287848,185896.0,159412.0,11050.0,7.522082995703386
63110.518785648426,185887.0,159424.0,11025.0,7.532085765647935
63110.52878841836,185919.0,159422.0,11049.0,7.542088535585208
63110.53879118831,185931.0,159419.0,11049.0,7.552091305529757
63110.548793958245,185911.0,159438.0,11011.0,7.56209407546703
63110.55879672819,185904.0,159450.0,11045.0,7.572096845411579
63110.56879949813,185918.0,159419.0,11018.0,7.582099615348852
63110.57880226807,185925.0,159415.0,11028.0,7.592102385293401
63110.58880503801,185909.0,159397.0,11003.0,7.602105155230674
63110.59880780795,185908.0,159395.0,11012.0,7.6121079251752235
63110.60881057789,185911.0,159437.0,11009.0,7.622110695112497
63110.618813347835,185920.0,159449.0,11030.0,7.632113465057046
63110.62881611777,185879.0,159425.0,11002.0,7.642116234994319
63110.63881888772,185936.0,159441.0,11044.0,7.652119004938868
63110.648821657654,185915.0,159429.0,11018.0,7.662121774876141
63110.6588244276,185918.0,159438.0,11020.0,7.67212454482069
63110.668827197536,185901.0,159415.0,10997.0,7.682127314757963
63110.67882996748,185926.0,159424.0,11019.0,7.692130084702512
63110.68883273742,185935.0,159423.0,11026.0,7.702132854639785
63110.69883550736,185960.0,159439.0,11026.0,7.712135624584334
63110.70883827731,185913.0,159433.0,11011.0,7.7221383945288835
63110.718841047244,185966.0,159468.0,11068.0,7.732141164466157
63110.72884381719,185975.0,159440.0,11047.0,7.742143934410706
63110.738846587126,185945.0,159449.0,11046.0,7.752146704347979
63110.74884935707,185992.0,159454.0,11075.0,7.762149474292528
63110.75885212701,185991.0,159469.0,11042.0,7.772152244229801
63110.76885489695,185980.0,159454.0,11058.0,7.78215501417435
63110.77885766689,185970.0,159457.0,11096.0,7.792157784111623
63110.788860436835,185988.0,159446.0,11058.0,7.802160554056172
63110.79886320677,186010.0,159438.0,11083.0,7.812163323993445
63110.808865976716,185995.0,159447.0,11082.0,7.8221660939379944
63110.81886874665,185954.0,159426.0,11062.0,7.832168863875268
63110.8288715166,185980.0,159447.0,11097.0,7.842171633819817
63110.838874286535,186012.0,159488.0,11107.0,7.85217440375709
63110.84887705648,186008.0,159476.0,11093.0,7.862177173701639
63110.85887982642,185993.0,159446.0,11079.0,7.872179943638912
63110.86888259636,186030.0,159468.0,11090.0,7.882182713583461
63110.8788853663,186026.0,159461.0,11102.0,7.892185483520734
63110.88888813624,186035.0,159474.0,11111.0,7.902188253465283
63110.89889090619,186017.0,159442.0,11099.0,7.912191023409832
63110.908893676125,186070.0,159465.0,11140.0,7.922193793347105
63110.91889644607,186014.0,159462.0,11118.0,7.9321965632916545
63110.92889921601,186042.0,159478.0,11114.0,7.942199333228928
63110.93890198595,186035.0,159504.0,11142.0,7.952202103173477
63110.94890475589,186010.0,159468.0,11116.0,7.96220487311075
63110.95890752583,186043.0,159467.0,11128.0,7.972207643055299
63110.96891029577,186059.0,159484.0,11140.0,7.982210412992572
63110.978913065715,186069.0,159496.0,11153.0,7.992213182937121
63110.98891583565,186040.0,159486.0,11168.0,8.002215952874394
63110.9989186056,186020.0,159480.0,11137.0,8.012218722818943
63111.008921375535,186002.0,159463.0,11125.0,8.022221492756216
63111.01892414548,185984.0,159433.0,11100.0,8.032224262700765
63111.02892691542,185932.0,159403.0,11063.0,8.042227032638039
63111.03892968536,185903.0,159409.0,11062.0,8.052229802582588
63111.0489324553,185911.0,159420.0,11023.0,8.06223257251986
63111.05893522524,185887.0,159428.0,11038.0,8.07223534246441
63111.06893799518,185874.0,159393.0,10970.0,8.082238112401683
63111.078940765125,185862.0,159400.0,10939.0,8.092240882346232
63111.08894353506,185837.0,159375.0,10958.0,8.102243652283505
63111.09894630501,185829.0,159399.0,10933.0,8.112246422228054
63111.10894907495,185835.0,159362.0,10911.0,8.122249192172603
63111.11895184489,185842.0,159384.0,10927.0,8.132251962109876
63111.12895461483,185796.0,159374.0,10882.0,8.142254732054425
63111.13895738477,185805.0,159342.0,10889.0,8.152257501991699
63111.148960154715,185807.0,159373.0,10888.0,8.162260271936248
63111.15896292465,185854.0,159399.0,10907.0,8.17226304187352
63111.1689656946,185799.0,159379.0,10855.0,8.18226581181807
63111.178968464534,185823.0,159351.0,10884.0,8.192268581755343
63111.18897123448,185840.0,159384.0,10873.0,8.202271351699892
63111.198974004416,185808.0,159344.0,10872.0,8.212274121637165
63111.20897677436,185817.0,159360.0,10866.0,8.222276891581714
63111.2189795443,185830.0,159364.0,10877.0,8.232279661518987
63111.22898231424,185851.0,159408.0,10868.0,8.242282431463536
63111.23898508418,185850.0,159352.0,10871.0,8.25228520140081
63111.248987854124,185869.0,159379.0,10916.0,8.262287971345359
63111.25899062406,185864.0,159376.0,10880.0,8.272290741282632
63111.268993394006,185847.0,159417.0,10879.0,8.28229351122718
63111.27899616394,185826.0,159376.0,10854.0,8.292296281164454
63111.28899893389,185839.0,159377.0,10867.0,8.302299051109003
63111.29900170383,185859.0,159369.0,10866.0,8.312301821053552
63111.30900447377,185850.0,159391.0,10900.0,8.322304590990825
63111.319007243714,185850.0,159368.0,10865.0,8.332307360935374
63111.32901001365,185860.0,159384.0,10877.0,8.342310130872647
63111.339012783596,185835.0,159366.0,10866.0,8.352312900817196
63111.34901555353,185817.0,159335.0,10840.0,8.36231567075447
63111.35901832348,185809.0,159332.0,10864.0,8.372318440699019
63111.369021093415,185819.0,159355.0,10831.0,8.382321210636292
63111.37902386336,185841.0,159367.0,10852.0,8.39232398058084
63111.3890266333,185846.0,159363.0,10836.0,8.402326750518114
63111.39902940324,185842.0,159360.0,10846.0,8.412329520462663
63111.40903217318,185861.0,159369.0,10881.0,8.422332290399936
63111.41903494312,185861.0,159365.0,10853.0,8.432335060344485
63111.42903771306,185849.0,159369.0,10847.0,8.442337830281758
63111.439040483005,185848.0,159350.0,10847.0,8.452340600226307
63111.44904325294,185854.0,159332.0,10855.0,8.46234337016358
63111.45904602289,185863.0,159354.0,10868.0,8.47234614010813
63111.469048792824,185874.0,159358.0,10883.0,8.482348910045403
63111.47905156277,185873.0,159404.0,10881.0,8.492351679989952
63111.48905433271,185916.0,159356.0,10889.0,8.5023544499345
63111.49905710265,185895.0,159394.0,10891.0,8.512357219871774
63111.509059872595,185910.0,159418.0,10876.0,8.522359989816323
63111.51906264253,185907.0,159373.0,10918.0,8.532362759753596
63111.52906541248,185886.0,159370.0,10924.0,8.542365529698145
63111.539068182414,185923.0,159400.0,10904.0,8.552368299635418
63111.54907095236,185909.0,159417.0,10916.0,8.562371069579967
63111.559073722296,185948.0,159430.0,10948.0,8.57237383951724
63111.56907649224,185921.0,159409.0,10936.0,8.58237660946179
63111.57907926218,185955.0,159406.0,10929.0,8.592379379399063
63111.58908203212,185923.0,159401.0,10934.0,8.602382149343612
63111.59908480206,185921.0,159380.0,10918.0,8.612384919280885
63111.609087572004,185952.0,159373.0,10958.0,8.622387689225434
63111.61909034194,185966.0,159414.0,10951.0,8.632390459162707
63111.629093111886,185977.0,159433.0,10974.0,8.642393229107256
63111.63909588182,185988.0,159442.0,10981.0,8.65239599904453
63111.64909865177,185953.0,159432.0,10978.0,8.662398768989078
63111.659101421705,185982.0,159425.0,10968.0,8.672401538926351
63111.66910419165,185977.0,159454.0,10983.0,8.6824043088709
63111.67910696159,185963.0,159394.0,10955.0,8.692407078808174
63111.68910973153,186012.0,159419.0,10974.0,8.702409848752723
63111.699112501476,186011.0,159440.0,10990.0,8.712412618697272
63111.70911527141,186038.0,159436.0,11015.0,8.722415388634545
63111.71911804136,186050.0,159436.0,10989.0,8.732418158579094
63111.729120811295,186008.0,159392.0,11006.0,8.742420928516367
63111.73912358124,185980.0,159434.0,10999.0,8.752423698460916
63111.74912635118,185955.0,159398.0,10967.0,8.76242646839819
63111.75912912112,185975.0,159440.0,10989.0,8.772429238342738
63111.76913189106,185940.0,159405.0,10949.0,8.782432008280011
63111.779134661,185899.0,159395.0,10933.0,8.79243477822456
63111.78913743094,185849.0,159358.0,10883.0,8.802437548161834
63111.799140200885,185832.0,159391.0,10876.0,8.812440318106383
63111.80914297082,185839.0,159356.0,10862.0,8.822443088043656
63111.81914574077,185809.0,159341.0,10821.0,8.832445857988205
63111.829148510704,185759.0,159310.0,10781.0,8.842448627925478
63111.83915128065,185767.0,159334.0,10752.0,8.852451397870027
63111.849154050586,185726.0,159299.0,10773.0,8.8624541678073
63111.85915682053,185733.0,159330.0,10767.0,8.87245693775185
63111.86915959047,185733.0,159295.0,10724.0,8.882459707689122
63111.87916236041,185688.0,159302.0,10702.0,8.892462477633671
63111.88916513036,185775.0,159345.0,10707.0,8.90246524757822
63111.899167900294,185744.0,159319.0,10693.0,8.912468017515494
63111.90917067024,185746.0,159278.0,10737.0,8.922470787460043
63111.919173440176,185741.0,159331.0,10742.0,8.932473557397316
63111.92917621012,185759.0,159279.0,10719.0,8.942476327341865
63111.93917898006,185737.0,159320.0,10719.0,8.952479097279138
63111.94918175,185744.0,159324.0,10688.0,8.962481867223687
63111.95918451994,185725.0,159283.0,10690.0,8.97248463716096
63111.969187289884,185719.0,159288.0,10702.0,8.98248740710551
63111.97919005982,185756.0,159316.0,10730.0,8.992490177042782
63111.989192829766,185767.0,159337.0,10736.0,9.002492946987331
63111.9991955997,185766.0,159329.0,10732.0,9.012495716924604
63112.00919836965,185743.0,159313.0,10678.0,9.022498486869154
63112.019201139585,185781.0,159319.0,10714.0,9.032501256806427
63112.02920390953,185756.0,159332.0,10713.0,9.042504026750976
63112.03920667947,185749.0,159324.0,10716.0,9.052506796688249
63112.04920944941,185773.0,159286.0,10727.0,9.062509566632798
63112.05921221935,185746.0,159301.0,10696.0,9.072512336570071
63112.06921498929,185760.0,159325.0,10718.0,9.08251510651462
63112.07921775924,185735.0,159290.0,10707.0,9.09251787645917
63112.089220529175,185785.0,159325.0,10713.0,9.102520646396442
63112.09922329912,185768.0,159334.0,10689.0,9.112523416340991
63112.10922606906,185765.0,159316.0,10694.0,9.122526186278265
63112.119228839,185768.0,159322.0,10718.0,9.132528956222814
63112.12923160894,185763.0,159316.0,10716.0,9.142531726160087
63112.13923437888,185719.0,159282.0,10676.0,9.152534496104636
63112.14923714882,185759.0,159311.0,10711.0,9.162537266041909
63112.159239918765,185742.0,159329.0,10707.0,9.172540035986458
63112.1692426887,185794.0,159325.0,10725.0,9.182542805923731
63112.17924545865,185779.0,159339.0,10731.0,9.19254557586828
63112.189248228584,185784.0,159315.0,10713.0,9.202548345805553
63112.19925099853,185763.0,159341.0,10728.0,9.212551115750102
63112.209253768466,185810.0,159354.0,10713.0,9.222553885687375
63112.21925653841,185787.0,159307.0,10712.0,9.232556655631925
63112.22925930835,185810.0,159338.0,10730.0,9.242559425569198
63112.23926207829,185790.0,159331.0,10717.0,9.252562195513747
63112.24926484823,185796.0,159317.0,10753.0,9.26256496545102
63112.259267618174,185865.0,159377.0,10804.0,9.272567735395569
63112.26927038812,185835.0,159351.0,10755.0,9.282570505340118
63112.279273158056,185863.0,159357.0,10780.0,9.292573275277391
63112.289275928,185870.0,159366.0,10756.0,9.30257604522194
63112.29927869794,185844.0,159343.0,10765.0,9.312578815159213
63112.30928146788,185850.0,159366.0,10783.0,9.322581585103762
63112.31928423782,185907.0,159382.0,10783.0,9.332584355041035
63112.329287007764,185837.0,159368.0,10774.0,9.342587124985585
63112.3392897777,185861.0,159352.0,10793.0,9.352589894922858
63112.349292547646,185890.0,159390.0,10806.0,9.362592664867407
63112.35929531758,185878.0,159381.0,10819.0,9.37259543480468
63112.36929808753,185896.0,159407.0,10805.0,9.382598204749229
63112.379300857465,185885.0,159397.0,10819.0,9.392600974686502
63112.38930362741,185879.0,159379.0,10872.0,9.402603744631051
63112.39930639735,185898.0,159370.0,10817.0,9.412606514568324
63112.40930916729,185906.0,159395.0,10828.0,9.422609284512873
63112.41931193723,185953.0,159440.0,10850.0,9.432612054450146
63112.42931470717,185947.0,159434.0,10863.0,9.442614824394695
63112.43931747711,185951.0,159408.0,10868.0,9.452617594331969
63112.449320247055,185970.0,159441.0,10895.0,9.462620364276518
63112.45932301699,185937.0,159394.0,10885.0,9.47262313421379
63112.46932578694,185955.0,159419.0,10892.0,9.48262590415834
63112.47932855688,185936.0,159425.0,10873.0,9.492628674102889
63112.48933132682,185957.0,159442.0,10903.0,9.502631444040162
63112.49933409676,185941.0,159420.0,10881.0,9.512634213984711
63112.5093368667,185892.0,159400.0,10862.0,9.522636983921984
63112.519339636645,185836.0,159389.0,10838.0,9.532639753866533
63112.52934240658,185849.0,159406.0,10814.0,9.542642523803806
63112.53934517653,185784.0,159356.0,10773.0,9.552645293748355
63112.549347946464,185771.0,159347.0,10760.0,9.562648063685629
63112.55935071641,185784.0,159331.0,10760.0,9.572650833630178
63112.569353486346,185730.0,159332.0,10705.0,9.58265360356745
63112.57935625629,185729.0,159341.0,10696.0,9.592656373512
63112.58935902623,185714.0,159312.0,10678.0,9.602659143449273
63112.59936179617,185689.0,159304.0,10645.0,9.612661913393822
63112.60936456611,185696.0,159278.0,10666.0,9.622664683331095
63112.619367336054,185680.0,159287.0,10606.0,9.632667453275644
63112.62937010599,185690.0,159300.0,10619.0,9.642670223212917
63112.639372875936,185690.0,159330.0,10634.0,9.652672993157466
63112.64937564587,185685.0,159311.0,10622.0,9.66267576309474
63112.65937841582,185647.0,159308.0,10632.0,9.672678533039289
63112.66938118576,185653.0,159286.0,10608.0,9.682681302983838
63112.6793839557,185655.0,159329.0,10611.0,9.69268407292111
63112.689386725644,185621.0,159301.0,10583.0,9.70268684286566
63112.69938949558,185652.0,159302.0,10585.0,9.712689612802933
63112.709392265526,185660.0,159302.0,10600.0,9.722692382747482
63112.71939503546,185679.0,159282.0,10599.0,9.732695152684755
63112.72939780541,185657.0,159277.0,10587.0,9.742697922629304
63112.739400575345,185676.0,159319.0,10620.0,9.752700692566577
63112.74940334529,185684.0,159321.0,10603.0,9.762703462511126
63112.75940611523,185658.0,159309.0,10589.0,9.7727062324484
63112.76940888517,185688.0,159317.0,10625.0,9.782709002392949
63112.77941165511,185697.0,159308.0,10589.0,9.792711772330222
63112.78941442505,185709.0,159313.0,10630.0,9.80271454227477
63112.79941719499,185702.0,159320.0,10604.0,9.812717312212044
63112.809419964935,185681.0,159303.0,10610.0,9.822720082156593
63112.81942273487,185693.0,159284.0,10633.0,9.832722852093866
63112.82942550482,185685.0,159307.0,10607.0,9.842725622038415
63112.839428274754,185695.0,159307.0,10615.0,9.852728391975688
63112.8494310447,185658.0,159309.0,10589.0,9.862731161920237
63112.85943381464,185688.0,159317.0,10625.0,9.872733931864786
63112.86943658458,185697.0,159308.0,10589.0,9.88273670180206
63112.879439354525,185709.0,159313.0,10630.0,9.892739471746609
63112.88944212446,185702.0,159320.0,10604.0,9.902742241683882
63112.89944489441,185681.0,159303.0,10610.0,9.91274501162843
63112.909447664344,185693.0,159284.0,10633.0,9.922747781565704
63112.91945043429,185685.0,159307.0,10607.0,9.932750551510253
63112.929453204226,185695.0,159307.0,10615.0,9.942753321447526
63112.93945597417,185669.0,159288.0,10618.0,9.952756091392075
63112.94945874411,185653.0,159308.0,10607.0,9.962758861329348
63112.95946151405,185652.0,159298.0,10590.0,9.972761631273897
63112.96946428399,185670.0,159308.0,10601.0,9.98276440121117
63112.979467053934,185715.0,159322.0,10593.0,9.99276717115572
63112.98946982387,185658.0,159317.0,10584.0,10.002769941092993
63112.999472593816,185698.0,159297.0,10622.0,10.012772711037542
63113.00947536375,185724.0,159325.0,10655.0,10.022775480974815
63113.0194781337,185712.0,159287.0,10631.0,10.032778250919364
63113.029480903635,185714.0,159289.0,10625.0,10.042781020856637
63113.03948367358,185686.0,159337.0,10644.0,10.052783790801186
63113.049486443524,185734.0,159329.0,10646.0,10.062786560745735
63113.05948921346,185714.0,159355.0,10656.0,10.072789330683008
63113.069491983406,185715.0,159316.0,10657.0,10.082792100627557
63113.07949475334,185764.0,159358.0,10643.0,10.09279487056483
63113.08949752329,185755.0,159336.0,10673.0,10.10279764050938
63113.099500293225,185754.0,159353.0,10660.0,10.112800410446653
63113.10950306317,185756.0,159343.0,10695.0,10.122803180391202
63113.11950583311,185786.0,159334.0,10687.0,10.132805950328475
63113.12950860305,185789.0,159362.0,10708.0,10.142808720273024
63113.13951137299,185789.0,159366.0,10707.0,10.152811490210297
63113.14951414293,185755.0,159339.0,10720.0,10.162814260154846
63113.15951691287,185818.0,159378.0,10746.0,10.17281703009212
63113.169519682815,185802.0,159371.0,10727.0,10.182819800036668
63113.17952245275,185811.0,159362.0,10732.0,10.192822569973941
63113.1895252227,185866.0,159386.0,10736.0,10.20282533991849
63113.199527992634,185832.0,159367.0,10776.0,10.212828109855764
63113.20953076258,185826.0,159377.0,10764.0,10.222830879800313
63113.219533532516,185846.0,159397.0,10764.0,10.232833649737586
63113.22953630246,185854.0,159384.0,10790.0,10.242836419682135
63113.2395390724,185871.0,159403.0,10778.0,10.252839189619408
63113.24954184234,185876.0,159394.0,10792.0,10.262841959563957
63113.25954461229,185830.0,159403.0,10809.0,10.272844729508506
63113.269547382224,185878.0,159430.0,10813.0,10.28284749944578
63113.27955015217,185860.0,159418.0,10808.0,10.292850269390328
63113.289552922106,185891.0,159416.0,10817.0,10.302853039327601
63113.29955569205,185929.0,159436.0,10811.0,10.31285580927215
63113.30955846199,185889.0,159412.0,10857.0,10.322858579209424
63113.31956123193,185920.0,159443.0,10842.0,10.332861349153973
63113.32956400187,185931.0,159430.0,10850.0,10.342864119091246
63113.339566771814,185917.0,159410.0,10861.0,10.352866889035795
63113.34956954175,185914.0,159412.0,10861.0,10.362869658973068
63113.359572311696,185894.0,159405.0,10869.0,10.372872428917617
63113.36957508163,185891.0,159435.0,10846.0,10.38287519885489
63113.37957785158,185844.0,159439.0,10825.0,10.39287796879944
63113.389580621515,185823.0,159404.0,10802.0,10.402880738736712
63113.39958339146,185846.0,159420.0,10778.0,10.412883508681261
63113.4095861614,185803.0,159365.0,10795.0,10.422886278618535
63113.41958893134,185737.0,159342.0,10753.0,10.432889048563084
63113.42959170128,185730.0,159369.0,10727.0,10.442891818500357
63113.43959447122,185704.0,159326.0,10703.0,10.452894588444906
63113.44959724117,185718.0,159347.0,10687.0,10.462897358389455
63113.459600011105,185684.0,159312.0,10670.0,10.472900128326728
63113.46960278105,185668.0,159336.0,10642.0,10.482902898271277
63113.47960555099,185696.0,159355.0,10658.0,10.49290566820855
63113.48960832093,185675.0,159319.0,10642.0,10.5029084381531
63113.49961109087,185627.0,159314.0,10602.0,10.512911208090372
63113.50961386081,185680.0,159318.0,10609.0,10.522913978034921
63113.51961663075,185653.0,159293.0,10605.0,10.532916747972195
63113.529619400695,185677.0,159332.0,10618.0,10.542919517916744
63113.53962217063,185680.0,159343.0,10651.0,10.552922287854017
63113.54962494058,185622.0,159295.0,10608.0,10.562925057798566
63113.559627710514,185676.0,159305.0,10610.0,10.572927827735839
63113.56963048046,185650.0,159316.0,10610.0,10.582930597680388
63113.579633250396,185633.0,159333.0,10607.0,10.592933367617661
63113.58963602034,185676.0,159353.0,10632.0,10.60293613756221
63113.59963879028,185620.0,159307.0,10602.0,10.612938907499483
63113.60964156022,185659.0,159323.0,10611.0,10.622941677444032
63113.61964433016,185673.0,159329.0,10590.0,10.632944447381306
63113.629647100104,185654.0,159301.0,10621.0,10.642947217325855
63113.63964987005,185664.0,159347.0,10641.0,10.652949987270404
63113.649652639986,185670.0,159333.0,10625.0,10.662952757207677
63113.65965540993,185631.0,159297.0,10623.0,10.672955527152226
63113.66965817987,185652.0,159284.0,10643.0,10.682958297089499
63113.67966094981,185638.0,159287.0,10606.0,10.692961067034048
63113.68966371975,185672.0,159330.0,10649.0,10.702963836971321
63113.699666489694,185659.0,159341.0,10628.0,10.71296660691587
63113.70966925963,185662.0,159314.0,10627.0,10.722969376853143
63113.719672029576,185695.0,159338.0,10624.0,10.732972146797692
63113.72967479951,185686.0,159332.0,10634.0,10.742974916734966
63113.73967756946,185685.0,159305.0,10652.0,10.752977686679515
63113.749680339395,185684.0,159354.0,10647.0,10.762980456616788
63113.75968310934,185668.0,159314.0,10634.0,10.772983226561337
63113.76968587928,185697.0,159340.0,10645.0,10.78298599649861
63113.77968864922,185694.0,159351.0,10641.0,10.792988766443159
63113.78969141916,185676.0,159338.0,10659.0,10.802991536380432
63113.7996941891,185715.0,159375.0,10681.0,10.812994306324981
63113.80969695904,185699.0,159355.0,10660.0,10.822997076262254
63113.819699728985,185722.0,159341.0,10676.0,10.832999846206803
63113.82970249893,185716.0,159345.0,10651.0,10.843002616151352
63113.83970526887,185727.0,159343.0,10672.0,10.853005386088626
63113.84970803881,185753.0,159372.0,10711.0,10.863008156033175
63113.85971080875,185758.0,159389.0,10704.0,10.873010925970448
63113.86971357869,185775.0,159372.0,10705.0,10.883013695914997
63113.87971634863,185784.0,159389.0,10733.0,10.89301646585227
63113.889719118575,185769.0,159365.0,10715.0,10.903019235796819
63113.89972188851,185793.0,159385.0,10732.0,10.913022005734092
63113.90972465846,185789.0,159418.0,10727.0,10.923024775678641
63113.919727428394,185765.0,159369.0,10733.0,10.933027545615914
63113.92973019834,185845.0,159439.0,10768.0,10.943030315560463
63113.939732968276,185841.0,159404.0,10801.0,10.953033085497736
63113.94973573822,185805.0,159414.0,10826.0,10.963035855442286
63113.95973850816,185832.0,159426.0,10786.0,10.973038625379559
63113.9697412781,185839.0,159419.0,10776.0,10.983041395324108
63113.97974404804,185857.0,159431.0,10809.0,10.99304416526138
63113.989746817984,185877.0,159433.0,10805.0,11.00304693520593
63113.99974958792,185860.0,159426.0,10807.0,11.013049705143203
63114.009752357866,185851.0,159456.0,10827.0,11.023052475087752
63114.0197551278,185883.0,159434.0,10836.0,11.033055245025025
63114.02975789775,185924.0,159467.0,10835.0,11.043058014969574
63114.03976066769,185920.0,159467.0,10837.0,11.053060784914123
63114.04976343763,185892.0,159425.0,10857.0,11.063063554851396
63114.059766207574,185918.0,159456.0,10863.0,11.073066324795946
63114.06976897751,185912.0,159432.0,10882.0,11.083069094733219
63114.079771747456,185911.0,159458.0,10877.0,11.093071864677768
63114.08977451739,185950.0,159485.0,10930.0,11.10307463461504
63114.09977728734,185948.0,159488.0,10901.0,11.11307740455959
63114.109780057275,185956.0,159475.0,10914.0,11.123080174496863
63114.11978282722,185951.0,159493.0,10902.0,11.133082944441412
63114.12978559716,186004.0,159510.0,10957.0,11.143085714378685
63114.1397883671,185980.0,159499.0,10939.0,11.153088484323234
63114.14979113704,185992.0,159495.0,10926.0,11.163091254260507
63114.15979390698,185972.0,159500.0,10965.0,11.173094024205056
63114.16979667692,185994.0,159520.0,10964.0,11.18309679414233
63114.179799446865,186011.0,159517.0,10963.0,11.193099564086879
63114.1898022168,186035.0,159525.0,10981.0,11.203102334024152
63114.19980498675,185951.0,159497.0,10956.0,11.2131051039687
63114.209807756684,185981.0,159529.0,10989.0,11.223107873905974
63114.21981052663,185942.0,159494.0,10958.0,11.233110643850523
63114.22981329657,185900.0,159482.0,10933.0,11.243113413795072
63114.23981606651,185881.0,159458.0,10913.0,11.253116183732345
63114.249818836455,185891.0,159489.0,10909.0,11.263118953676894
63114.25982160639,185838.0,159452.0,10877.0,11.273121723614167
63114.26982437634,185809.0,159417.0,10881.0,11.283124493558716
63114.279827146274,185795.0,159446.0,10840.0,11.29312726349599
63114.28982991622,185771.0,159395.0,10805.0,11.303130033440539
63114.299832686156,185777.0,159424.0,10808.0,11.313132803377812
63114.3098354561,185759.0,159419.0,10790.0,11.32313557332236
63114.31983822604,185758.0,159422.0,10783.0,11.333138343259634
63114.32984099598,185754.0,159415.0,10780.0,11.343141113204183
63114.33984376592,185742.0,159436.0,10773.0,11.353143883141456
63114.349846535864,185703.0,159394.0,10738.0,11.363146653086005
63114.3598493058,185743.0,159410.0,10745.0,11.373149423023278
63114.369852075746,185726.0,159379.0,10744.0,11.383152192967827
63114.37985484568,185732.0,159405.0,10748.0,11.3931549629051
63114.38985761563,185732.0,159390.0,10759.0,11.40315773284965
63114.399860385565,185727.0,159363.0,10745.0,11.413160502786923
63114.40986315551,185742.0,159402.0,10755.0,11.423163272731472
63114.419865925454,185717.0,159392.0,10741.0,11.43316604267602
63114.42986869539,185696.0,159379.0,10734.0,11.443168812613294
63114.439871465336,185746.0,159378.0,10748.0,11.453171582557843
63114.44987423527,185699.0,159362.0,10719.0,11.463174352495116
63114.45987700522,185735.0,159385.0,10735.0,11.473177122439665
63114.469879775155,185790.0,159358.0,10743.0,11.483179892376938
63114.4798825451,185730.0,159366.0,10732.0,11.493182662321487
63114.48988531504,185751.0,159411.0,10778.0,11.50318543225876
63114.49988808498,185756.0,159387.0,10758.0,11.51318820220331
63114.50989085492,185734.0,159357.0,10746.0,11.523190972140583
63114.51989362486,185742.0,159382.0,10750.0,11.533193742085132
63114.5298963948,185725.0,159355.0,10734.0,11.543196512022405
63114.539899164745,185754.0,159398.0,10760.0,11.553199281966954
63114.54990193468,185756.0,159368.0,10768.0,11.563202051904227
63114.55990470463,185728.0,159371.0,10745.0,11.573204821848776
63114.569907474564,185790.0,159410.0,10760.0,11.58320759178605
63114.57991024451,185770.0,159379.0,10747.0,11.593210361730598
63114.589913014446,185739.0,159398.0,10779.0,11.603213131667871
63114.59991578439,185763.0,159390.0,10814.0,11.61321590161242
63114.60991855433,185762.0,159395.0,10759.0,11.623218671549694
63114.61992132427,185775.0,159391.0,10809.0,11.633221441494243
63114.62992409422,185770.0,159412.0,10789.0,11.643224211438792
63114.639926864154,185798.0,159429.0,10788.0,11.653226981376065
63114.6499296341,185816.0,159428.0,10820.0,11.663229751320614
63114.659932404036,185766.0,159404.0,10788.0,11.673232521257887
63114.66993517398,185803.0,159410.0,10810.0,11.683235291202436
63114.67993794392,185812.0,159448.0,10834.0,11.69323806113971
63114.68994071386,185814.0,159398.0,10803.0,11.703240831084258
63114.6999434838,185845.0,159436.0,10845.0,11.713243601021532
63114.709946253744,185837.0,159445.0,10832.0,11.72324637096608
63114.71994902368,185874.0,159417.0,10843.0,11.733249140903354
63114.729951793626,185869.0,159454.0,10857.0,11.743251910847903
63114.73995456356,185861.0,159429.0,10873.0,11.753254680785176
63114.74995733351,185867.0,159478.0,10865.0,11.763257450729725
63114.759960103445,185890.0,159481.0,10870.0,11.773260220666998
63114.76996287339,185870.0,159452.0,10875.0,11.783262990611547
63114.77996564333,185918.0,159490.0,10911.0,11.79326576054882
63114.78996841327,185920.0,159481.0,10892.0,11.80326853049337
63114.79997118321,185907.0,159477.0,10893.0,11.813271300430642
63114.80997395315,185916.0,159458.0,10930.0,11.823274070375192
63114.8199767231,185934.0,159479.0,10896.0,11.83327684031974
63114.829979493035,185940.0,159494.0,10938.0,11.843279610257014
63114.83998226298,185928.0,159464.0,10958.0,11.853282380201563
63114.84998503292,185942.0,159482.0,10933.0,11.863285150138836
63114.85998780286,185975.0,159519.0,10973.0,11.873287920083385
63114.8699905728,185938.0,159477.0,10943.0,11.883290690020658
63114.87999334274,185936.0,159493.0,10936.0,11.893293459965207
63114.88999611268,185982.0,159532.0,10951.0,11.90329622990248
63114.899998882625,186009.0,159522.0,11008.0,11.91329899984703
63114.91000165256,186002.0,159516.0,10981.0,11.923301769784302
63114.92000442251,186008.0,159513.0,11018.0,11.933304539728852
63114.930007192444,185994.0,159514.0,10992.0,11.943307309666125
63114.94000996239,185992.0,159498.0,11028.0,11.953310079610674
63114.950012732326,186008.0,159535.0,11021.0,11.963312849547947
63114.96001550227,185992.0,159529.0,11045.0,11.973315619492496
63114.97001827221,186046.0,159562.0,11071.0,11.983318389429769
63114.98002104215,186021.0,159520.0,11051.0,11.993321159374318
63114.99002381209,186046.0,159540.0,11055.0,12.003323929311591
63115.000026582034,186090.0,159549.0,11064.0,12.01332669925614
63115.01002935198,186027.0,159549.0,11043.0,12.02332946920069
63115.020032121916,186035.0,159547.0,11072.0,12.033332239137962
63115.03003489186,186082.0,159574.0,11083.0,12.043335009082512
63115.0400376618,186069.0,159542.0,11084.0,12.053337779019785
63115.05004043174,186083.0,159554.0,11103.0,12.063340548964334
63115.06004320168,186097.0,159556.0,11115.0,12.073343318901607
63115.070045971624,186110.0,159584.0,11122.0,12.083346088846156
63115.08004874156,186130.0,159636.0,11127.0,12.093348858783429
63115.090051511506,186102.0,159567.0,11122.0,12.103351628727978
63115.10005428144,186080.0,159577.0,11112.0,12.113354398665251
63115.11005705139,186076.0,159575.0,11131.0,12.1233571686098
63115.120059821325,186015.0,159542.0,11120.0,12.133359938547073
63115.13006259127,185999.0,159536.0,11116.0,12.143362708491622
63115.14006536121,185971.0,159520.0,11084.0,12.153365478428896
63115.15006813115,185954.0,159510.0,11042.0,12.163368248373445
63115.16007090109,185916.0,159525.0,11050.0,12.173371018310718
63115.17007367103,185907.0,159494.0,11017.0,12.183373788255267
63115.18007644097,185880.0,159501.0,11002.0,12.19337655819254
63115.190079210915,185886.0,159490.0,10987.0,12.203379328137089
63115.20008198086,185868.0,159470.0,10941.0,12.213382098081638
63115.2100847508,185879.0,159480.0,10932.0,12.223384868018911
63115.22008752074,185857.0,159486.0,10939.0,12.23338763796346
63115.23009029068,185860.0,159477.0,10940.0,12.243390407900733
63115.24009306062,185863.0,159451.0,10943.0,12.253393177845282
63115.25009583056,185869.0,159487.0,10931.0,12.263395947782556
63115.260098600505,185861.0,159460.0,10928.0,12.273398717727105
63115.27010137044,185813.0,159439.0,10900.0,12.283401487664378
63115.28010414039,185800.0,159418.0,10897.0,12.293404257608927
63115.290106910325,185803.0,159460.0,10917.0,12.3034070275462
63115.30010968027,185825.0,159460.0,10902.0,12.313409797490749
63115.310112450206,185832.0,159449.0,10904.0,12.323412567428022
63115.32011522015,185826.0,159448.0,10884.0,12.333415337372571
63115.33011799009,185833.0,159462.0,10915.0,12.343418107309844
63115.34012076003,185848.0,159450.0,10905.0,12.353420877254393
63115.35012352997,185833.0,159449.0,10890.0,12.363423647191667
63115.360126299915,185833.0,159442.0,10892.0,12.373426417136216
63115.37012906985,185845.0,159429.0,10889.0,12.383429187073489
63115.3801318398,185816.0,159427.0,10908.0,12.393431957018038
63115.390134609734,185837.0,159443.0,10890.0,12.403434726955311
63115.40013737968,185778.0,159427.0,10879.0,12.41343749689986
63115.41014014962,185854.0,159434.0,10900.0,12.423440266844409
63115.42014291956,185870.0,159464.0,10883.0,12.433443036781682
63115.430145689505,185851.0,159462.0,10898.0,12.443445806726231
63115.44014845944,185827.0,159479.0,10886.0,12.453448576663504
63115.45015122939,185831.0,159438.0,10883.0,12.463451346608053
63115.460153999324,185876.0,159410.0,10906.0,12.473454116545327
63115.47015676927,185842.0,159450.0,10918.0,12.483456886489876
63115.480159539205,185844.0,159429.0,10905.0,12.493459656427149
63115.49016230915,185844.0,159457.0,10899.0,12.503462426371698
63115.50016507909,185828.0,159461.0,10901.0,12.513465196308971
63115.51016784903,185835.0,159449.0,10905.0,12.52346796625352
63115.52017061897,185862.0,159436.0,10908.0,12.533470736190793
63115.530173388914,185847.0,159433.0,10890.0,12.543473506135342
63115.54017615885,185863.0,159463.0,10914.0,12.553476276072615
63115.550178928796,185850.0,159459.0,10900.0,12.563479046017164
63115.56018169873,185878.0,159444.0,10927.0,12.573481815954437
63115.57018446868,185890.0,159428.0,10919.0,12.583484585898987
63115.580187238615,185897.0,159448.0,10944.0,12.59348735583626
63115.59019000856,185884.0,159455.0,10929.0,12.603490125780809
63115.600192778504,185923.0,159487.0,10952.0,12.613492895725358
63115.61019554844,185888.0,159477.0,10950.0,12.623495665662631
63115.620198318386,185903.0,159468.0,10939.0,12.63349843560718
63115.63020108832,185916.0,159464.0,10967.0,12.643501205544453
63115.64020385827,185943.0,159497.0,10988.0,12.653503975489002
63115.650206628205,185931.0,159481.0,10990.0,12.663506745426275
63115.66020939815,185936.0,159494.0,10973.0,12.673509515370824
63115.67021216809,185956.0,159472.0,10992.0,12.683512285308097
63115.68021493803,185981.0,159501.0,11004.0,12.693515055252647
63115.69021770797,185962.0,159509.0,11001.0,12.70351782518992
63115.70022047791,185951.0,159490.0,11029.0,12.713520595134469
63115.71022324785,185989.0,159551.0,11035.0,12.723523365071742
63115.720226017795,186002.0,159527.0,11038.0,12.733526135016291
63115.73022878773,186011.0,159526.0,11040.0,12.743528904953564
63115.74023155768,185988.0,159526.0,11016.0,12.753531674898113
63115.750234327614,186048.0,159558.0,11064.0,12.763534444835386
63115.76023709756,186034.0,159542.0,11062.0,12.773537214779935
63115.770239867496,186050.0,159559.0,11081.0,12.783539984717208
63115.78024263744,186034.0,159517.0,11074.0,12.793542754661757
63115.790245407385,186084.0,159562.0,11099.0,12.803545524606307
63115.80024817732,186075.0,159583.0,11091.0,12.81354829454358
63115.81025094727,186082.0,159552.0,11120.0,12.823551064488129
63115.820253717204,186033.0,159580.0,11114.0,12.833553834425402
63115.83025648715,186106.0,159583.0,11113.0,12.843556604369951
63115.840259257086,186096.0,159570.0,11114.0,12.853559374307224
63115.85026202703,186124.0,159616.0,11117.0,12.863562144251773
63115.86026479697,186075.0,159575.0,11105.0,12.873564914189046
63115.87026756691,186155.0,159620.0,11141.0,12.883567684133595
63115.88027033685,186126.0,159599.0,11142.0,12.893570454070868
63115.890273106794,186107.0,159569.0,11151.0,12.903573224015418
63115.90027587673,186152.0,159575.0,11172.0,12.91357599395269
63115.910278646676,186153.0,159607.0,11166.0,12.92357876389724
63115.92028141661,186157.0,159604.0,11185.0,12.933581533834513
63115.93028418656,186151.0,159626.0,11175.0,12.943584303779062
63115.940286956495,186151.0,159594.0,11180.0,12.953587073716335
63115.95028972644,186153.0,159581.0,11192.0,12.963589843660884
63115.96029249638,186195.0,159619.0,11206.0,12.973592613598157
63115.97029526632,186184.0,159616.0,11218.0,12.983595383542706
63115.98029803626,186217.0,159654.0,11231.0,12.99359815347998
63115.9903008062,186193.0,159613.0,11234.0,13.003600923424528
63116.00030357615,186201.0,159639.0,11226.0,13.013603693369078
63116.010306346085,186175.0,159642.0,11258.0,13.02360646330635
63116.02030911603,186106.0,159588.0,11217.0,13.0336092332509
63116.03031188597,186099.0,159627.0,11212.0,13.043612003188173
63116.04031465591,186103.0,159588.0,11196.0,13.053614773132722
63116.05031742585,186076.0,159558.0,11153.0,13.063617543069995
63116.06032019579,186051.0,159596.0,11117.0,13.073620313014544
63116.07032296573,186005.0,159537.0,11120.0,13.083623082951817
63116.080325735675,186000.0,159539.0,11117.0,13.093625852896366
63116.09032850561,186019.0,159526.0,11121.0,13.10362862283364
63116.10033127556,185957.0,159490.0,11093.0,13.113631392778188
63116.110334045494,185984.0,159541.0,11097.0,13.123634162715462
63116.12033681544,185956.0,159515.0,11053.0,13.13363693266001
63116.130339585376,185931.0,159478.0,11025.0,13.143639702597284
63116.14034235532,185957.0,159485.0,11062.0,13.153642472541833
63116.15034512526,185918.0,159481.0,11019.0,13.163645242479106
63116.1603478952,185925.0,159499.0,11024.0,13.173648012423655
63116.17035066514,185948.0,159530.0,11030.0,13.183650782360928
63116.180353435084,185912.0,159466.0,10988.0,13.193653552305477
63116.19035620503,185949.0,159508.0,11025.0,13.203656322250026
63116.200358974966,185897.0,159470.0,10988.0,13.2136590921873
63116.21036174491,185899.0,159466.0,10988.0,13.223661862131848
63116.22036451485,185918.0,159479.0,11000.0,13.233664632069122
63116.23036728479,185883.0,159461.0,10975.0,13.24366740201367
63116.24037005473,185922.0,159480.0,10989.0,13.253670171950944
63116.250372824674,185907.0,159483.0,10967.0,13.263672941895493
63116.26037559461,185877.0,159463.0,10962.0,13.273675711832766
63116.270378364556,185948.0,159499.0,10998.0,13.283678481777315
63116.28038113449,185918.0,159498.0,10961.0,13.293681251714588
63116.29038390444,185905.0,159488.0,10999.0,13.303684021659137
63116.300386674375,185935.0,159521.0,11004.0,13.31368679159641
63116.31038944432,185910.0,159486.0,10979.0,13.32368956154096
63116.32039221426,185921.0,159492.0,11008.0,13.333692331478233
63116.3303949842,185912.0,159489.0,10978.0,13.343695101422782
63116.34039775414,185922.0,159495.0,10977.0,13.353697871360055
63116.35040052408,185927.0,159492.0,11008.0,13.363700641304604
63116.36040329402,185921.0,159500.0,10994.0,13.373703411241877
63116.370406063965,185906.0,159465.0,11001.0,13.383706181186426
63116.38040883391,185952.0,159516.0,10997.0,13.393708951130975
63116.39041160385,185921.0,159502.0,10963.0,13.403711721068248
63116.40041437379,185947.0,159511.0,11016.0,13.413714491012797
63116.41041714373,185924.0,159517.0,11002.0,13.42371726095007
63116.42041991367,185939.0,159510.0,10980.0,13.43372003089462
63116.43042268361,185959.0,159524.0,11031.0,13.443722800831893
63116.440425453555,185955.0,159506.0,11002.0,13.453725570776442
63116.45042822349,185963.0,159520.0,11017.0,13.463728340713715
63116.46043099344,185960.0,159482.0,10994.0,13.473731110658264
63116.470433763374,185953.0,159510.0,11001.0,13.483733880595537
63116.48043653332,185982.0,159539.0,11056.0,13.493736650540086
63116.490439303256,185985.0,159530.0,11024.0,13.503739420477359
63116.5004420732,185972.0,159527.0,11034.0,13.513742190421908
63116.51044484314,186015.0,159541.0,11063.0,13.523744960359181
63116.52044761308,186003.0,159543.0,11041.0,13.53374773030373
63116.53045038302,186035.0,159550.0,11055.0,13.543750500241003
63116.540453152964,186026.0,159564.0,11087.0,13.553753270185553
63116.5504559229,186016.0,159558.0,11060.0,13.563756040122826
63116.560458692846,186039.0,159552.0,11076.0,13.573758810067375
63116.57046146279,186049.0,159568.0,11082.0,13.583761580011924
63116.58046423273,186053.0,159548.0,11082.0,13.593764349949197
63116.59046700267,186085.0,159591.0,11098.0,13.603767119893746
63116.60046977261,186007.0,159552.0,11069.0,13.613769889831019
63116.610472542554,186067.0,159570.0,11103.0,13.623772659775568
63116.62047531249,186075.0,159572.0,11102.0,13.633775429712841
63116.630478082436,186097.0,159593.0,11101.0,13.64377819965739
63116.64048085237,186090.0,159572.0,11138.0,13.653780969594663
63116.65048362232,186092.0,159598.0,11134.0,13.663783739539213
63116.660486392255,186099.0,159578.0,11128.0,13.673786509476486
63116.6704891622,186142.0,159626.0,11133.0,13.683789279421035
63116.68049193214,186121.0,159589.0,11145.0,13.693792049358308
63116.69049470208,186134.0,159616.0,11163.0,13.703794819302857
63116.70049747202,186158.0,159648.0,11194.0,13.71379758924013
63116.71050024196,186119.0,159621.0,11134.0,13.723800359184679
63116.7205030119,186183.0,159626.0,11194.0,13.733803129121952
63116.730505781845,186124.0,159617.0,11178.0,13.743805899066501
63116.74050855178,186166.0,159642.0,11173.0,13.753808669003774
63116.75051132173,186169.0,159621.0,11173.0,13.763811438948323
63116.760514091664,186214.0,159645.0,11211.0,13.773814208885597
63116.77051686161,186199.0,159646.0,11205.0,13.783816978830146
63116.78051963155,186222.0,159647.0,11234.0,13.793819748774695
63116.79052240149,186202.0,159623.0,11215.0,13.803822518711968
63116.800525171435,186208.0,159650.0,11245.0,13.813825288656517
63116.81052794137,186240.0,159663.0,11236.0,13.82382805859379
63116.82053071132,186228.0,159672.0,11241.0,13.83383082853834
63116.830533481254,186268.0,159670.0,11292.0,13.843833598475612
63116.8405362512,186259.0,159660.0,11255.0,13.853836368420161
63116.850539021136,186260.0,159687.0,11268.0,13.863839138357434
63116.86054179108,186254.0,159671.0,11285.0,13.873841908301983
63116.87054456102,186284.0,159689.0,11278.0,13.883844678239257
63116.88054733096,186286.0,159664.0,11294.0,13.893847448183806
63116.8905501009,186290.0,159686.0,11296.0,13.903850218121079
63116.900552870844,186269.0,159681.0,11279.0,13.913852988065628
63116.91055564078,186311.0,159667.0,11332.0,13.923855758002901
63116.920558410726,186310.0,159733.0,11319.0,13.93385852794745
63116.93056118066,186332.0,159703.0,11330.0,13.943861297884723
63116.94056395061,186360.0,159727.0,11360.0,13.953864067829272
63116.950566720545,186362.0,159727.0,11318.0,13.963866837766545
63116.96056949049,186304.0,159716.0,11359.0,13.973869607711094
63116.970572260434,186317.0,159702.0,11337.0,13.983872377655644
63116.98057503037,186281.0,159694.0,11324.0,13.993875147592917
63116.990577800316,186221.0,159638.0,11309.0,14.003877917537466
63117.00058057025,186200.0,159639.0,11289.0,14.013880687474739
63117.0105833402,186185.0,159630.0,11278.0,14.023883457419288
63117.020586110135,186201.0,159663.0,11269.0,14.033886227356561
63117.03058888008,186107.0,159632.0,11210.0,14.04388899730111
63117.04059165002,186141.0,159606.0,11221.0,14.053891767238383
63117.05059441996,186097.0,159612.0,11182.0,14.063894537182932
63117.0605971899,186108.0,159616.0,11153.0,14.073897307120205
63117.07059995984,186069.0,159570.0,11113.0,14.083900077064754
63117.08060272978,186064.0,159589.0,11131.0,14.093902847002028
63117.090605499725,186044.0,159588.0,11115.0,14.103905616946577
63117.10060826966,186064.0,159594.0,11107.0,14.11390838688385
63117.11061103961,186007.0,159551.0,11074.0,14.123911156828399
63117.120613809544,186004.0,159562.0,11088.0,14.133913926765672
63117.13061657949,185995.0,159549.0,11041.0,14.143916696710221
63117.140619349426,185981.0,159549.0,11050.0,14.153919466647494
63117.15062211937,186014.0,159534.0,11058.0,14.163922236592043
63117.160624889315,186025.0,159566.0,11024.0,14.173925006536592
63117.17062765925,185998.0,159555.0,11018.0,14.183927776473865
63117.1806304292,185965.0,159535.0,11039.0,14.193930546418414
63117.190633199134,185979.0,159538.0,11018.0,14.203933316355688
63117.20063596908,185978.0,159504.0,11001.0,14.213936086300237
63117.210638739016,185963.0,159538.0,10991.0,14.22393885623751
63117.22064150896,185954.0,159499.0,11006.0,14.233941626182059
63117.2306442789,185942.0,159512.0,10994.0,14.243944396119332
63117.24064704884,185987.0,159566.0,11017.0,14.253947166063881
63117.25064981878,185958.0,159546.0,10977.0,14.263949936001154
63117.260652588724,185970.0,159518.0,10993.0,14.273952705945703
63117.27065535866,186009.0,159560.0,10980.0,14.283955475882976
63117.280658128606,185955.0,159521.0,10988.0,14.293958245827525
63117.29066089854,186000.0,159536.0,10989.0,14.303961015764799
63117.30066366849,185985.0,159538.0,10988.0,14.313963785709348
63117.310666438425,185989.0,159521.0,10991.0,14.32396655564662
63117.32066920837,185979.0,159522.0,10973.0,14.33396932559117
63117.33067197831,185976.0,159536.0,10996.0,14.343972095528443
63117.34067474825,185995.0,159554.0,10979.0,14.353974865472992
63117.35067751819,185952.0,159549.0,10953.0,14.363977635410265
63117.36068028813,185973.0,159536.0,10974.0,14.373980405354814
63117.37068305808,185976.0,159548.0,10997.0,14.383983175299363
63117.380685828015,185982.0,159546.0,10982.0,14.393985945236636
63117.39068859796,185935.0,159517.0,11006.0,14.403988715181185
63117.4006913679,185986.0,159558.0,10987.0,14.413991485118459
63117.41069413784,186008.0,159528.0,10990.0,14.423994255063008
63117.42069690778,186007.0,159542.0,10993.0,14.43399702500028
63117.43069967772,185998.0,159564.0,11000.0,14.44399979494483
63117.44070244766,185998.0,159551.0,11011.0,14.454002564882103
63117.450705217605,186048.0,159576.0,11032.0,14.464005334826652
63117.46070798754,186022.0,159561.0,11006.0,14.474008104763925
63117.47071075749,186053.0,159558.0,10996.0,14.484010874708474
63117.480713527424,186058.0,159599.0,11013.0,14.494013644645747
63117.49071629737,186029.0,159567.0,11050.0,14.504016414590296
63117.500719067306,186056.0,159581.0,11024.0,14.51401918452757
63117.51072183725,186047.0,159576.0,11029.0,14.524021954472119
63117.52072460719,186083.0,159567.0,11046.0,14.534024724409392
63117.53072737713,186066.0,159554.0,11022.0,14.54402749435394
63117.54073014707,186065.0,159583.0,11052.0,14.554030264291214
63117.550732917014,186050.0,159580.0,11056.0,14.564033034235763
63117.56073568696,186106.0,159620.0,11074.0,14.574035804180312
63117.570738456896,186109.0,159586.0,11066.0,14.584038574117585
63117.58074122684,186102.0,159606.0,11066.0,14.594041344062134
63117.59074399678,186121.0,159608.0,11060.0,14.604044113999407
63117.60074676672,186093.0,159585.0,11071.0,14.614046883943956
63117.61074953666,186105.0,159613.0,11082.0,14.62404965388123
63117.620752306604,186128.0,159625.0,11093.0,14.634052423825779
63117.63075507654,186107.0,159611.0,11098.0,14.644055193763052
63117.640757846486,186143.0,159589.0,11096.0,14.6540579637076
63117.65076061642,186136.0,159624.0,11095.0,14.664060733644874
63117.66076338637,186109.0,159626.0,11089.0,14.674063503589423
63117.670766156305,186142.0,159652.0,11133.0,14.684066273526696
63117.68076892625,186171.0,159634.0,11130.0,14.694069043471245
63117.69077169619,186163.0,159642.0,11107.0,14.704071813408518
63117.70077446613,186161.0,159649.0,11139.0,14.714074583353067
63117.71077723607,186154.0,159653.0,11153.0,14.72407735329034
63117.72078000601,186186.0,159647.0,11152.0,14.73408012323489
63117.73078277595,186175.0,159622.0,11158.0,14.744082893172163
63117.740785545895,186189.0,159654.0,11159.0,14.754085663116712
63117.75078831584,186176.0,159633.0,11166.0,14.76408843306126
63117.76079108578,186198.0,159641.0,11161.0,14.774091202998534
63117.77079385572,186225.0,159680.0,11199.0,14.784093972943083
63117.78079662566,186217.0,159645.0,11182.0,14.794096742880356
63117.7907993956,186211.0,159655.0,11163.0,14.804099512824905
63117.80080216554,186229.0,159683.0,11183.0,14.814102282762178
63117.810804935485,186191.0,159638.0,11228.0,14.824105052706727
63117.82080770542,186230.0,159671.0,11202.0,14.834107822644
63117.83081047537,186248.0,159663.0,11243.0,14.84411059258855
63117.840813245304,186215.0,159641.0,11223.0,14.854113362525823
63117.85081601525,186258.0,159669.0,11220.0,14.864116132470372
63117.860818785186,186267.0,159667.0,11236.0,14.874118902407645
63117.87082155513,186223.0,159665.0,11222.0,14.884121672352194
63117.88082432507,186292.0,159690.0,11260.0,14.894124442289467
63117.89082709501,186252.0,159674.0,11244.0,14.904127212234016
63117.90082986495,186294.0,159681.0,11255.0,14.91412998217129
63117.910832634894,186319.0,159703.0,11263.0,14.924132752115838
63117.92083540483,186280.0,159667.0,11282.0,14.934135522053111
63117.930838174776,186299.0,159677.0,11298.0,14.94413829199766
63117.94084094472,186308.0,159687.0,11290.0,14.95414106194221
63117.95084371466,186311.0,159650.0,11286.0,14.964143831879483
63117.9608464846,186325.0,159704.0,11311.0,14.974146601824032
63117.97084925454,186292.0,159685.0,11303.0,14.984149371761305
63117.980852024484,186319.0,159693.0,11313.0,14.994152141705854
63117.99085479442,186318.0,159706.0,11328.0,15.004154911643127
63118.000857564366,186257.0,159670.0,11285.0,15.014157681587676
63118.0108603343,186272.0,159665.0,11262.0,15.02416045152495
63118.02086310425,186214.0,159659.0,11257.0,15.034163221469498
63118.030865874185,186185.0,159615.0,11263.0,15.044165991406771
63118.04086864413,186167.0,159631.0,11222.0,15.05416876135132
63118.05087141407,186104.0,159594.0,11189.0,15.064171531288594
63118.06087418401,186093.0,159613.0,11178.0,15.074174301233143
63118.07087695395,186050.0,159587.0,11128.0,15.084177071170416
63118.08087972389,186044.0,159596.0,11122.0,15.094179841114965
63118.09088249383,186035.0,159590.0,11094.0,15.104182611052238
63118.100885263775,186002.0,159573.0,11049.0,15.114185380996787
63118.11088803371,186024.0,159554.0,11046.0,15.12418815093406
63118.12089080366,185966.0,159555.0,11035.0,15.13419092087861
63118.130893573594,185993.0,159539.0,10993.0,15.144193690815882
63118.14089634354,185979.0,159531.0,11003.0,15.154196460760431
63118.15089911348,185982.0,159540.0,10992.0,15.16419923070498
63118.16090188342,185953.0,159539.0,10969.0,15.174202000642254
63118.170904653365,185986.0,159534.0,10970.0,15.184204770586803
63118.1809074233,185937.0,159503.0,10949.0,15.194207540524076
63118.19091019325,185925.0,159514.0,10942.0,15.204210310468625
63118.200912963184,185927.0,159515.0,10938.0,15.214213080405898
63118.21091573313,185881.0,159481.0,10907.0,15.224215850350447
63118.220918503066,185938.0,159522.0,10948.0,15.23421862028772
63118.23092127301,185928.0,159504.0,10919.0,15.24422139023227
63118.24092404295,185900.0,159489.0,10921.0,15.254224160169542
63118.25092681289,185948.0,159532.0,10926.0,15.264226930114091
63118.26092958283,185921.0,159502.0,10902.0,15.274229700051364
63118.270932352774,185925.0,159511.0,10901.0,15.284232469995914
63118.28093512271,185915.0,159483.0,10936.0,15.294235239933187
63118.290937892656,185889.0,159475.0,10892.0,15.304238009877736
63118.30094066259,185893.0,159486.0,10868.0,15.314240779815009
63118.31094343254,185916.0,159495.0,10892.0,15.324243549759558
63118.320946202475,185923.0,159490.0,10908.0,15.334246319696831
63118.33094897242,185933.0,159519.0,10877.0,15.34424908964138
63118.340951742364,185900.0,159479.0,10890.0,15.35425185958593
63118.3509545123,185920.0,159491.0,10874.0,15.364254629523202
63118.360957282246,185904.0,159501.0,10852.0,15.374257399467751
63118.37096005218,185901.0,159491.0,10877.0,15.384260169405024
63118.38096282213,185885.0,159476.0,10889.0,15.394262939349574
63118.390965592065,185912.0,159502.0,10884.0,15.404265709286847
63118.40096836201,185879.0,159469.0,10867.0,15.414268479231396
63118.41097113195,185907.0,159482.0,10854.0,15.424271249168669
63118.42097390189,185902.0,159466.0,10863.0,15.434274019113218
63118.43097667183,185909.0,159512.0,10874.0,15.444276789050491
63118.44097944177,185917.0,159505.0,10875.0,15.45427955899504
63118.45098221171,185912.0,159510.0,10868.0,15.464282328932313
63118.460984981655,185932.0,159466.0,10892.0,15.474285098876862
63118.47098775159,185918.0,159506.0,10884.0,15.484287868814135
63118.48099052154,185951.0,159482.0,10901.0,15.494290638758685
63118.490993291474,185952.0,159536.0,10919.0,15.504293408695958
63118.50099606142,185960.0,159530.0,10883.0,15.514296178640507
63118.510998831356,185946.0,159521.0,10907.0,15.52429894857778
63118.5210016013,185943.0,159503.0,10920.0,15.534301718522329
63118.531004371245,185973.0,159515.0,10943.0,15.544304488466878
63118.54100714118,185985.0,159560.0,10957.0,15.554307258404151
63118.55100991113,185967.0,159526.0,10930.0,15.5643100283487
63118.561012681064,185966.0,159537.0,10951.0,15.574312798285973
63118.57101545101,186003.0,159526.0,10964.0,15.584315568230522
63118.581018220946,185967.0,159531.0,10930.0,15.594318338167795
63118.59102099089,185977.0,159544.0,10963.0,15.604321108112345
63118.60102376083,185965.0,159537.0,10977.0,15.614323878049618
63118.61102653077,186005.0,159562.0,10969.0,15.624326647994167
63118.62102930071,185979.0,159549.0,10963.0,15.63432941793144
63118.631032070654,186010.0,159553.0,10976.0,15.644332187875989
63118.64103484059,186016.0,159541.0,10979.0,15.654334957813262
63118.651037610536,186037.0,159564.0,10980.0,15.664337727757811
63118.66104038047,186006.0,159554.0,10979.0,15.674340497695084
63118.67104315042,186023.0,159562.0,10996.0,15.684343267639633
63118.681045920355,186048.0,159563.0,11016.0,15.694346037576906
63118.6910486903,186032.0,159564.0,11005.0,15.704348807521455
63118.70105146024,186020.0,159578.0,10986.0,15.714351577458729
63118.71105423018,186056.0,159579.0,11030.0,15.724354347403278
63118.72105700012,186045.0,159606.0,11011.0,15.73435711734055
63118.73105977006,186038.0,159584.0,11027.0,15.7443598872851
63118.74106254001,186087.0,159597.0,11055.0,15.754362657229649
63118.751065309945,186081.0,159582.0,11051.0,15.764365427166922
63118.76106807989,186067.0,159570.0,11058.0,15.774368197111471
63118.77107084983,186066.0,159598.0,11043.0,15.784370967048744
63118.78107361977,186064.0,159571.0,11069.0,15.794373736993293
63118.79107638971,186101.0,159610.0,11072.0,15.804376506930566
63118.80107915965,186105.0,159581.0,11063.0,15.814379276875115
63118.81108192959,186076.0,159583.0,11063.0,15.824382046812389
63118.821084699535,186140.0,159629.0,11076.0,15.834384816756938
63118.83108746947,186117.0,159610.0,11098.0,15.84438758669421
63118.84109023942,186100.0,159630.0,11094.0,15.85439035663876
63118.851093009354,186150.0,159614.0,11136.0,15.864393126576033
63118.8610957793,186110.0,159578.0,11108.0,15.874395896520582
63118.871098549236,186153.0,159596.0,11114.0,15.884398666457855
63118.88110131918,186141.0,159608.0,11158.0,15.894401436402404
63118.89110408912,186127.0,159586.0,11128.0,15.904404206339677
63118.90110685906,186163.0,159621.0,11141.0,15.914406976284226
63118.911109629,186175.0,159619.0,11137.0,15.9244097462215
63118.921112398944,186189.0,159598.0,11166.0,15.934412516166049
63118.93111516889,186192.0,159666.0,11178.0,15.944415286110598
63118.941117938826,186193.0,159617.0,11157.0,15.95441805604787
63118.95112070877,186228.0,159667.0,11217.0,15.96442082599242
63118.96112347871,186231.0,159648.0,11193.0,15.974423595929693
63118.97112624865,186249.0,159678.0,11234.0,15.984426365874242
63118.98112901859,186271.0,159675.0,11237.0,15.994429135811515
63118.991131788534,186239.0,159648.0,11254.0,16.004431905756064
63119.00113455847,186232.0,159649.0,11225.0,16.014434675693337
63119.011137328416,186255.0,159639.0,11237.0,16.024437445637886
63119.02114009835,186221.0,159637.0,11222.0,16.03444021557516
63119.0311428683,186270.0,159649.0,11260.0,16.04444298551971
63119.041145638235,186234.0,159656.0,11246.0,16.05444575545698
63119.05114840818,186191.0,159639.0,11238.0,16.06444852540153
63119.06115117812,186193.0,159659.0,11247.0,16.074451295338804
63119.07115394806,186141.0,159641.0,11217.0,16.084454065283353
63119.081156718,186105.0,159604.0,11183.0,16.094456835220626
63119.09115948794,186068.0,159591.0,11135.0,16.104459605165175
63119.10116225788,186049.0,159584.0,11102.0,16.11446237510245
63119.111165027825,186054.0,159599.0,11123.0,16.124465145046997
63119.12116779777,185965.0,159509.0,11062.0,16.134467914991546
63119.13117056771,185948.0,159503.0,11047.0,16.14447068492882
63119.14117333765,185934.0,159523.0,11034.0,16.15447345487337
63119.15117610759,185943.0,159524.0,11022.0,16.16447622481064
63119.16117887753,185965.0,159531.0,10998.0,16.17447899475519
63119.17118164747,185936.0,159506.0,10973.0,16.184481764692464
63119.181184417415,185923.0,159521.0,10975.0,16.194484534637013
63119.19118718735,185905.0,159515.0,10952.0,16.204487304574286
63119.2011899573,185947.0,159528.0,10953.0,16.214490074518835
63119.211192727234,185931.0,159503.0,10939.0,16.22449284445611
63119.22119549718,185945.0,159494.0,10961.0,16.234495614400657
63119.231198267116,185929.0,159484.0,10932.0,16.24449838433793
63119.24120103706,185911.0,159503.0,10936.0,16.25450115428248
63119.251203807,185882.0,159506.0,10930.0,16.264503924219753
63119.26120657694,185866.0,159484.0,10917.0,16.2745066941643
63119.27120934688,185910.0,159493.0,10950.0,16.284509464101575
63119.281212116824,185908.0,159495.0,10920.0,16.294512234046124
63119.29121488676,185906.0,159495.0,10904.0,16.304515003983397
63119.301217656706,185929.0,159526.0,10934.0,16.314517773927946
63119.31122042665,185925.0,159501.0,10910.0,16.324520543872495
63119.32122319659,185917.0,159495.0,10917.0,16.33452331380977
63119.33122596653,185926.0,159481.0,10912.0,16.344526083754317
63119.34122873647,185928.0,159478.0,10919.0,16.35452885369159
63119.351231506414,185951.0,159492.0,10931.0,16.36453162363614
63119.36123427635,185906.0,159509.0,10915.0,16.374534393573413
63119.371237046296,185884.0,159528.0,10897.0,16.38453716351796
63119.38123981623,185880.0,159509.0,10890.0,16.394539933455235
63119.39124258618,185895.0,159505.0,10887.0,16.404542703399784
63119.401245356115,185890.0,159492.0,10909.0,16.414545473337057
63119.41124812606,185883.0,159482.0,10933.0,16.424548243281606
63119.421250896,185904.0,159505.0,10900.0,16.43455101321888
63119.43125366594,185887.0,159472.0,10914.0,16.44455378316343
63119.44125643588,185900.0,159499.0,10909.0,16.4545565531007
63119.45125920582,185878.0,159495.0,10908.0,16.46455932304525
63119.46126197576,185876.0,159480.0,10939.0,16.474562092982524
63119.471264745705,185874.0,159524.0,10923.0,16.484564862927073
63119.48126751564,185921.0,159499.0,10911.0,16.494567632864346
63119.49127028559,185917.0,159496.0,10920.0,16.504570402808895
63119.501273055525,185914.0,159525.0,10907.0,16.514573172746168
63119.51127582547,185907.0,159505.0,10905.0,16.524575942690717
63119.52127859541,185925.0,159514.0,10933.0,16.534578712635266
63119.53128136535,185926.0,159501.0,10933.0,16.54458148257254
63119.541284135295,185944.0,159496.0,10961.0,16.55458425251709
63119.55128690523,185935.0,159520.0,10949.0,16.56458702245436
63119.56128967518,185942.0,159538.0,10958.0,16.57458979239891
63119.571292445115,185961.0,159550.0,10975.0,16.584592562336184
63119.58129521506,185946.0,159547.0,10965.0,16.594595332280733
63119.591297984996,185973.0,159526.0,10973.0,16.604598102218006
63119.60130075494,185980.0,159565.0,10979.0,16.614600872162555
63119.61130352488,186000.0,159548.0,10974.0,16.624603642099828
63119.62130629482,185979.0,159546.0,10972.0,16.634606412044377
63119.63130906476,186015.0,159554.0,11019.0,16.64460918198165
63119.641311834705,185990.0,159555.0,11014.0,16.6546119519262
63119.65131460464,185999.0,159508.0,11029.0,16.664614721863472
63119.661317374586,186022.0,159558.0,11038.0,16.67461749180802
63119.67132014452,185992.0,159539.0,11032.0,16.684620261745295
63119.68132291447,186024.0,159566.0,11031.0,16.694623031689844
63119.691325684405,186014.0,159579.0,11045.0,16.704625801627117
63119.70132845435,186001.0,159557.0,11028.0,16.714628571571666
63119.711331224295,186060.0,159611.0,11025.0,16.724631341516215
63119.72133399423,186037.0,159582.0,11040.0,16.734634111453488
63119.73133676418,186029.0,159543.0,11084.0,16.744636881398037
63119.741339534114,186051.0,159591.0,11082.0,16.75463965133531
63119.75134230406,186033.0,159559.0,11069.0,16.76464242127986
63119.761345073995,186054.0,159590.0,11082.0,16.774645191217132
63119.77134784394,186050.0,159577.0,11088.0,16.78464796116168
63119.78135061388,186049.0,159582.0,11099.0,16.794650731098955
63119.79135338382,186063.0,159612.0,11109.0,16.804653501043504
63119.80135615376,186050.0,159582.0,11101.0,16.814656270980777
63119.811358923704,186090.0,159580.0,11127.0,16.824659040925326
63119.82136169364,186116.0,159617.0,11103.0,16.8346618108626
63119.831364463585,186084.0,159617.0,11135.0,16.844664580807148
63119.84136723352,186126.0,159604.0,11184.0,16.85466735074442
63119.85137000347,186127.0,159637.0,11149.0,16.86467012068897
63119.861372773405,186111.0,159567.0,11155.0,16.874672890626243
63119.87137554335,186124.0,159604.0,11153.0,16.884675660570792
63119.88137831329,186106.0,159585.0,11176.0,16.894678430508066
63119.89138108323,186135.0,159611.0,11177.0,16.904681200452615
63119.901383853176,186127.0,159635.0,11195.0,16.914683970397164
63119.91138662311,186145.0,159599.0,11184.0,16.924686740334437
63119.92138939306,186157.0,159621.0,11176.0,16.934689510278986
63119.931392162995,186152.0,159624.0,11218.0,16.94469228021626
63119.94139493294,186143.0,159572.0,11222.0,16.954695050160808
63119.95139770288,186175.0,159646.0,11229.0,16.96469782009808
63119.96140047282,186174.0,159595.0,11244.0,16.97470059004263
63119.97140324276,186197.0,159648.0,11234.0,16.984703359979903
63119.9814060127,186193.0,159652.0,11252.0,16.994706129924452
63119.99140878264,186175.0,159616.0,11251.0,17.004708899861726
63120.001411552585,186216.0,159683.0,11294.0,17.014711669806275
63120.01141432252,186225.0,159653.0,11273.0,17.024714439743548
63120.02141709247,186219.0,159652.0,11257.0,17.034717209688097
63120.031419862404,186202.0,159637.0,11273.0,17.04471997962537
63120.04142263235,186231.0,159639.0,11286.0,17.05472274956992
63120.051425402286,186227.0,159654.0,11293.0,17.064725519507192
63120.06142817223,186263.0,159653.0,11314.0,17.07472828945174
63120.07143094217,186232.0,159619.0,11321.0,17.084731059389014
63120.08143371211,186263.0,159683.0,11331.0,17.094733829333563
63120.09143648205,186235.0,159665.0,11322.0,17.104736599270836
63120.101439251994,186173.0,159618.0,11291.0,17.114739369215386
63120.11144202194,186198.0,159651.0,11310.0,17.124742139159935
63120.121444791876,186123.0,159605.0,11265.0,17.134744909097208
63120.13144756182,186118.0,159612.0,11256.0,17.144747679041757
63120.14145033176,186087.0,159598.0,11224.0,17.15475044897903
63120.1514531017,186061.0,159573.0,11192.0,17.16475321892358
63120.16145587164,186073.0,159595.0,11191.0,17.174755988860852
63120.171458641584,186019.0,159578.0,11158.0,17.1847587588054
63120.18146141152,185936.0,159524.0,11099.0,17.194761528742674
63120.191464181466,186000.0,159550.0,11145.0,17.204764298687223
63120.2014669514,185950.0,159509.0,11095.0,17.214767068624496
63120.21146972135,185967.0,159534.0,11089.0,17.224769838569046
63120.221472491285,185973.0,159516.0,11083.0,17.23477260850632
63120.23147526123,185929.0,159528.0,11048.0,17.244775378450868
63120.24147803117,185979.0,159565.0,11075.0,17.25477814838814
63120.25148080111,185971.0,159537.0,11057.0,17.26478091833269
63120.26148357105,185962.0,159525.0,11060.0,17.274783688269963
63120.27148634099,185979.0,159560.0,11062.0,17.284786458214512
63120.28148911093,185951.0,159534.0,11036.0,17.294789228151785
63120.291491880875,185949.0,159537.0,11046.0,17.304791998096334
63120.30149465082,185948.0,159533.0,11033.0,17.314794768040883
63120.31149742076,185929.0,159531.0,11040.0,17.324797537978156
63120.3215001907,185956.0,159543.0,11046.0,17.334800307922706
63120.33150296064,185938.0,159523.0,11031.0,17.34480307785998
63120.34150573058,185946.0,159520.0,11032.0,17.354805847804528
63120.35150850052,185972.0,159557.0,11017.0,17.3648086177418
63120.361511270465,185940.0,159514.0,11033.0,17.37481138768635
63120.3715140404,185972.0,159535.0,11032.0,17.384814157623623
63120.38151681035,185975.0,159558.0,11053.0,17.394816927568172
63120.391519580284,185939.0,159506.0,11037.0,17.404819697505445
63120.40152235023,185985.0,159556.0,11065.0,17.414822467449994
63120.411525120166,185952.0,159535.0,11038.0,17.424825237387267
63120.42152789011,185920.0,159535.0,11029.0,17.434828007331816
63120.43153066005,185961.0,159568.0,11058.0,17.44483077726909
63120.44153342999,185935.0,159504.0,11030.0,17.45483354721364
63120.45153619993,185939.0,159532.0,11014.0,17.464836317150912
63120.461538969874,185963.0,159570.0,11038.0,17.47483908709546
63120.47154173981,185935.0,159511.0,11030.0,17.484841857032734
63120.481544509756,185970.0,159544.0,11066.0,17.494844626977283
63120.4915472797,185946.0,159532.0,11048.0,17.504847396921832
63120.50155004964,185929.0,159505.0,11031.0,17.514850166859105
63120.51155281958,185958.0,159548.0,11021.0,17.524852936803654
63120.52155558952,185953.0,159558.0,11039.0,17.534855706740927
63120.531558359464,185954.0,159536.0,11047.0,17.544858476685476
63120.5415611294,185981.0,159560.0,11026.0,17.55486124662275
63120.551563899346,185940.0,159514.0,11023.0,17.5648640165673
63120.56156666928,185947.0,159542.0,11072.0,17.574866786504572
63120.57156943923,185985.0,159537.0,11032.0,17.58486955644912
63120.581572209165,185965.0,159535.0,11092.0,17.594872326386394
63120.59157497911,186007.0,159549.0,11089.0,17.604875096330943
63120.60157774905,185963.0,159535.0,11083.0,17.614877866268216
63120.61158051899,185999.0,159562.0,11097.0,17.624880636212765
63120.62158328893,186018.0,159587.0,11085.0,17.63488340615004
63120.63158605887,186019.0,159570.0,11092.0,17.644886176094587
63120.64158882881,186040.0,159547.0,11114.0,17.65488894603186
63120.651591598755,186035.0,159567.0,11108.0,17.66489171597641
63120.66159436869,186031.0,159558.0,11110.0,17.674894485913683
63120.67159713864,186062.0,159598.0,11118.0,17.684897255858232
63120.68159990858,186018.0,159558.0,11109.0,17.69490002580278
63120.69160267852,186044.0,159580.0,11136.0,17.704902795740054
63120.70160544846,186064.0,159606.0,11142.0,17.714905565684603
63120.7116082184,186049.0,159599.0,11137.0,17.724908335621876
63120.721610988345,186057.0,159566.0,11134.0,17.734911105566425
63120.73161375828,186033.0,159552.0,11141.0,17.7449138755037
63120.74161652823,186079.0,159598.0,11155.0,17.754916645448247
63120.751619298164,186107.0,159619.0,11171.0,17.76491941538552
63120.76162206811,186055.0,159589.0,11157.0,17.77492218533007
63120.771624838046,186123.0,159629.0,11183.0,17.784924955267343
63120.78162760799,186122.0,159605.0,11173.0,17.794927725211892
63120.79163037793,186070.0,159583.0,11211.0,17.804930495149165
63120.80163314787,186137.0,159628.0,11224.0,17.814933265093714
63120.81163591781,186083.0,159580.0,11195.0,17.824936035030987
63120.821638687754,186114.0,159615.0,11213.0,17.834938804975536
63120.83164145769,186121.0,159621.0,11234.0,17.84494157491281
63120.841644227636,186136.0,159622.0,11230.0,17.85494434485736
63120.85164699757,186146.0,159641.0,11246.0,17.86494711479463
63120.86164976752,186136.0,159616.0,11236.0,17.87494988473918
63120.871652537455,186121.0,159607.0,11223.0,17.884952654676454
63120.8816553074,186172.0,159645.0,11225.0,17.894955424621003
63120.891658077344,186142.0,159619.0,11245.0,17.904958194565552
63120.90166084728,186163.0,159640.0,11259.0,17.914960964502825
63120.911663617226,186186.0,159636.0,11295.0,17.924963734447374
63120.92166638716,186198.0,159654.0,11257.0,17.934966504384647
63120.93166915711,186219.0,159649.0,11308.0,17.944969274329196
63120.941671927045,186177.0,159632.0,11298.0,17.95497204426647
63120.95167469699,186199.0,159629.0,11291.0,17.96497481421102
63120.96167746693,186193.0,159668.0,11314.0,17.97497758414829
63120.97168023687,186175.0,159649.0,11282.0,17.98498035409284
63120.98168300681,186229.0,159659.0,11315.0,17.994983124030114
63120.99168577675,186218.0,159672.0,11337.0,18.004985893974663
63121.00168854669,186192.0,159630.0,11329.0,18.014988663911936
63121.011691316635,186245.0,159674.0,11356.0,18.024991433856485
63121.02169408657,186245.0,159663.0,11343.0,18.034994203793758
63121.03169685652,186239.0,159672.0,11336.0,18.044996973738307
63121.041699626454,186226.0,159638.0,11351.0,18.05499974367558
63121.0517023964,186243.0,159657.0,11359.0,18.06500251362013
63121.061705166336,186257.0,159668.0,11380.0,18.075005283557402
63121.07170793628,186246.0,159687.0,11370.0,18.08500805350195
63121.081710706225,186254.0,159689.0,11375.0,18.0950108234465
63121.09171347616,186289.0,159707.0,11404.0,18.105013593383774
63121.10171624611,186266.0,159684.0,11407.0,18.115016363328323
63121.111719016044,186224.0,159682.0,11386.0,18.125019133265596
63121.12172178599,186220.0,159680.0,11396.0,18.135021903210145
63121.131724555926,186174.0,159633.0,11359.0,18.145024673147418
63121.14172732587,186152.0,159648.0,11356.0,18.155027443091967
63121.15173009581,186120.0,159602.0,11353.0,18.16503021302924
63121.16173286575,186062.0,159589.0,11297.0,18.17503298297379
63121.17173563569,186071.0,159617.0,11311.0,18.185035752911062
63121.181738405634,186047.0,159583.0,11274.0,18.19503852285561
63121.19174117557,186037.0,159568.0,11232.0,18.205041292792885
63121.201743945516,186057.0,159588.0,11253.0,18.215044062737434
63121.21174671545,185992.0,159552.0,11195.0,18.225046832674707
63121.2217494854,186004.0,159563.0,11206.0,18.235049602619256
63121.231752255335,185996.0,159551.0,11187.0,18.24505237255653
63121.24175502528,185980.0,159562.0,11201.0,18.255055142501078
63121.25175779522,185989.0,159544.0,11197.0,18.26505791243835
63121.26176056516,185981.0,159553.0,11177.0,18.2750606823829
63121.271763335106,185967.0,159540.0,11157.0,18.28506345232745
63121.28176610504,186008.0,159586.0,11199.0,18.295066222264722
63121.29176887499,185971.0,159532.0,11152.0,18.30506899220927
63121.301771644925,185997.0,159558.0,11169.0,18.315071762146545
63121.31177441487,185986.0,159598.0,11175.0,18.325074532091094
63121.32177718481,185983.0,159532.0,11127.0,18.335077302028367
63121.33177995475,185979.0,159556.0,11166.0,18.345080071972916
63121.34178272469,185991.0,159561.0,11170.0,18.35508284191019
63121.35178549463,186007.0,159551.0,11137.0,18.365085611854738
63121.36178826457,186044.0,159575.0,11175.0,18.37508838179201
63121.371791034515,185955.0,159532.0,11148.0,18.38509115173656
63121.38179380445,186004.0,159596.0,11165.0,18.395093921673833
63121.3917965744,186002.0,159562.0,11161.0,18.405096691618382
63121.401799344334,185964.0,159555.0,11145.0,18.415099461555656
63121.41180211428,185978.0,159608.0,11167.0,18.425102231500205
63121.421804884216,186003.0,159568.0,11148.0,18.435105001437478
63121.43180765416,185987.0,159548.0,11190.0,18.445107771382027
63121.4418104241,186035.0,159597.0,11185.0,18.4551105413193
63121.45181319404,185996.0,159580.0,11178.0,18.46511331126385
63121.46181596398,185988.0,159562.0,11181.0,18.475116081201122
63121.471818733924,185988.0,159591.0,11149.0,18.48511885114567
63121.48182150387,185972.0,159535.0,11166.0,18.49512162109022
63121.491824273806,186020.0,159587.0,11184.0,18.505124391027493
63121.50182704375,185985.0,159563.0,11151.0,18.515127160972042
63121.51182981369,186010.0,159576.0,11166.0,18.525129930909316
63121.52183258363,186010.0,159590.0,11161.0,18.535132700853865
63121.53183535357,185965.0,159576.0,11160.0,18.545135470791138
63121.541838123514,186022.0,159568.0,11184.0,18.555138240735687
63121.55184089345,186008.0,159564.0,11171.0,18.56514101067296
63121.561843663396,186028.0,159575.0,11169.0,18.57514378061751
63121.57184643333,186019.0,159574.0,11194.0,18.585146550554782
63121.58184920328,186018.0,159555.0,11184.0,18.59514932049933
63121.591851973215,186013.0,159576.0,11175.0,18.605152090436604
63121.60185474316,186014.0,159597.0,11198.0,18.615154860381153
63121.6118575131,186012.0,159544.0,11205.0,18.625157630318427
63121.62186028304,186027.0,159573.0,11193.0,18.635160400262976
63121.63186305298,186041.0,159578.0,11206.0,18.64516317020025
63121.64186582292,186050.0,159575.0,11228.0,18.655165940144798
63121.65186859286,186032.0,159558.0,11199.0,18.66516871008207
63121.661871362805,186073.0,159592.0,11209.0,18.67517148002662
63121.67187413275,186062.0,159590.0,11217.0,18.68517424997117
63121.68187690269,186062.0,159603.0,11256.0,18.695177019908442
63121.69187967263,186046.0,159567.0,11249.0,18.70517978985299
63121.70188244257,186066.0,159603.0,11239.0,18.715182559790264
63121.71188521251,186097.0,159599.0,11238.0,18.725185329734813
63121.72188798245,186056.0,159571.0,11245.0,18.735188099672087
63121.731890752395,186067.0,159576.0,11249.0,18.745190869616636
63121.74189352233,186118.0,159619.0,11268.0,18.75519363955391
63121.75189629228,186100.0,159607.0,11270.0,18.765196409498458
63121.761899062214,186111.0,159601.0,11274.0,18.77519917943573
63121.77190183216,186119.0,159615.0,11246.0,18.78520194938028
63121.781904602096,186136.0,159623.0,11313.0,18.795204719317553
63121.79190737204,186109.0,159601.0,11287.0,18.805207489262102
63121.80191014198,186100.0,159596.0,11292.0,18.815210259199375
63121.81191291192,186105.0,159644.0,11303.0,18.825213029143924
63121.82191568186,186121.0,159625.0,11309.0,18.835215799081197
63121.831918451804,186142.0,159625.0,11318.0,18.845218569025747
63121.84192122174,186175.0,159650.0,11348.0,18.85522133896302
63121.851923991686,186157.0,159653.0,11348.0,18.86522410890757
63121.86192676163,186176.0,159627.0,11340.0,18.875226878852118
63121.87192953157,186153.0,159630.0,11330.0,18.88522964878939
63121.88193230151,186131.0,159593.0,11344.0,18.89523241873394
63121.89193507145,186141.0,159611.0,11361.0,18.905235188671213
63121.901937841394,186147.0,159615.0,11372.0,18.915237958615762
63121.91194061133,186147.0,159602.0,11397.0,18.925240728553035
63121.921943381276,186161.0,159609.0,11365.0,18.935243498497584
63121.93194615121,186180.0,159617.0,11370.0,18.945246268434857
63121.94194892116,186163.0,159643.0,11400.0,18.955249038379407
63121.951951691095,186199.0,159644.0,11379.0,18.96525180831668
63121.96195446104,186188.0,159676.0,11385.0,18.97525457826123
63121.97195723098,186232.0,159631.0,11379.0,18.985257348198502
63121.98196000092,186244.0,159621.0,11414.0,18.99526011814305
63121.99196277086,186231.0,159655.0,11411.0,19.005262888080324
63122.0019655408,186219.0,159630.0,11416.0,19.015265658024873
63122.01196831074,186213.0,159655.0,11420.0,19.025268427962146
63122.021971080685,186261.0,159687.0,11441.0,19.035271197906695
63122.03197385062,186244.0,159671.0,11430.0,19.04527396784397
63122.04197662057,186263.0,159666.0,11452.0,19.055276737788517
63122.05197939051,186224.0,159665.0,11442.0,19.065279507733067
63122.06198216045,186209.0,159670.0,11450.0,19.07528227767034
63122.07198493039,186224.0,159646.0,11452.0,19.08528504761489
63122.08198770033,186220.0,159643.0,11437.0,19.095287817552162
63122.091990470275,186168.0,159623.0,11426.0,19.10529058749671
63122.10199324021,186155.0,159606.0,11410.0,19.115293357433984
63122.11199601016,186118.0,159613.0,11405.0,19.125296127378533
