timestamp,PPG_1,PPG_2,PPG_3,time_from_segment_start_sec
62858.879102240244,183885.0,155711.0,10450.0,0.0
62858.88910501018,183897.0,155691.0,10442.0,0.010002769937273115
62858.899107780126,183960.0,155695.0,10442.0,0.020005539881822187
62858.90911055007,183920.0,155699.0,10458.0,0.03000830982637126
62858.91911332001,183945.0,155704.0,10446.0,0.040011079763644375
62858.92911608995,183910.0,155691.0,10443.0,0.05001384970819345
62858.93911885989,183994.0,155733.0,10491.0,0.06001661964546656
62858.949121629834,183972.0,155715.0,10488.0,0.07001938959001563
62858.95912439977,183964.0,155701.0,10503.0,0.08002215952728875
62858.969127169716,183964.0,155712.0,10492.0,0.09002492947183782
62858.97912993965,183992.0,155742.0,10522.0,0.10002769940911094
62858.9891327096,183995.0,155713.0,10506.0,0.11003046935366001
62858.999135479535,183996.0,155772.0,10550.0,0.12003323929093312
62859.00913824948,184036.0,155748.0,10517.0,0.1300360092354822
62859.01914101942,183998.0,155761.0,10534.0,0.1400387791727553
62859.02914378936,184032.0,155751.0,10545.0,0.15004154911730438
62859.0391465593,184018.0,155698.0,10544.0,0.1600443190545775
62859.04914932924,184038.0,155771.0,10527.0,0.17004708899912657
62859.05915209918,184054.0,155765.0,10565.0,0.1800498589363997
62859.069154869125,184044.0,155747.0,10556.0,0.19005262888094876
62859.07915763906,184039.0,155734.0,10562.0,0.20005539881822187
62859.08916040901,184085.0,155759.0,10575.0,0.21005816876277095
62859.099163178944,184053.0,155742.0,10575.0,0.22006093870004406
62859.10916594889,184090.0,155772.0,10596.0,0.23006370864459313
62859.11916871883,184072.0,155766.0,10615.0,0.2400664785891422
62859.12917148877,184097.0,155759.0,10610.0,0.2500692485264153
62859.139174258715,184102.0,155755.0,10601.0,0.2600720184709644
62859.14917702865,184082.0,155759.0,10599.0,0.2700747884082375
62859.1591797986,184064.0,155763.0,10575.0,0.2800775583527866
62859.169182568534,184004.0,155714.0,10540.0,0.2900803282900597
62859.17918533848,184005.0,155742.0,10568.0,0.30008309823460877
62859.189188108416,183968.0,155721.0,10548.0,0.3100858681718819
62859.19919087836,183937.0,155686.0,10525.0,0.32008863811643096
62859.2091936483,183933.0,155685.0,10519.0,0.33009140805370407
62859.21919641824,183855.0,155673.0,10492.0,0.34009417799825314
62859.22919918818,183892.0,155682.0,10466.0,0.35009694793552626
62859.239201958124,183818.0,155680.0,10448.0,0.36009971788007533
62859.24920472806,183856.0,155634.0,10436.0,0.37010248781734845
62859.259207498006,183869.0,155673.0,10405.0,0.3801052577618975
62859.26921026794,183822.0,155653.0,10394.0,0.39010802769917063
62859.27921303789,183821.0,155652.0,10415.0,0.4001107976437197
62859.289215807825,183795.0,155644.0,10381.0,0.4101135675809928
62859.29921857777,183812.0,155644.0,10367.0,0.4201163375255419
62859.309221347714,183825.0,155656.0,10418.0,0.43011910747009097
62859.31922411765,183797.0,155639.0,10388.0,0.4401218774073641
62859.329226887596,183819.0,155633.0,10404.0,0.45012464735191315
62859.33922965753,183834.0,155660.0,10399.0,0.46012741728918627
62859.34923242748,183804.0,155646.0,10380.0,0.47013018723373534
62859.359235197415,183783.0,155606.0,10367.0,0.48013295717100846
62859.36923796736,183812.0,155610.0,10380.0,0.49013572711555753
62859.3792407373,183763.0,155644.0,10358.0,0.5001384970528306
62859.38924350724,183778.0,155628.0,10361.0,0.5101412669973797
62859.39924627718,183799.0,155645.0,10347.0,0.5201440369346528
62859.40924904712,183810.0,155636.0,10344.0,0.5301468068792019
62859.41925181706,183789.0,155612.0,10358.0,0.540149576816475
62859.429254587005,183800.0,155619.0,10355.0,0.5501523467610241
62859.43925735694,183787.0,155626.0,10383.0,0.5601551166982972
62859.44926012689,183786.0,155635.0,10344.0,0.5701578866428463
62859.459262896824,183808.0,155614.0,10361.0,0.5801606565801194
62859.46926566677,183775.0,155602.0,10372.0,0.5901634265246685
62859.479268436706,183798.0,155625.0,10355.0,0.6001661964619416
62859.48927120665,183788.0,155637.0,10348.0,0.6101689664064907
62859.499273976595,183764.0,155620.0,10334.0,0.6201717363510397
62859.50927674653,183806.0,155636.0,10357.0,0.6301745062883128
62859.51927951648,183780.0,155627.0,10346.0,0.6401772762328619
62859.529282286414,183775.0,155598.0,10340.0,0.650180046170135
62859.53928505636,183809.0,155629.0,10341.0,0.6601828161146841
62859.549287826296,183763.0,155623.0,10346.0,0.6701855860519572
62859.55929059624,183805.0,155637.0,10349.0,0.6801883559965063
62859.56929336618,183767.0,155621.0,10341.0,0.6901911259337794
62859.57929613612,183776.0,155608.0,10334.0,0.7001938958783285
62859.58929890606,183792.0,155644.0,10372.0,0.7101966658156016
62859.599301676004,183809.0,155626.0,10343.0,0.7201994357601507
62859.60930444594,183743.0,155614.0,10334.0,0.7302022056974238
62859.619307215886,183823.0,155649.0,10385.0,0.7402049756419729
62859.62930998582,183784.0,155613.0,10354.0,0.750207745579246
62859.63931275577,183829.0,155626.0,10362.0,0.760210515523795
62859.649315525705,183767.0,155609.0,10356.0,0.7702132854610682
62859.65931829565,183824.0,155630.0,10364.0,0.7802160554056172
62859.66932106559,183825.0,155642.0,10410.0,0.7902188253428903
62859.67932383553,183834.0,155642.0,10378.0,0.8002215952874394
62859.68932660547,183833.0,155625.0,10380.0,0.8102243652247125
62859.69932937541,183842.0,155617.0,10394.0,0.8202271351692616
62859.70933214536,183830.0,155591.0,10380.0,0.8302299051138107
62859.719334915295,183858.0,155650.0,10397.0,0.8402326750510838
62859.72933768524,183882.0,155654.0,10424.0,0.8502354449956329
62859.73934045518,183856.0,155669.0,10401.0,0.860238214932906
62859.74934322512,183845.0,155645.0,10396.0,0.870240984877455
62859.75934599506,183885.0,155657.0,10417.0,0.8802437548147282
62859.769348765,183884.0,155680.0,10408.0,0.8902465247592772
62859.77935153494,183861.0,155655.0,10423.0,0.9002492946965504
62859.789354304885,183922.0,155684.0,10459.0,0.9102520646410994
62859.79935707482,183899.0,155672.0,10438.0,0.9202548345783725
62859.80935984477,183886.0,155640.0,10439.0,0.9302576045229216
62859.819362614704,183915.0,155695.0,10463.0,0.9402603744601947
62859.82936538465,183890.0,155670.0,10428.0,0.9502631444047438
62859.839368154586,183895.0,155664.0,10434.0,0.9602659143420169
62859.84937092453,183918.0,155694.0,10457.0,0.970268684286566
62859.85937369447,183921.0,155666.0,10451.0,0.9802714542238391
62859.86937646441,183947.0,155694.0,10456.0,0.9902742241683882
62859.87937923435,183949.0,155698.0,10460.0,1.0002769941056613
62859.889382004294,183930.0,155687.0,10492.0,1.0102797640502104
62859.89938477424,183976.0,155692.0,10505.0,1.0202825339947594
62859.909387544176,183955.0,155671.0,10465.0,1.0302853039320325
62859.91939031412,183952.0,155704.0,10500.0,1.0402880738765816
62859.92939308406,183956.0,155698.0,10532.0,1.0502908438138547
62859.939395854,183979.0,155709.0,10486.0,1.0602936137584038
62859.94939862394,184003.0,155713.0,10507.0,1.070296383695677
62859.959401393884,183992.0,155716.0,10510.0,1.080299153640226
62859.96940416382,183988.0,155700.0,10524.0,1.090301923577499
62859.979406933766,183958.0,155679.0,10538.0,1.1003046935220482
62859.9894097037,183948.0,155714.0,10517.0,1.1103074634593213
62859.99941247365,184004.0,155719.0,10544.0,1.1203102334038704
62860.009415243585,184030.0,155686.0,10543.0,1.1303130033411435
62860.01941801353,184039.0,155709.0,10526.0,1.1403157732856926
62860.02942078347,184020.0,155720.0,10562.0,1.1503185432229657
62860.03942355341,184026.0,155728.0,10552.0,1.1603213131675147
62860.04942632335,184022.0,155716.0,10560.0,1.1703240831047879
62860.05942909329,183974.0,155675.0,10538.0,1.180326853049337
62860.06943186323,183970.0,155674.0,10519.0,1.19032962298661
62860.079434633175,183941.0,155692.0,10516.0,1.2003323929311591
62860.08943740312,183871.0,155677.0,10491.0,1.2103351628757082
62860.09944017306,183898.0,155702.0,10500.0,1.2203379328129813
62860.109442943,183823.0,155627.0,10425.0,1.2303407027575304
62860.11944571294,183825.0,155648.0,10428.0,1.2403434726948035
62860.12944848288,183833.0,155652.0,10410.0,1.2503462426393526
62860.13945125282,183780.0,155639.0,10384.0,1.2603490125766257
62860.149454022765,183826.0,155649.0,10384.0,1.2703517825211748
62860.1594567927,183797.0,155631.0,10364.0,1.2803545524584479
62860.16945956265,183785.0,155604.0,10352.0,1.290357322402997
62860.179462332584,183810.0,155638.0,10382.0,1.30036009234027
62860.18946510253,183773.0,155595.0,10337.0,1.3103628622848191
62860.199467872466,183806.0,155611.0,10352.0,1.3203656322220922
62860.20947064241,183826.0,155632.0,10357.0,1.3303684021666413
62860.21947341235,183772.0,155595.0,10328.0,1.3403711721039144
62860.22947618229,183822.0,155626.0,10372.0,1.3503739420484635
62860.23947895223,183759.0,155614.0,10320.0,1.3603767119857366
62860.249481722174,183769.0,155621.0,10335.0,1.3703794819302857
62860.25948449211,183782.0,155610.0,10332.0,1.3803822518675588
62860.269487262056,183814.0,155627.0,10332.0,1.3903850218121079
62860.279490032,183820.0,155621.0,10335.0,1.400387791756657
62860.28949280194,183805.0,155637.0,10358.0,1.41039056169393
62860.29949557188,183826.0,155615.0,10337.0,1.4203933316384791
62860.30949834182,183852.0,155643.0,10368.0,1.4303961015757523
62860.319501111764,183837.0,155631.0,10357.0,1.4403988715203013
62860.3295038817,183810.0,155618.0,10349.0,1.4504016414575744
62860.339506651646,183791.0,155595.0,10334.0,1.4604044114021235
62860.34950942158,183810.0,155633.0,10356.0,1.4704071813393966
62860.35951219153,183802.0,155630.0,10338.0,1.4804099512839457
62860.369514961465,183806.0,155596.0,10326.0,1.4904127212212188
62860.37951773141,183839.0,155632.0,10332.0,1.500415491165768
62860.38952050135,183788.0,155605.0,10371.0,1.510418261103041
62860.39952327129,183821.0,155623.0,10339.0,1.52042103104759
62860.40952604123,183816.0,155634.0,10344.0,1.5304238009848632
62860.41952881117,183818.0,155609.0,10342.0,1.5404265709294123
62860.42953158111,183829.0,155603.0,10338.0,1.5504293408666854
62860.439534351055,183803.0,155621.0,10323.0,1.5604321108112345
62860.44953712099,183823.0,155625.0,10343.0,1.5704348807485076
62860.45953989094,183842.0,155620.0,10320.0,1.5804376506930566
62860.469542660874,183819.0,155603.0,10333.0,1.5904404206303298
62860.47954543082,183865.0,155657.0,10347.0,1.6004431905748788
62860.48954820076,183857.0,155641.0,10348.0,1.610445960519428
62860.4995509707,183834.0,155631.0,10345.0,1.620448730456701
62860.509553740645,183855.0,155659.0,10385.0,1.63045150040125
62860.51955651058,183845.0,155630.0,10347.0,1.6404542703385232
62860.52955928053,183866.0,155643.0,10376.0,1.6504570402830723
62860.539562050464,183873.0,155665.0,10386.0,1.6604598102203454
62860.54956482041,183891.0,155661.0,10370.0,1.6704625801648945
62860.559567590346,183881.0,155649.0,10388.0,1.6804653501021676
62860.56957036029,183910.0,155656.0,10388.0,1.6904681200467166
62860.57957313023,183888.0,155649.0,10392.0,1.7004708899839898
62860.58957590017,183919.0,155679.0,10417.0,1.7104736599285388
62860.59957867011,183888.0,155657.0,10377.0,1.720476429865812
62860.609581440054,183915.0,155664.0,10417.0,1.730479199810361
62860.61958420999,183916.0,155661.0,10405.0,1.7404819697476341
62860.629586979936,183957.0,155677.0,10402.0,1.7504847396921832
62860.63958974987,183935.0,155683.0,10427.0,1.7604875096294563
62860.64959251982,183936.0,155676.0,10434.0,1.7704902795740054
62860.659595289755,183939.0,155667.0,10432.0,1.7804930495112785
62860.6695980597,183947.0,155662.0,10440.0,1.7904958194558276
62860.679600829644,183969.0,155654.0,10429.0,1.8004985894003767
62860.68960359958,183977.0,155690.0,10450.0,1.8105013593376498
62860.699606369526,183972.0,155725.0,10465.0,1.8205041292821988
62860.70960913946,183949.0,155715.0,10447.0,1.830506899219472
62860.71961190941,183953.0,155671.0,10426.0,1.840509669164021
62860.729614679345,183983.0,155691.0,10462.0,1.8505124391012941
62860.73961744929,184004.0,155712.0,10452.0,1.8605152090458432
62860.74962021923,183962.0,155703.0,10444.0,1.8705179789831163
62860.75962298917,184028.0,155710.0,10499.0,1.8805207489276654
62860.76962575911,184003.0,155699.0,10516.0,1.8905235188649385
62860.77962852905,183977.0,155676.0,10480.0,1.9005262888094876
62860.78963129899,184037.0,155701.0,10486.0,1.9105290587467607
62860.799634068935,184005.0,155718.0,10496.0,1.9205318286913098
62860.80963683887,184040.0,155734.0,10492.0,1.930534598628583
62860.81963960882,184003.0,155732.0,10505.0,1.940537368573132
62860.829642378754,183978.0,155688.0,10477.0,1.950540138510405
62860.8396451487,184002.0,155704.0,10504.0,1.9605429084549542
62860.849647918636,183953.0,155688.0,10472.0,1.9705456783922273
62860.85965068858,183917.0,155665.0,10457.0,1.9805484483367763
62860.869653458525,183931.0,155686.0,10427.0,1.9905512182813254
62860.87965622846,183878.0,155647.0,10389.0,2.0005539882185985
62860.88965899841,183859.0,155646.0,10384.0,2.0105567581631476
62860.899661768344,183827.0,155613.0,10376.0,2.0205595281004207
62860.90966453829,183815.0,155598.0,10359.0,2.03056229804497
62860.919667308226,183797.0,155597.0,10349.0,2.040565067982243
62860.92967007817,183809.0,155613.0,10329.0,2.050567837926792
62860.93967284811,183794.0,155605.0,10292.0,2.060570607864065
62860.94967561805,183783.0,155602.0,10332.0,2.070573377808614
62860.95967838799,183780.0,155621.0,10282.0,2.0805761477458873
62860.969681157934,183802.0,155608.0,10287.0,2.0905789176904364
62860.97968392787,183814.0,155600.0,10273.0,2.1005816876277095
62860.989686697816,183798.0,155600.0,10283.0,2.1105844575722585
62860.99968946775,183805.0,155619.0,10308.0,2.1205872275095317
62861.0096922377,183806.0,155615.0,10281.0,2.1305899974540807
62861.019695007635,183791.0,155585.0,10277.0,2.140592767391354
62861.02969777758,183779.0,155583.0,10276.0,2.150595537335903
62861.03970054752,183778.0,155584.0,10278.0,2.160598307273176
62861.04970331746,183803.0,155608.0,10290.0,2.170601077217725
62861.0597060874,183793.0,155588.0,10282.0,2.180603847154998
62861.06970885734,183821.0,155596.0,10310.0,2.1906066170995473
62861.07971162729,183830.0,155598.0,10299.0,2.2006093870440964
62861.089714397225,183809.0,155622.0,10292.0,2.2106121569813695
62861.09971716717,183820.0,155617.0,10271.0,2.2206149269259186
62861.10971993711,183800.0,155593.0,10282.0,2.2306176968631917
62861.11972270705,183827.0,155613.0,10327.0,2.2406204668077407
62861.12972547699,183822.0,155625.0,10297.0,2.250623236745014
62861.13972824693,183810.0,155587.0,10277.0,2.260626006689563
62861.14973101687,183812.0,155648.0,10314.0,2.270628776626836
62861.159733786815,183802.0,155612.0,10292.0,2.280631546571385
62861.16973655675,183819.0,155643.0,10284.0,2.2906343165086582
62861.1797393267,183806.0,155631.0,10305.0,2.3006370864532073
62861.189742096634,183770.0,155618.0,10266.0,2.3106398563904804
62861.19974486658,183817.0,155617.0,10258.0,2.3206426263350295
62861.209747636516,183814.0,155612.0,10277.0,2.3306453962723026
62861.21975040646,183808.0,155597.0,10312.0,2.3406481662168517
62861.2297531764,183844.0,155654.0,10285.0,2.350650936154125
62861.23975594634,183811.0,155606.0,10289.0,2.360653706098674
62861.24975871628,183830.0,155630.0,10317.0,2.370656476035947
62861.259761486224,183810.0,155632.0,10296.0,2.380659245980496
62861.26976425617,183841.0,155663.0,10294.0,2.390662015925045
62861.279767026106,183854.0,155619.0,10317.0,2.4006647858623182
62861.28976979605,183826.0,155653.0,10297.0,2.4106675558068673
62861.29977256599,183856.0,155638.0,10316.0,2.4206703257441404
62861.30977533593,183883.0,155655.0,10342.0,2.4306730956886895
62861.31977810587,183815.0,155626.0,10304.0,2.4406758656259626
62861.329780875814,183879.0,155652.0,10339.0,2.4506786355705117
62861.33978364575,183886.0,155655.0,10335.0,2.460681405507785
62861.349786415696,183879.0,155646.0,10333.0,2.470684175452334
62861.35978918563,183896.0,155669.0,10380.0,2.480686945389607
62861.36979195558,183939.0,155664.0,10382.0,2.490689715334156
62861.379794725515,183914.0,155679.0,10343.0,2.500692485271429
62861.38979749546,183932.0,155667.0,10373.0,2.5106952552159782
62861.3998002654,183885.0,155644.0,10334.0,2.5206980251532514
62861.40980303534,183951.0,155693.0,10382.0,2.5307007950978004
62861.41980580528,183932.0,155676.0,10369.0,2.5407035650350736
62861.42980857522,183931.0,155681.0,10386.0,2.5507063349796226
62861.43981134516,183944.0,155704.0,10412.0,2.5607091049168957
62861.449814115105,183959.0,155716.0,10397.0,2.570711874861445
62861.45981688505,183955.0,155687.0,10399.0,2.580714644805994
62861.46981965499,183956.0,155696.0,10432.0,2.590717414743267
62861.47982242493,183950.0,155729.0,10421.0,2.600720184687816
62861.48982519487,183977.0,155718.0,10433.0,2.610722954625089
62861.49982796481,183983.0,155693.0,10417.0,2.6207257245696383
62861.50983073475,183977.0,155710.0,10414.0,2.6307284945069114
62861.519833504695,183973.0,155711.0,10442.0,2.6407312644514604
62861.52983627463,183964.0,155742.0,10435.0,2.6507340343887336
62861.53983904458,183999.0,155719.0,10438.0,2.6607368043332826
62861.549841814514,184007.0,155707.0,10423.0,2.6707395742705557
62861.55984458446,184025.0,155745.0,10432.0,2.680742344215105
62861.569847354396,183997.0,155721.0,10457.0,2.690745114152378
62861.57985012434,184019.0,155723.0,10460.0,2.700747884096927
62861.58985289428,184023.0,155732.0,10455.0,2.7107506540342
62861.59985566422,183993.0,155748.0,10462.0,2.720753423978749
62861.60985843416,183997.0,155727.0,10464.0,2.7307561939160223
62861.619861204104,183962.0,155705.0,10440.0,2.7407589638605714
62861.62986397404,183900.0,155687.0,10428.0,2.7507617337978445
62861.639866743986,183881.0,155684.0,10384.0,2.7607645037423936
62861.64986951393,183864.0,155634.0,10364.0,2.7707672736869426
62861.65987228387,183849.0,155658.0,10351.0,2.7807700436242158
62861.66987505381,183864.0,155658.0,10336.0,2.790772813568765
62861.67987782375,183789.0,155640.0,10281.0,2.800775583506038
62861.689880593694,183821.0,155637.0,10291.0,2.810778353450587
62861.69988336363,183759.0,155590.0,10282.0,2.82078112338786
62861.709886133576,183761.0,155603.0,10253.0,2.830783893332409
62861.71988890351,183763.0,155612.0,10234.0,2.8407866632696823
62861.72989167346,183741.0,155586.0,10221.0,2.8507894332142314
62861.739894443395,183761.0,155611.0,10240.0,2.8607922031515045
62861.74989721334,183734.0,155621.0,10209.0,2.8707949730960536
62861.75989998328,183779.0,155606.0,10215.0,2.8807977430333267
62861.76990275322,183749.0,155607.0,10210.0,2.8908005129778758
62861.77990552316,183762.0,155599.0,10208.0,2.900803282915149
62861.7899082931,183719.0,155600.0,10167.0,2.910806052859698
62861.79991106304,183747.0,155620.0,10190.0,2.920808822796971
62861.809913832985,183715.0,155572.0,10196.0,2.93081159274152
62861.81991660292,183749.0,155600.0,10197.0,2.9408143626787933
62861.82991937287,183675.0,155557.0,10209.0,2.9508171326233423
62861.839922142804,183750.0,155601.0,10209.0,2.9608199025606154
62861.84992491275,183722.0,155564.0,10186.0,2.9708226725051645
62861.85992768269,183733.0,155592.0,10188.0,2.9808254424497136
62861.86993045263,183742.0,155618.0,10208.0,2.9908282123869867
62861.879933222575,183714.0,155583.0,10173.0,3.000830982331536
62861.88993599251,183751.0,155585.0,10182.0,3.010833752268809
62861.89993876246,183755.0,155583.0,10196.0,3.020836522213358
62861.909941532394,183778.0,155605.0,10220.0,3.030839292150631
62861.91994430234,183746.0,155573.0,10204.0,3.04084206209518
62861.929947072276,183736.0,155575.0,10172.0,3.0508448320324533
62861.93994984222,183760.0,155598.0,10192.0,3.0608476019770023
62861.94995261216,183765.0,155593.0,10214.0,3.0708503719142755
62861.9599553821,183736.0,155597.0,10165.0,3.0808531418588245
62861.96995815204,183750.0,155611.0,10205.0,3.0908559117960976
62861.979960921984,183729.0,155592.0,10195.0,3.1008586817406467
62861.98996369192,183735.0,155578.0,10171.0,3.11086145167792
62861.999966461866,183750.0,155586.0,10165.0,3.120864221622469
62862.0099692318,183772.0,155626.0,10196.0,3.130866991559742
62862.01997200175,183742.0,155613.0,10184.0,3.140869761504291
62862.029974771685,183740.0,155596.0,10187.0,3.150872531441564
62862.03997754163,183796.0,155618.0,10222.0,3.1608753013861133
62862.049980311574,183754.0,155615.0,10182.0,3.1708780713306624
62862.05998308151,183775.0,155616.0,10206.0,3.1808808412679355
62862.069985851456,183778.0,155607.0,10189.0,3.1908836112124845
62862.07998862139,183787.0,155638.0,10234.0,3.2008863811497577
62862.08999139134,183800.0,155594.0,10233.0,3.2108891510943067
62862.099994161275,183799.0,155656.0,10222.0,3.22089192103158
62862.10999693122,183780.0,155642.0,10230.0,3.230894690976129
62862.11999970116,183801.0,155653.0,10257.0,3.240897460913402
62862.1300024711,183847.0,155667.0,10255.0,3.250900230857951
62862.14000524104,183836.0,155652.0,10268.0,3.260903000795224
62862.15000801098,183810.0,155641.0,10262.0,3.2709057707397733
62862.16001078092,183846.0,155670.0,10276.0,3.2809085406770464
62862.170013550865,183845.0,155652.0,10235.0,3.2909113106215955
62862.1800163208,183862.0,155677.0,10252.0,3.3009140805588686
62862.19001909075,183831.0,155671.0,10271.0,3.3109168505034177
62862.200021860685,183859.0,155653.0,10300.0,3.320919620440691
62862.21002463063,183849.0,155704.0,10304.0,3.33092239038524
62862.220027400566,183851.0,155684.0,10283.0,3.340925160322513
62862.23003017051,183906.0,155675.0,10306.0,3.350927930267062
62862.240032940455,183894.0,155700.0,10286.0,3.360930700211611
62862.25003571039,183883.0,155667.0,10286.0,3.3709334701488842
62862.26003848034,183868.0,155685.0,10297.0,3.3809362400934333
62862.270041250275,183915.0,155666.0,10314.0,3.3909390100307064
62862.28004402022,183927.0,155721.0,10336.0,3.4009417799752555
62862.290046790156,183931.0,155699.0,10354.0,3.4109445499125286
62862.3000495601,183911.0,155688.0,10319.0,3.4209473198570777
62862.31005233004,183933.0,155715.0,10352.0,3.430950089794351
62862.32005509998,183950.0,155740.0,10361.0,3.4409528597389
62862.33005786992,183951.0,155683.0,10334.0,3.450955629676173
62862.340060639865,183977.0,155754.0,10375.0,3.460958399620722
62862.3500634098,183961.0,155725.0,10372.0,3.470961169557995
62862.360066179746,183910.0,155719.0,10338.0,3.4809639395025442
62862.37006894968,183958.0,155736.0,10386.0,3.4909667094398174
62862.38007171963,183958.0,155704.0,10395.0,3.5009694793843664
62862.390074489565,183983.0,155726.0,10396.0,3.5109722493216395
62862.40007725951,183971.0,155745.0,10422.0,3.5209750192661886
62862.41008002945,184000.0,155743.0,10399.0,3.5309777892034617
62862.42008279939,184036.0,155767.0,10429.0,3.540980559148011
62862.43008556933,184020.0,155755.0,10425.0,3.550983329085284
62862.440088339274,184026.0,155734.0,10422.0,3.560986099029833
62862.45009110922,184036.0,155745.0,10455.0,3.570988868974382
62862.460093879155,184036.0,155737.0,10437.0,3.580991638911655
62862.4700966491,184036.0,155747.0,10443.0,3.5909944088562042
62862.48009941904,184018.0,155749.0,10452.0,3.6009971787934774
62862.49010218898,183991.0,155761.0,10409.0,3.6109999487380264
62862.50010495892,183970.0,155735.0,10463.0,3.6210027186752995
62862.510107728864,183937.0,155721.0,10403.0,3.6310054886198486
62862.5201104988,183901.0,155682.0,10368.0,3.6410082585571217
62862.530113268745,183843.0,155689.0,10358.0,3.651011028501671
62862.54011603868,183856.0,155666.0,10324.0,3.661013798438944
62862.55011880863,183835.0,155680.0,10311.0,3.671016568383493
62862.560121578565,183774.0,155662.0,10310.0,3.681019338320766
62862.57012434851,183788.0,155630.0,10282.0,3.691022108265315
62862.58012711845,183777.0,155621.0,10250.0,3.7010248782025883
62862.59012988839,183786.0,155649.0,10233.0,3.7110276481471374
62862.60013265833,183789.0,155664.0,10204.0,3.7210304180844105
62862.61013542827,183723.0,155647.0,10201.0,3.7310331880289596
62862.62013819821,183785.0,155660.0,10225.0,3.7410359579662327
62862.630140968155,183743.0,155608.0,10192.0,3.7510387279107817
62862.6401437381,183720.0,155618.0,10193.0,3.761041497855331
62862.65014650804,183767.0,155639.0,10217.0,3.771044267792604
62862.66014927798,183708.0,155594.0,10162.0,3.781047037737153
62862.67015204792,183741.0,155633.0,10185.0,3.791049807674426
62862.68015481786,183745.0,155601.0,10189.0,3.801052577618975
62862.6901575878,183737.0,155611.0,10163.0,3.8110553475562483
62862.700160357745,183759.0,155653.0,10177.0,3.8210581175007974
62862.71016312768,183723.0,155629.0,10164.0,3.8310608874380705
62862.72016589763,183712.0,155600.0,10149.0,3.8410636573826196
62862.730168667564,183697.0,155615.0,10190.0,3.8510664273198927
62862.74017143751,183718.0,155624.0,10140.0,3.8610691972644418
62862.750174207446,183727.0,155618.0,10159.0,3.871071967201715
62862.76017697739,183705.0,155637.0,10187.0,3.881074737146264
62862.77017974733,183711.0,155633.0,10158.0,3.891077507083537
62862.78018251727,183724.0,155592.0,10177.0,3.901080277028086
62862.79018528721,183716.0,155627.0,10159.0,3.9110830469653592
62862.800188057154,183718.0,155605.0,10158.0,3.9210858169099083
62862.81019082709,183694.0,155607.0,10175.0,3.9310885868471814
62862.820193597036,183701.0,155640.0,10164.0,3.9410913567917305
62862.83019636698,183731.0,155640.0,10161.0,3.9510941267362796
62862.84019913692,183738.0,155619.0,10179.0,3.9610968966735527
62862.85020190686,183738.0,155645.0,10149.0,3.9710996666181018
62862.8602046768,183725.0,155613.0,10146.0,3.981102436555375
62862.870207446744,183717.0,155627.0,10164.0,3.991105206499924
62862.88021021668,183739.0,155623.0,10197.0,4.001107976437197
62862.890212986626,183729.0,155635.0,10147.0,4.011110746381746
62862.90021575656,183742.0,155675.0,10189.0,4.021113516319019
62862.91021852651,183736.0,155634.0,10176.0,4.031116286263568
62862.920221296445,183706.0,155615.0,10167.0,4.041119056200841
62862.93022406639,183735.0,155664.0,10181.0,4.0511218261453905
62862.94022683633,183726.0,155608.0,10155.0,4.061124596082664
62862.95022960627,183755.0,155653.0,10189.0,4.071127366027213
62862.96023237621,183781.0,155661.0,10180.0,4.081130135964486
62862.97023514615,183787.0,155682.0,10221.0,4.091132905909035
62862.98023791609,183800.0,155694.0,10215.0,4.101135675846308
62862.990240686035,183795.0,155669.0,10214.0,4.111138445790857
62863.00024345597,183770.0,155663.0,10209.0,4.12114121572813
62863.01024622592,183811.0,155680.0,10241.0,4.131143985672679
62863.02024899586,183790.0,155650.0,10201.0,4.141146755617228
62863.0302517658,183807.0,155664.0,10235.0,4.1511495255545015
62863.04025453574,183832.0,155682.0,10234.0,4.1611522954990505
62863.05025730568,183783.0,155643.0,10219.0,4.171155065436324
62863.060260075625,183841.0,155702.0,10277.0,4.181157835380873
62863.07026284556,183832.0,155690.0,10244.0,4.191160605318146
62863.08026561551,183809.0,155685.0,10287.0,4.201163375262695
62863.090268385444,183883.0,155715.0,10309.0,4.211166145199968
62863.10027115539,183863.0,155707.0,10257.0,4.221168915144517
62863.110273925326,183863.0,155701.0,10312.0,4.23117168508179
62863.12027669527,183851.0,155719.0,10299.0,4.241174455026339
62863.13027946521,183879.0,155721.0,10283.0,4.251177224963612
62863.14028223515,183891.0,155706.0,10307.0,4.2611799949081615
62863.15028500509,183891.0,155721.0,10299.0,4.271182764845435
62863.160287775034,183888.0,155731.0,10311.0,4.281185534789984
62863.17029054497,183870.0,155705.0,10324.0,4.291188304727257
62863.180293314916,183889.0,155734.0,10342.0,4.301191074671806
62863.19029608485,183909.0,155733.0,10336.0,4.311193844609079
62863.2002988548,183903.0,155763.0,10330.0,4.321196614553628
62863.210301624735,183940.0,155754.0,10331.0,4.331199384490901
62863.22030439468,183918.0,155721.0,10367.0,4.34120215443545
62863.230307164624,183958.0,155740.0,10379.0,4.351204924379999
62863.24030993456,183949.0,155760.0,10358.0,4.361207694317272
62863.250312704506,183928.0,155726.0,10361.0,4.3712104642618215
62863.26031547444,183976.0,155747.0,10378.0,4.381213234199095
62863.27031824439,183950.0,155747.0,10373.0,4.391216004143644
62863.280321014325,183971.0,155748.0,10402.0,4.401218774080917
62863.29032378427,183942.0,155770.0,10384.0,4.411221544025466
62863.30032655421,183943.0,155723.0,10390.0,4.421224313962739
62863.31032932415,183992.0,155796.0,10401.0,4.431227083907288
62863.32033209409,183983.0,155763.0,10417.0,4.441229853844561
62863.33033486403,183977.0,155760.0,10420.0,4.45123262378911
62863.34033763397,184043.0,155780.0,10456.0,4.461235393726383
62863.350340403915,184013.0,155790.0,10439.0,4.471238163670932
62863.36034317385,184025.0,155797.0,10455.0,4.4812409336082055
62863.3703459438,184028.0,155810.0,10473.0,4.491243703552755
62863.380348713734,184047.0,155791.0,10454.0,4.501246473490028
62863.39035148368,184054.0,155783.0,10494.0,4.511249243434577
62863.400354253616,184049.0,155799.0,10477.0,4.52125201337185
62863.41035702356,184004.0,155769.0,10465.0,4.531254783316399
62863.420359793505,184029.0,155829.0,10491.0,4.541257553260948
62863.43036256344,183913.0,155766.0,10431.0,4.551260323198221
62863.44036533339,183945.0,155762.0,10431.0,4.56126309314277
62863.450368103324,183955.0,155752.0,10437.0,4.571265863080043
62863.46037087327,183918.0,155738.0,10380.0,4.581268633024592
62863.470373643206,183858.0,155750.0,10359.0,4.5912714029618655
62863.48037641315,183864.0,155724.0,10347.0,4.601274172906415
62863.49037918309,183837.0,155698.0,10329.0,4.611276942843688
62863.50038195303,183815.0,155675.0,10314.0,4.621279712788237
62863.51038472297,183808.0,155667.0,10281.0,4.63128248272551
62863.520387492914,183799.0,155688.0,10270.0,4.641285252670059
62863.53039026285,183783.0,155712.0,10278.0,4.651288022607332
62863.540393032796,183777.0,155717.0,10268.0,4.661290792551881
62863.55039580273,183816.0,155688.0,10286.0,4.671293562489154
62863.56039857268,183764.0,155658.0,10227.0,4.681296332433703
62863.570401342615,183801.0,155663.0,10219.0,4.6912991023709765
62863.58040411256,183747.0,155658.0,10228.0,4.7013018723155255
62863.5904068825,183777.0,155689.0,10244.0,4.711304642252799
62863.60040965244,183773.0,155685.0,10240.0,4.721307412197348
62863.610412422386,183756.0,155682.0,10209.0,4.731310182141897
62863.62041519232,183779.0,155686.0,10231.0,4.74131295207917
62863.63041796227,183749.0,155654.0,10224.0,4.751315722023719
62863.640420732205,183761.0,155678.0,10212.0,4.761318491960992
62863.65042350215,183760.0,155699.0,10236.0,4.771321261905541
62863.66042627209,183744.0,155659.0,10200.0,4.781324031842814
62863.67042904203,183772.0,155694.0,10207.0,4.791326801787363
62863.68043181197,183762.0,155661.0,10226.0,4.8013295717246365
62863.69043458191,183746.0,155666.0,10221.0,4.8113323416691856
62863.70043735185,183738.0,155656.0,10218.0,4.821335111606459
62863.710440121795,183736.0,155650.0,10240.0,4.831337881551008
62863.72044289173,183763.0,155667.0,10212.0,4.841340651488281
62863.73044566168,183759.0,155665.0,10228.0,4.85134342143283
62863.740448431614,183743.0,155651.0,10236.0,4.861346191370103
62863.75045120156,183737.0,155695.0,10224.0,4.871348961314652
62863.760453971496,183776.0,155668.0,10211.0,4.881351731251925
62863.77045674144,183759.0,155690.0,10213.0,4.891354501196474
62863.78045951138,183788.0,155692.0,10193.0,4.901357271133747
62863.79046228132,183726.0,155683.0,10208.0,4.9113600410782965
62863.80046505127,183770.0,155676.0,10223.0,4.921362811022846
62863.810467821204,183794.0,155669.0,10241.0,4.931365580960119
62863.82047059115,183791.0,155689.0,10214.0,4.941368350904668
62863.830473361086,183771.0,155691.0,10237.0,4.951371120841941
62863.84047613103,183772.0,155684.0,10236.0,4.96137389078649
62863.85047890097,183773.0,155688.0,10217.0,4.971376660723763
62863.86048167091,183793.0,155672.0,10263.0,4.981379430668312
62863.87048444085,183806.0,155678.0,10240.0,4.991382200605585
62863.880487210794,183802.0,155712.0,10253.0,5.001384970550134
62863.89048998073,183828.0,155718.0,10279.0,5.011387740487407
62863.900492750676,183821.0,155724.0,10268.0,5.0213905104319565
62863.91049552061,183846.0,155712.0,10286.0,5.03139328036923
62863.92049829056,183831.0,155714.0,10271.0,5.041396050313779
62863.930501060495,183841.0,155728.0,10274.0,5.051398820251052
62863.94050383044,183861.0,155762.0,10305.0,5.061401590195601
62863.95050660038,183844.0,155736.0,10278.0,5.071404360132874
62863.96050937032,183839.0,155745.0,10319.0,5.081407130077423
62863.97051214026,183823.0,155706.0,10300.0,5.091409900014696
62863.9805149102,183862.0,155704.0,10306.0,5.101412669959245
62863.99051768014,183847.0,155723.0,10301.0,5.111415439896518
62864.000520450085,183869.0,155727.0,10309.0,5.121418209841067
62864.01052322003,183869.0,155762.0,10327.0,5.1314209797856165
62864.02052598997,183876.0,155724.0,10321.0,5.14142374972289
62864.03052875991,183917.0,155758.0,10321.0,5.151426519667439
62864.04053152985,183910.0,155756.0,10329.0,5.161429289604712
62864.05053429979,183886.0,155751.0,10360.0,5.171432059549261
62864.06053706973,183931.0,155785.0,10369.0,5.181434829486534
62864.070539839675,183894.0,155730.0,10364.0,5.191437599431083
62864.08054260961,183925.0,155760.0,10355.0,5.201440369368356
62864.09054537956,183894.0,155759.0,10378.0,5.211443139312905
62864.100548149494,183910.0,155777.0,10367.0,5.221445909250178
62864.11055091944,183957.0,155800.0,10408.0,5.2314486791947274
62864.120553689376,183942.0,155786.0,10386.0,5.241451449132001
62864.13055645932,183933.0,155748.0,10401.0,5.25145421907655
62864.14055922926,183927.0,155759.0,10387.0,5.261456989013823
62864.1505619992,183942.0,155794.0,10389.0,5.271459758958372
62864.16056476914,184010.0,155792.0,10439.0,5.281462528895645
62864.170567539084,183966.0,155783.0,10405.0,5.291465298840194
62864.18057030902,183968.0,155775.0,10407.0,5.301468068777467
62864.190573078966,183978.0,155807.0,10448.0,5.311470838722016
62864.20057584891,183994.0,155780.0,10427.0,5.321473608666565
62864.21057861885,184017.0,155808.0,10446.0,5.331476378603838
62864.22058138879,183944.0,155753.0,10435.0,5.3414791485483875
62864.23058415873,184014.0,155777.0,10458.0,5.351481918485661
62864.240586928674,183973.0,155787.0,10452.0,5.36148468843021
62864.25058969861,184029.0,155811.0,10477.0,5.371487458367483
62864.260592468556,184006.0,155824.0,10475.0,5.381490228312032
62864.27059523849,184019.0,155835.0,10483.0,5.391492998249305
62864.28059800844,184043.0,155830.0,10468.0,5.401495768193854
62864.290600778375,184055.0,155840.0,10486.0,5.411498538131127
62864.30060354832,184029.0,155819.0,10528.0,5.421501308075676
62864.31060631826,184071.0,155840.0,10510.0,5.431504078012949
62864.3206090882,184074.0,155837.0,10503.0,5.441506847957498
62864.33061185814,184088.0,155852.0,10537.0,5.4515096178947715
62864.34061462808,184099.0,155865.0,10547.0,5.461512387839321
62864.35061739802,184072.0,155829.0,10517.0,5.471515157776594
62864.360620167965,184071.0,155861.0,10559.0,5.481517927721143
62864.3706229379,184097.0,155850.0,10553.0,5.491520697658416
62864.38062570785,184060.0,155834.0,10533.0,5.501523467602965
62864.39062847779,184087.0,155865.0,10520.0,5.511526237547514
62864.40063124773,184004.0,155814.0,10500.0,5.521529007484787
62864.41063401767,183991.0,155819.0,10507.0,5.531531777429336
62864.42063678761,183981.0,155793.0,10503.0,5.541534547366609
62864.430639557555,183927.0,155779.0,10449.0,5.551537317311158
62864.44064232749,183929.0,155785.0,10458.0,5.5615400872484315
62864.45064509744,183893.0,155769.0,10416.0,5.571542857192981
62864.460647867374,183848.0,155746.0,10396.0,5.581545627130254
62864.47065063732,183881.0,155762.0,10418.0,5.591548397074803
62864.480653407256,183835.0,155742.0,10357.0,5.601551167012076
62864.4906561772,183882.0,155767.0,10368.0,5.611553936956625
62864.50065894714,183857.0,155786.0,10376.0,5.621556706893898
62864.51066171708,183806.0,155728.0,10340.0,5.631559476838447
62864.52066448702,183825.0,155742.0,10348.0,5.64156224677572
62864.530667256964,183848.0,155734.0,10336.0,5.651565016720269
62864.5406700269,183829.0,155728.0,10316.0,5.6615677866575425
62864.550672796846,183838.0,155714.0,10331.0,5.6715705566020915
62864.56067556678,183813.0,155715.0,10313.0,5.681573326539365
62864.57067833673,183832.0,155729.0,10333.0,5.691576096483914
62864.580681106665,183843.0,155742.0,10344.0,5.701578866421187
62864.59068387661,183776.0,155708.0,10306.0,5.711581636365736
62864.600686646554,183785.0,155715.0,10304.0,5.721584406310285
62864.61068941649,183825.0,155730.0,10323.0,5.731587176247558
62864.620692186436,183854.0,155792.0,10350.0,5.741589946192107
62864.63069495637,183811.0,155715.0,10322.0,5.75159271612938
62864.64069772632,183843.0,155740.0,10325.0,5.761595486073929
62864.650700496255,183821.0,155729.0,10332.0,5.7715982560112025
62864.6607032662,183816.0,155718.0,10359.0,5.7816010259557515
62864.67070603614,183820.0,155736.0,10333.0,5.791603795893025
62864.68070880608,183845.0,155715.0,10327.0,5.801606565837574
62864.69071157602,183825.0,155728.0,10329.0,5.811609335774847
62864.70071434596,183793.0,155703.0,10315.0,5.821612105719396
62864.7107171159,183796.0,155706.0,10337.0,5.831614875656669
62864.720719885845,183854.0,155752.0,10333.0,5.841617645601218
62864.73072265578,183829.0,155736.0,10331.0,5.851620415538491
62864.74072542573,183804.0,155711.0,10318.0,5.86162318548304
62864.750728195664,183856.0,155747.0,10368.0,5.871625955420313
62864.76073096561,183783.0,155711.0,10318.0,5.8816287253648625
62864.770733735546,183812.0,155722.0,10327.0,5.891631495302136
62864.78073650549,183801.0,155734.0,10317.0,5.901634265246685
62864.790739275435,183814.0,155730.0,10334.0,5.911637035191234
62864.80074204537,183859.0,155737.0,10329.0,5.921639805128507
62864.81074481532,183841.0,155743.0,10340.0,5.931642575073056
62864.820747585254,183840.0,155739.0,10342.0,5.941645345010329
62864.8307503552,183824.0,155724.0,10331.0,5.951648114954878
62864.840753125136,183869.0,155732.0,10353.0,5.961650884892151
62864.85075589508,183864.0,155753.0,10352.0,5.9716536548367
62864.86075866502,183852.0,155776.0,10365.0,5.981656424773973
62864.87076143496,183841.0,155752.0,10341.0,5.9916591947185225
62864.8807642049,183890.0,155763.0,10393.0,6.001661964655796
62864.890766974844,183856.0,155718.0,10394.0,6.011664734600345
62864.90076974478,183861.0,155738.0,10378.0,6.021667504537618
62864.910772514726,183878.0,155771.0,10409.0,6.031670274482167
62864.92077528466,183880.0,155732.0,10370.0,6.04167304441944
62864.93077805461,183902.0,155783.0,10397.0,6.051675814363989
62864.940780824545,183879.0,155735.0,10391.0,6.061678584301262
62864.95078359449,183931.0,155791.0,10433.0,6.071681354245811
62864.96078636443,183894.0,155789.0,10420.0,6.081684124183084
62864.97078913437,183928.0,155797.0,10407.0,6.091686894127633
62864.980791904316,183892.0,155778.0,10438.0,6.1016896640721825
62864.99079467425,183933.0,155811.0,10426.0,6.111692434009456
62865.0007974442,183946.0,155762.0,10438.0,6.121695203954005
62865.010800214135,183939.0,155803.0,10463.0,6.131697973891278
62865.02080298408,183929.0,155796.0,10452.0,6.141700743835827
62865.03080575402,183948.0,155788.0,10465.0,6.1517035137731
62865.04080852396,183954.0,155787.0,10473.0,6.161706283717649
62865.0508112939,183953.0,155792.0,10475.0,6.171709053654922
62865.06081406384,183941.0,155815.0,10472.0,6.181711823599471
62865.07081683378,184001.0,155817.0,10463.0,6.191714593536744
62865.080819603725,183967.0,155780.0,10473.0,6.201717363481293
62865.09082237366,184010.0,155802.0,10527.0,6.2117201334185665
62865.10082514361,183984.0,155822.0,10482.0,6.221722903363116
62865.110827913544,184003.0,155840.0,10486.0,6.231725673300389
62865.12083068349,184018.0,155818.0,10509.0,6.241728443244938
62865.130833453426,184025.0,155837.0,10543.0,6.251731213182211
62865.14083622337,184023.0,155840.0,10514.0,6.26173398312676
62865.15083899331,184012.0,155841.0,10507.0,6.271736753064033
62865.16084176325,184036.0,155853.0,10545.0,6.281739523008582
62865.1708445332,183997.0,155832.0,10542.0,6.291742292953131
62865.180847303134,184029.0,155826.0,10526.0,6.301745062890404
62865.19085007308,184012.0,155838.0,10537.0,6.311747832834953
62865.200852843016,184068.0,155846.0,10548.0,6.321750602772227
62865.21085561296,184040.0,155865.0,10566.0,6.331753372716776
62865.2208583829,184072.0,155859.0,10552.0,6.341756142654049
62865.23086115284,184062.0,155882.0,10561.0,6.351758912598598
62865.24086392278,184074.0,155865.0,10565.0,6.361761682535871
62865.250866692724,184090.0,155876.0,10569.0,6.37176445248042
62865.26086946266,184108.0,155889.0,10600.0,6.381767222417693
62865.270872232606,184073.0,155864.0,10619.0,6.391769992362242
62865.28087500254,184095.0,155865.0,10613.0,6.401772762299515
62865.29087777249,184107.0,155892.0,10628.0,6.411775532244064
62865.300880542425,184095.0,155877.0,10612.0,6.4217783021813375
62865.31088331237,184096.0,155857.0,10606.0,6.431781072125887
62865.32088608231,184109.0,155880.0,10620.0,6.44178384206316
62865.33088885225,184117.0,155923.0,10639.0,6.451786612007709
62865.34089162219,184126.0,155889.0,10639.0,6.461789381944982
62865.35089439213,184131.0,155874.0,10653.0,6.471792151889531
62865.36089716207,184086.0,155877.0,10626.0,6.481794921826804
62865.370899932015,184070.0,155855.0,10621.0,6.491797691771353
62865.38090270196,184050.0,155850.0,10606.0,6.501800461715902
62865.3909054719,183973.0,155841.0,10585.0,6.511803231653175
62865.40090824184,183934.0,155840.0,10561.0,6.521806001597724
62865.41091101178,183983.0,155820.0,10552.0,6.5318087715349975
62865.42091378172,183939.0,155828.0,10531.0,6.541811541479547
62865.43091655166,183930.0,155801.0,10496.0,6.55181431141682
62865.440919321605,183897.0,155801.0,10511.0,6.561817081361369
62865.45092209154,183895.0,155744.0,10474.0,6.571819851298642
62865.46092486149,183878.0,155784.0,10473.0,6.581822621243191
62865.470927631424,183866.0,155758.0,10458.0,6.591825391180464
62865.48093040137,183889.0,155763.0,10464.0,6.601828161125013
62865.490933171306,183856.0,155764.0,10426.0,6.611830931062286
62865.50093594125,183879.0,155769.0,10435.0,6.621833701006835
62865.51093871119,183877.0,155801.0,10442.0,6.631836470944108
62865.52094148113,183834.0,155765.0,10410.0,6.6418392408886575
62865.53094425107,183851.0,155771.0,10425.0,6.651842010825931
62865.540947021014,183877.0,155774.0,10423.0,6.66184478077048
62865.55094979095,183784.0,155766.0,10401.0,6.671847550707753
62865.560952560896,183820.0,155756.0,10415.0,6.681850320652302
62865.57095533084,183839.0,155749.0,10416.0,6.691853090596851
62865.58095810078,183856.0,155764.0,10422.0,6.701855860534124
62865.59096087072,183851.0,155782.0,10441.0,6.711858630478673
62865.60096364066,183872.0,155768.0,10411.0,6.721861400415946
62865.610966410604,183851.0,155755.0,10398.0,6.731864170360495
62865.62096918054,183845.0,155767.0,10422.0,6.7418669402977685
62865.630971950486,183840.0,155746.0,10417.0,6.7518697102423175
62865.64097472042,183849.0,155764.0,10415.0,6.761872480179591
62865.65097749037,183844.0,155735.0,10432.0,6.77187525012414
62865.660980260305,183863.0,155761.0,10421.0,6.781878020061413
62865.67098303025,183856.0,155757.0,10408.0,6.791880790005962
62865.68098580019,183820.0,155758.0,10383.0,6.801883559943235
62865.69098857013,183845.0,155720.0,10402.0,6.811886329887784
62865.70099134007,183836.0,155754.0,10410.0,6.821889099825057
62865.71099411001,183843.0,155770.0,10407.0,6.831891869769606
62865.72099687995,183844.0,155727.0,10406.0,6.841894639706879
62865.730999649895,183848.0,155752.0,10437.0,6.8518974096514285
62865.74100241983,183842.0,155753.0,10419.0,6.861900179588702
62865.75100518978,183819.0,155739.0,10410.0,6.871902949533251
62865.76100795972,183871.0,155762.0,10400.0,6.8819057194778
62865.77101072966,183829.0,155746.0,10386.0,6.891908489415073
62865.7810134996,183866.0,155755.0,10410.0,6.901911259359622
62865.79101626954,183892.0,155789.0,10419.0,6.911914029296895
62865.801019039485,183869.0,155752.0,10396.0,6.921916799241444
62865.81102180942,183894.0,155775.0,10452.0,6.931919569178717
62865.82102457937,183876.0,155761.0,10419.0,6.941922339123266
62865.831027349304,183843.0,155748.0,10422.0,6.951925109060539
62865.84103011925,183845.0,155756.0,10414.0,6.9619278790050885
62865.851032889186,183853.0,155771.0,10430.0,6.971930648942362
62865.86103565913,183880.0,155778.0,10435.0,6.981933418886911
62865.87103842907,183907.0,155799.0,10436.0,6.991936188824184
62865.88104119901,183880.0,155769.0,10444.0,7.001938958768733
62865.89104396895,183912.0,155778.0,10474.0,7.011941728706006
62865.901046738894,183910.0,155779.0,10445.0,7.021944498650555
62865.91104950883,183878.0,155776.0,10469.0,7.031947268587828
62865.921052278776,183924.0,155793.0,10481.0,7.041950038532377
62865.93105504871,183942.0,155810.0,10484.0,7.05195280846965
62865.94105781866,183925.0,155802.0,10487.0,7.061955578414199
62865.951060588595,183903.0,155774.0,10515.0,7.0719583483514725
62865.96106335854,183927.0,155796.0,10456.0,7.081961118296022
62865.971066128484,183919.0,155774.0,10504.0,7.091963888240571
62865.98106889842,183955.0,155814.0,10487.0,7.101966658177844
62865.991071668366,183968.0,155806.0,10505.0,7.111969428122393
62866.0010744383,183946.0,155785.0,10537.0,7.121972198059666
62866.01107720825,183927.0,155828.0,10513.0,7.131974968004215
62866.021079978185,183964.0,155825.0,10507.0,7.141977737941488
62866.03108274813,183974.0,155815.0,10512.0,7.151980507886037
62866.04108551807,183996.0,155843.0,10520.0,7.16198327782331
62866.05108828801,183979.0,155801.0,10501.0,7.171986047767859
62866.06109105795,184004.0,155823.0,10556.0,7.1819888177051325
62866.07109382789,184000.0,155830.0,10534.0,7.191991587649682
62866.08109659783,183981.0,155804.0,10534.0,7.201994357586955
62866.091099367775,183995.0,155834.0,10571.0,7.211997127531504
62866.10110213771,183993.0,155812.0,10535.0,7.221999897468777
62866.11110490766,184024.0,155833.0,10552.0,7.232002667413326
62866.121107677594,184011.0,155853.0,10545.0,7.242005437350599
62866.13111044754,183998.0,155817.0,10551.0,7.252008207295148
62866.141113217476,184040.0,155871.0,10590.0,7.262010977232421
62866.15111598742,184030.0,155853.0,10569.0,7.27201374717697
62866.161118757365,184064.0,155875.0,10585.0,7.282016517121519
62866.1711215273,184043.0,155874.0,10601.0,7.2920192870587925
62866.18112429725,184055.0,155860.0,10571.0,7.302022057003342
62866.191127067184,184079.0,155869.0,10601.0,7.312024826940615
62866.20112983713,184045.0,155870.0,10629.0,7.322027596885164
62866.211132607066,184079.0,155885.0,10612.0,7.332030366822437
62866.22113537701,184056.0,155837.0,10634.0,7.342033136766986
62866.23113814695,184089.0,155876.0,10610.0,7.352035906704259
62866.24114091689,184041.0,155844.0,10612.0,7.362038676648808
62866.25114368683,184059.0,155837.0,10632.0,7.372041446586081
62866.261146456774,184055.0,155856.0,10593.0,7.38204421653063
62866.27114922671,184045.0,155834.0,10601.0,7.3920469864679035
62866.281151996656,184007.0,155843.0,10575.0,7.4020497564124526
62866.29115476659,183986.0,155833.0,10565.0,7.412052526349726
62866.30115753654,183952.0,155797.0,10549.0,7.422055296294275
62866.311160306475,183943.0,155798.0,10526.0,7.432058066231548
62866.32116307642,183916.0,155795.0,10523.0,7.442060836176097
62866.33116584636,183876.0,155760.0,10492.0,7.45206360611337
62866.3411686163,183899.0,155809.0,10507.0,7.462066376057919
62866.351171386246,183881.0,155772.0,10480.0,7.472069146002468
62866.36117415618,183825.0,155766.0,10465.0,7.482071915939741
62866.37117692613,183856.0,155781.0,10480.0,7.49207468588429
62866.381179696065,183796.0,155747.0,10424.0,7.5020774558215635
62866.39118246601,183853.0,155769.0,10432.0,7.512080225766113
62866.40118523595,183880.0,155785.0,10444.0,7.522082995703386
62866.41118800589,183831.0,155745.0,10398.0,7.532085765647935
62866.42119077583,183876.0,155773.0,10457.0,7.542088535585208
62866.43119354577,183835.0,155753.0,10428.0,7.552091305529757
62866.44119631571,183835.0,155742.0,10420.0,7.56209407546703
62866.451199085655,183840.0,155764.0,10436.0,7.572096845411579
62866.46120185559,183847.0,155777.0,10421.0,7.582099615348852
62866.47120462554,183859.0,155765.0,10426.0,7.592102385293401
62866.481207395474,183859.0,155731.0,10411.0,7.602105155230674
62866.49121016542,183827.0,155713.0,10413.0,7.6121079251752235
62866.501212935356,183836.0,155772.0,10434.0,7.622110695112497
62866.5112157053,183851.0,155753.0,10425.0,7.632113465057046
62866.52121847524,183817.0,155760.0,10397.0,7.642116234994319
62866.53122124518,183873.0,155772.0,10445.0,7.652119004938868
62866.54122401513,183879.0,155772.0,10408.0,7.662121774883417
62866.551226785065,183852.0,155761.0,10422.0,7.67212454482069
62866.56122955501,183836.0,155766.0,10422.0,7.682127314765239
62866.571232324946,183849.0,155775.0,10419.0,7.692130084702512
62866.58123509489,183835.0,155724.0,10407.0,7.702132854647061
62866.59123786483,183833.0,155739.0,10408.0,7.712135624584334
62866.60124063477,183837.0,155768.0,10423.0,7.7221383945288835
62866.61124340471,183782.0,155738.0,10402.0,7.732141164466157
62866.621246174655,183851.0,155779.0,10424.0,7.742143934410706
62866.63124894459,183837.0,155751.0,10412.0,7.752146704347979
62866.641251714536,183835.0,155745.0,10397.0,7.762149474292528
62866.65125448447,183871.0,155775.0,10429.0,7.772152244229801
62866.66125725442,183837.0,155725.0,10403.0,7.78215501417435
62866.671260024355,183859.0,155752.0,10415.0,7.792157784111623
62866.6812627943,183871.0,155754.0,10429.0,7.802160554056172
62866.69126556424,183836.0,155752.0,10407.0,7.812163323993445
62866.70126833418,183885.0,155770.0,10450.0,7.8221660939379944
62866.71127110412,183870.0,155768.0,10419.0,7.832168863875268
62866.72127387406,183859.0,155739.0,10420.0,7.842171633819817
62866.731276644,183885.0,155784.0,10455.0,7.85217440375709
62866.741279413945,183859.0,155736.0,10408.0,7.862177173701639
62866.75128218389,183902.0,155784.0,10464.0,7.872179943646188
62866.76128495383,183894.0,155803.0,10464.0,7.882182713583461
62866.77128772377,183864.0,155780.0,10448.0,7.89218548352801
62866.78129049371,183911.0,155791.0,10485.0,7.902188253465283
62866.791293263654,183921.0,155790.0,10455.0,7.912191023409832
62866.80129603359,183907.0,155787.0,10465.0,7.922193793347105
62866.811298803535,183946.0,155804.0,10490.0,7.9321965632916545
62866.82130157347,183941.0,155813.0,10469.0,7.942199333228928
62866.83130434342,183945.0,155793.0,10479.0,7.952202103173477
62866.841307113355,183970.0,155828.0,10480.0,7.96220487311075
62866.8513098833,183947.0,155781.0,10483.0,7.972207643055299
62866.86131265324,183931.0,155774.0,10476.0,7.982210412992572
62866.87131542318,183960.0,155803.0,10491.0,7.992213182937121
62866.88131819312,183904.0,155835.0,10510.0,8.002215952874394
62866.89132096306,183928.0,155782.0,10486.0,8.012218722818943
62866.901323733,183961.0,155800.0,10493.0,8.022221492756216
62866.911326502945,183978.0,155806.0,10524.0,8.032224262700765
62866.92132927288,183972.0,155814.0,10517.0,8.042227032638039
62866.93133204283,183995.0,155843.0,10542.0,8.052229802582588
62866.94133481277,183965.0,155793.0,10516.0,8.062232572527137
62866.95133758271,183984.0,155823.0,10548.0,8.07223534246441
62866.96134035265,183984.0,155848.0,10545.0,8.082238112408959
62866.97134312259,183980.0,155814.0,10514.0,8.092240882346232
62866.981345892535,184022.0,155840.0,10567.0,8.102243652290781
62866.99134866247,183982.0,155849.0,10537.0,8.112246422228054
62867.00135143242,184024.0,155850.0,10554.0,8.122249192172603
62867.011354202354,184081.0,155843.0,10574.0,8.132251962109876
62867.0213569723,183986.0,155834.0,10539.0,8.142254732054425
62867.031359742236,184050.0,155846.0,10578.0,8.152257501991699
62867.04136251218,184037.0,155863.0,10582.0,8.162260271936248
62867.05136528212,184046.0,155830.0,10555.0,8.17226304187352
62867.06136805206,184075.0,155867.0,10597.0,8.18226581181807
62867.071370822,184070.0,155860.0,10564.0,8.192268581755343
62867.081373591944,184054.0,155850.0,10578.0,8.202271351699892
62867.09137636188,184053.0,155851.0,10591.0,8.212274121637165
62867.101379131826,183972.0,155818.0,10550.0,8.222276891581714
62867.11138190176,184008.0,155844.0,10558.0,8.232279661518987
62867.12138467171,183956.0,155808.0,10541.0,8.242282431463536
62867.13138744165,183899.0,155792.0,10515.0,8.252285201408085
62867.14139021159,183918.0,155779.0,10504.0,8.262287971345359
62867.151392981534,183886.0,155781.0,10464.0,8.272290741289908
62867.16139575147,183860.0,155763.0,10454.0,8.28229351122718
62867.171398521416,183820.0,155769.0,10461.0,8.29229628117173
62867.18140129135,183823.0,155783.0,10428.0,8.302299051109003
62867.1914040613,183853.0,155760.0,10420.0,8.312301821053552
62867.201406831235,183829.0,155749.0,10403.0,8.322304590990825
62867.21140960118,183785.0,155717.0,10386.0,8.332307360935374
62867.22141237112,183781.0,155723.0,10384.0,8.342310130872647
62867.23141514106,183779.0,155743.0,10371.0,8.352312900817196
62867.241417911,183821.0,155745.0,10375.0,8.36231567075447
62867.25142068094,183845.0,155728.0,10397.0,8.372318440699019
62867.26142345088,183840.0,155785.0,10376.0,8.382321210636292
62867.271426220825,183779.0,155735.0,10349.0,8.39232398058084
62867.28142899076,183783.0,155711.0,10357.0,8.402326750518114
62867.29143176071,183784.0,155727.0,10384.0,8.412329520462663
62867.301434530644,183794.0,155720.0,10375.0,8.422332290399936
62867.31143730059,183810.0,155732.0,10361.0,8.432335060344485
62867.32144007053,183799.0,155746.0,10361.0,8.442337830289034
62867.33144284047,183787.0,155736.0,10366.0,8.452340600226307
62867.341445610415,183808.0,155758.0,10378.0,8.462343370170856
62867.35144838035,183795.0,155731.0,10343.0,8.47234614010813
62867.3614511503,183822.0,155740.0,10353.0,8.482348910052679
62867.371453920234,183835.0,155762.0,10344.0,8.492351679989952
62867.38145669018,183782.0,155735.0,10340.0,8.5023544499345
62867.391459460116,183829.0,155771.0,10388.0,8.512357219871774
62867.40146223006,183799.0,155743.0,10348.0,8.522359989816323
62867.411465,183765.0,155716.0,10348.0,8.532362759753596
62867.42146776994,183785.0,155719.0,10358.0,8.542365529698145
62867.43147053988,183755.0,155709.0,10333.0,8.552368299635418
62867.441473309824,183786.0,155727.0,10345.0,8.562371069579967
62867.45147607976,183794.0,155760.0,10349.0,8.57237383951724
62867.461478849706,183783.0,155697.0,10337.0,8.58237660946179
62867.47148161964,183761.0,155728.0,10341.0,8.592379379399063
62867.48148438959,183785.0,155741.0,10336.0,8.602382149343612
62867.491487159525,183753.0,155745.0,10337.0,8.612384919280885
62867.50148992947,183814.0,155762.0,10361.0,8.622387689225434
62867.51149269941,183786.0,155707.0,10339.0,8.632390459162707
62867.52149546935,183810.0,155733.0,10340.0,8.642393229107256
62867.531498239296,183807.0,155765.0,10364.0,8.652395999051805
62867.54150100923,183788.0,155729.0,10343.0,8.662398768989078
62867.55150377918,183814.0,155735.0,10372.0,8.672401538933627
62867.561506549115,183816.0,155752.0,10359.0,8.6824043088709
62867.57150931906,183777.0,155723.0,10358.0,8.69240707881545
62867.581512089,183815.0,155746.0,10364.0,8.702409848752723
62867.59151485894,183840.0,155779.0,10378.0,8.712412618697272
62867.60151762888,183858.0,155776.0,10376.0,8.722415388634545
62867.61152039882,183903.0,155778.0,10416.0,8.732418158579094
62867.62152316876,183866.0,155771.0,10361.0,8.742420928516367
62867.631525938705,183873.0,155785.0,10411.0,8.752423698460916
62867.64152870864,183883.0,155790.0,10391.0,8.76242646839819
62867.65153147859,183890.0,155768.0,10401.0,8.772429238342738
62867.661534248524,183874.0,155771.0,10386.0,8.782432008280011
62867.67153701847,183911.0,155802.0,10408.0,8.79243477822456
62867.681539788406,183869.0,155762.0,10407.0,8.802437548161834
62867.69154255835,183867.0,155757.0,10401.0,8.812440318106383
62867.70154532829,183871.0,155795.0,10403.0,8.822443088043656
62867.71154809823,183891.0,155801.0,10415.0,8.832445857988205
62867.72155086818,183911.0,155795.0,10432.0,8.842448627932754
62867.731553638114,183920.0,155810.0,10424.0,8.852451397870027
62867.74155640806,183914.0,155785.0,10421.0,8.862454167814576
62867.751559177996,183941.0,155828.0,10445.0,8.87245693775185
62867.76156194794,183944.0,155804.0,10449.0,8.882459707696398
62867.77156471788,183923.0,155781.0,10448.0,8.892462477633671
62867.78156748782,183943.0,155809.0,10473.0,8.90246524757822
62867.79157025776,183930.0,155802.0,10443.0,8.912468017515494
62867.801573027704,183972.0,155817.0,10465.0,8.922470787460043
62867.81157579764,183902.0,155836.0,10451.0,8.932473557397316
62867.821578567586,183929.0,155798.0,10470.0,8.942476327341865
62867.83158133752,183977.0,155846.0,10478.0,8.952479097279138
62867.84158410747,183988.0,155838.0,10471.0,8.962481867223687
62867.851586877405,183968.0,155864.0,10479.0,8.97248463716096
62867.86158964735,183975.0,155812.0,10470.0,8.98248740710551
62867.87159241729,183990.0,155830.0,10487.0,8.992490177042782
62867.88159518723,184013.0,155846.0,10476.0,9.002492946987331
62867.89159795717,184010.0,155829.0,10536.0,9.012495716924604
62867.90160072711,183997.0,155848.0,10506.0,9.022498486869154
62867.91160349706,184038.0,155887.0,10537.0,9.032501256813703
62867.921606266995,183992.0,155845.0,10514.0,9.042504026750976
62867.93160903694,183945.0,155812.0,10495.0,9.052506796695525
62867.94161180688,183919.0,155829.0,10470.0,9.062509566632798
62867.95161457682,183863.0,155796.0,10442.0,9.072512336577347
62867.96161734676,183849.0,155792.0,10428.0,9.08251510651462
62867.9716201167,183837.0,155778.0,10412.0,9.09251787645917
62867.98162288664,183823.0,155805.0,10390.0,9.102520646396442
62867.991625656585,183768.0,155738.0,10383.0,9.112523416340991
62868.00162842652,183769.0,155743.0,10339.0,9.122526186278265
62868.01163119647,183767.0,155759.0,10336.0,9.132528956222814
62868.021633966404,183761.0,155719.0,10324.0,9.142531726160087
62868.03163673635,183765.0,155738.0,10303.0,9.152534496104636
62868.041639506286,183713.0,155728.0,10306.0,9.162537266041909
62868.05164227623,183737.0,155720.0,10286.0,9.172540035986458
62868.06164504617,183719.0,155738.0,10286.0,9.182542805923731
62868.07164781611,183687.0,155695.0,10257.0,9.19254557586828
62868.08165058605,183728.0,155732.0,10271.0,9.202548345805553
62868.091653355994,183699.0,155716.0,10261.0,9.212551115750102
62868.10165612593,183665.0,155697.0,10271.0,9.222553885687375
62868.111658895876,183710.0,155746.0,10254.0,9.232556655631925
62868.12166166582,183657.0,155698.0,10258.0,9.242559425576474
62868.13166443576,183700.0,155712.0,10227.0,9.252562195513747
62868.1416672057,183664.0,155718.0,10241.0,9.262564965458296
62868.15166997564,183652.0,155698.0,10210.0,9.272567735395569
62868.161672745584,183685.0,155697.0,10246.0,9.282570505340118
62868.17167551552,183679.0,155704.0,10227.0,9.292573275277391
62868.181678285466,183691.0,155720.0,10229.0,9.30257604522194
62868.1916810554,183709.0,155733.0,10250.0,9.312578815159213
62868.20168382535,183707.0,155722.0,10247.0,9.322581585103762
62868.211686595285,183683.0,155695.0,10212.0,9.332584355041035
62868.22168936523,183680.0,155698.0,10243.0,9.342587124985585
62868.23169213517,183666.0,155700.0,10211.0,9.352589894922858
62868.24169490511,183673.0,155688.0,10210.0,9.362592664867407
62868.25169767505,183681.0,155707.0,10218.0,9.37259543480468
62868.26170044499,183678.0,155700.0,10209.0,9.382598204749229
62868.27170321493,183688.0,155694.0,10231.0,9.392600974686502
62868.281705984875,183688.0,155737.0,10209.0,9.402603744631051
62868.29170875481,183671.0,155722.0,10208.0,9.412606514568324
62868.30171152476,183695.0,155722.0,10176.0,9.422609284512873
62868.3117142947,183686.0,155687.0,10181.0,9.432612054457422
62868.32171706464,183689.0,155719.0,10196.0,9.442614824394695
62868.33171983458,183689.0,155727.0,10214.0,9.452617594339245
62868.34172260452,183695.0,155702.0,10202.0,9.462620364276518
62868.351725374465,183676.0,155696.0,10224.0,9.472623134221067
62868.3617281444,183700.0,155728.0,10246.0,9.48262590415834
62868.37173091435,183697.0,155723.0,10227.0,9.492628674102889
62868.381733684284,183725.0,155705.0,10215.0,9.502631444040162
62868.39173645423,183737.0,155744.0,10245.0,9.512634213984711
62868.401739224166,183732.0,155757.0,10211.0,9.522636983921984
62868.41174199411,183731.0,155740.0,10236.0,9.532639753866533
62868.42174476405,183715.0,155747.0,10244.0,9.542642523803806
62868.43174753399,183718.0,155724.0,10228.0,9.552645293748355
62868.44175030393,183731.0,155741.0,10265.0,9.562648063685629
62868.451753073874,183749.0,155764.0,10254.0,9.572650833630178
62868.46175584381,183747.0,155772.0,10306.0,9.58265360356745
62868.471758613756,183789.0,155762.0,10305.0,9.592656373512
62868.48176138369,183754.0,155757.0,10262.0,9.602659143449273
62868.49176415364,183757.0,155763.0,10272.0,9.612661913393822
62868.50176692358,183788.0,155769.0,10293.0,9.622664683338371
62868.51176969352,183809.0,155792.0,10311.0,9.632667453275644
62868.521772463464,183765.0,155756.0,10272.0,9.642670223220193
62868.5317752334,183804.0,155769.0,10292.0,9.652672993157466
62868.541778003346,183808.0,155771.0,10299.0,9.662675763102015
62868.55178077328,183809.0,155787.0,10283.0,9.672678533039289
62868.56178354323,183781.0,155791.0,10280.0,9.682681302983838
62868.571786313165,183812.0,155785.0,10318.0,9.69268407292111
62868.58178908311,183841.0,155813.0,10351.0,9.70268684286566
62868.59179185305,183854.0,155816.0,10344.0,9.712689612802933
62868.60179462299,183823.0,155789.0,10329.0,9.722692382747482
62868.61179739293,183797.0,155757.0,10320.0,9.732695152684755
62868.62180016287,183806.0,155770.0,10333.0,9.742697922629304
62868.63180293281,183858.0,155781.0,10352.0,9.752700692566577
62868.641805702755,183847.0,155825.0,10353.0,9.762703462511126
62868.65180847269,183861.0,155820.0,10355.0,9.7727062324484
62868.66181124264,183888.0,155862.0,10375.0,9.782709002392949
62868.671814012574,183884.0,155842.0,10392.0,9.792711772330222
62868.68181678252,183867.0,155800.0,10351.0,9.80271454227477
62868.69181955246,183880.0,155823.0,10377.0,9.81271731221932
62868.7018223224,183888.0,155834.0,10380.0,9.822720082156593
62868.711825092345,183896.0,155816.0,10395.0,9.832722852101142
62868.72182786228,183871.0,155818.0,10417.0,9.842725622038415
62868.73183063223,183909.0,155841.0,10410.0,9.852728391982964
62868.741833402164,183881.0,155853.0,10410.0,9.862731161920237
62868.75183617211,183947.0,155843.0,10416.0,9.872733931864786
62868.761838942046,183953.0,155868.0,10389.0,9.88273670180206
62868.77184171199,183934.0,155862.0,10431.0,9.892739471746609
62868.78184448193,183960.0,155897.0,10433.0,9.902742241683882
62868.79184725187,183931.0,155852.0,10434.0,9.91274501162843
62868.80185002181,183937.0,155854.0,10453.0,9.922747781565704
62868.811852791754,183969.0,155883.0,10498.0,9.932750551510253
62868.82185556169,183976.0,155894.0,10464.0,9.942753321447526
62868.831858331636,183961.0,155859.0,10475.0,9.952756091392075
62868.84186110157,183963.0,155901.0,10487.0,9.962758861329348
62868.85186387152,183928.0,155876.0,10451.0,9.972761631273897
62868.861866641455,183918.0,155857.0,10453.0,9.98276440121117
62868.8718694114,183883.0,155870.0,10431.0,9.99276717115572
62868.88187218134,183807.0,155832.0,10400.0,10.002769941092993
62868.89187495128,183846.0,155809.0,10404.0,10.012772711037542
62868.901877721226,183787.0,155811.0,10356.0,10.02277548098209
62868.91188049116,183748.0,155792.0,10334.0,10.032778250919364
62868.92188326111,183742.0,155781.0,10293.0,10.042781020863913
62868.931886031045,183690.0,155777.0,10276.0,10.052783790801186
62868.94188880099,183708.0,155745.0,10267.0,10.062786560745735
62868.95189157093,183709.0,155754.0,10263.0,10.072789330683008
62868.96189434087,183686.0,155727.0,10232.0,10.082792100627557
62868.97189711081,183671.0,155722.0,10236.0,10.09279487056483
62868.98189988075,183682.0,155747.0,10223.0,10.10279764050938
62868.99190265069,183621.0,155744.0,10203.0,10.112800410446653
62869.001905420635,183637.0,155742.0,10205.0,10.122803180391202
62869.01190819057,183678.0,155763.0,10164.0,10.132805950328475
62869.02191096052,183624.0,155739.0,10200.0,10.142808720273024
62869.031913730454,183655.0,155736.0,10187.0,10.152811490210297
62869.0419165004,183642.0,155754.0,10175.0,10.162814260154846
62869.051919270336,183595.0,155696.0,10180.0,10.17281703009212
62869.06192204028,183611.0,155714.0,10170.0,10.182819800036668
62869.07192481022,183624.0,155706.0,10162.0,10.192822569973941
62869.08192758016,183577.0,155709.0,10170.0,10.20282533991849
62869.09193035011,183616.0,155703.0,10165.0,10.21282810986304
62869.101933120044,183599.0,155732.0,10147.0,10.222830879800313
62869.11193588999,183604.0,155726.0,10184.0,10.232833649744862
62869.121938659926,183621.0,155738.0,10135.0,10.242836419682135
62869.13194142987,183575.0,155754.0,10157.0,10.252839189626684
62869.14194419981,183608.0,155743.0,10137.0,10.262841959563957
62869.15194696975,183613.0,155704.0,10176.0,10.272844729508506
62869.16194973969,183556.0,155707.0,10162.0,10.28284749944578
62869.171952509634,183629.0,155721.0,10171.0,10.292850269390328
62869.18195527957,183618.0,155722.0,10160.0,10.302853039327601
62869.191958049516,183582.0,155713.0,10130.0,10.31285580927215
62869.20196081945,183614.0,155717.0,10180.0,10.322858579209424
62869.2119635894,183611.0,155715.0,10167.0,10.332861349153973
62869.221966359335,183596.0,155712.0,10137.0,10.342864119091246
62869.23196912928,183584.0,155689.0,10150.0,10.352866889035795
62869.24197189922,183579.0,155710.0,10135.0,10.362869658973068
62869.25197466916,183573.0,155725.0,10165.0,10.372872428917617
62869.2619774391,183616.0,155731.0,10154.0,10.38287519885489
62869.27198020904,183621.0,155744.0,10156.0,10.39287796879944
62869.28198297899,183603.0,155729.0,10155.0,10.402880738743988
62869.291985748925,183594.0,155727.0,10153.0,10.412883508681261
62869.30198851887,183613.0,155741.0,10164.0,10.42288627862581
62869.31199128881,183649.0,155754.0,10175.0,10.432889048563084
62869.32199405875,183632.0,155696.0,10170.0,10.442891818507633
62869.33199682869,183637.0,155729.0,10180.0,10.452894588444906
62869.34199959863,183636.0,155756.0,10186.0,10.462897358389455
62869.35200236857,183648.0,155774.0,10204.0,10.472900128326728
62869.362005138515,183620.0,155742.0,10183.0,10.482902898271277
62869.37200790845,183663.0,155780.0,10182.0,10.49290566820855
62869.3820106784,183645.0,155759.0,10210.0,10.5029084381531
62869.392013448334,183656.0,155736.0,10228.0,10.512911208090372
62869.40201621828,183688.0,155766.0,10221.0,10.522913978034921
62869.412018988216,183664.0,155757.0,10206.0,10.532916747972195
62869.42202175816,183680.0,155771.0,10229.0,10.542919517916744
62869.4320245281,183651.0,155768.0,10223.0,10.552922287854017
62869.44202729804,183691.0,155768.0,10239.0,10.562925057798566
62869.45203006798,183722.0,155818.0,10264.0,10.572927827735839
62869.462032837924,183710.0,155789.0,10240.0,10.582930597680388
62869.47203560786,183677.0,155763.0,10240.0,10.592933367617661
62869.482038377806,183748.0,155806.0,10247.0,10.60293613756221
62869.49204114775,183721.0,155789.0,10260.0,10.61293890750676
62869.50204391769,183731.0,155813.0,10280.0,10.622941677444032
62869.51204668763,183748.0,155821.0,10261.0,10.632944447388581
62869.52204945757,183724.0,155820.0,10276.0,10.642947217325855
62869.532052227514,183752.0,155801.0,10277.0,10.652949987270404
62869.54205499745,183735.0,155791.0,10282.0,10.662952757207677
62869.552057767396,183750.0,155809.0,10294.0,10.672955527152226
62869.56206053733,183785.0,155840.0,10316.0,10.682958297089499
62869.57206330728,183769.0,155809.0,10297.0,10.692961067034048
62869.582066077215,183795.0,155832.0,10324.0,10.702963836971321
62869.59206884716,183763.0,155863.0,10342.0,10.71296660691587
62869.6020716171,183781.0,155845.0,10318.0,10.722969376853143
62869.61207438704,183774.0,155828.0,10323.0,10.732972146797692
62869.62207715698,183804.0,155844.0,10355.0,10.742974916734966
62869.63207992692,183840.0,155876.0,10372.0,10.752977686679515
62869.64208269686,183838.0,155875.0,10382.0,10.762980456616788
62869.652085466805,183819.0,155875.0,10365.0,10.772983226561337
62869.66208823674,183847.0,155862.0,10374.0,10.78298599649861
62869.67209100669,183828.0,155813.0,10366.0,10.792988766443159
62869.68209377663,183852.0,155820.0,10389.0,10.802991536387708
62869.69209654657,183849.0,155875.0,10398.0,10.812994306324981
62869.70209931651,183867.0,155885.0,10411.0,10.82299707626953
62869.71210208645,183898.0,155907.0,10419.0,10.832999846206803
62869.722104856395,183865.0,155892.0,10406.0,10.843002616151352
62869.73210762633,183859.0,155866.0,10397.0,10.853005386088626
62869.74211039628,183896.0,155895.0,10415.0,10.863008156033175
62869.752113166214,183892.0,155890.0,10457.0,10.873010925970448
62869.76211593616,183935.0,155904.0,10456.0,10.883013695914997
62869.772118706096,183897.0,155871.0,10446.0,10.89301646585227
62869.78212147604,183925.0,155910.0,10463.0,10.903019235796819
62869.79212424598,183915.0,155914.0,10466.0,10.913022005734092
62869.80212701592,183890.0,155889.0,10464.0,10.923024775678641
62869.81212978586,183943.0,155888.0,10481.0,10.933027545615914
62869.822132555804,183921.0,155903.0,10459.0,10.943030315560463
62869.83213532574,183966.0,155907.0,10491.0,10.953033085497736
62869.842138095686,183939.0,155978.0,10495.0,10.963035855442286
62869.85214086562,183950.0,155929.0,10497.0,10.973038625379559
62869.86214363557,183993.0,155940.0,10516.0,10.983041395324108
62869.87214640551,183958.0,155945.0,10506.0,10.993044165268657
62869.88214917545,183907.0,155898.0,10486.0,11.00304693520593
62869.892151945394,183896.0,155900.0,10474.0,11.013049705150479
62869.90215471533,183846.0,155867.0,10429.0,11.023052475087752
62869.912157485276,183821.0,155855.0,10431.0,11.033055245032301
62869.92216025521,183804.0,155846.0,10406.0,11.043058014969574
62869.93216302516,183786.0,155861.0,10376.0,11.053060784914123
62869.942165795095,183756.0,155871.0,10402.0,11.063063554851396
62869.95216856504,183700.0,155812.0,10335.0,11.073066324795946
62869.96217133498,183669.0,155785.0,10311.0,11.083069094733219
62869.97217410492,183703.0,155821.0,10322.0,11.093071864677768
62869.98217687486,183668.0,155773.0,10276.0,11.10307463461504
62869.9921796448,183675.0,155780.0,10279.0,11.11307740455959
62870.00218241474,183659.0,155807.0,10290.0,11.123080174496863
62870.012185184685,183648.0,155768.0,10253.0,11.133082944441412
62870.02218795462,183677.0,155771.0,10273.0,11.143085714378685
62870.03219072457,183661.0,155780.0,10247.0,11.153088484323234
62870.042193494504,183654.0,155754.0,10238.0,11.163091254260507
62870.05219626445,183669.0,155782.0,10254.0,11.173094024205056
62870.06219903439,183604.0,155758.0,10212.0,11.183096794149606
62870.07220180433,183649.0,155793.0,10223.0,11.193099564086879
62870.082204574275,183605.0,155735.0,10237.0,11.203102334031428
62870.09220734421,183602.0,155750.0,10188.0,11.2131051039687
62870.10221011416,183604.0,155729.0,10222.0,11.22310787391325
62870.112212884094,183608.0,155752.0,10209.0,11.233110643850523
62870.12221565404,183625.0,155741.0,10210.0,11.243113413795072
62870.132218423976,183595.0,155723.0,10213.0,11.253116183732345
62870.14222119392,183630.0,155763.0,10211.0,11.263118953676894
62870.15222396386,183629.0,155755.0,10202.0,11.273121723614167
62870.1622267338,183600.0,155763.0,10214.0,11.283124493558716
62870.17222950374,183572.0,155760.0,10194.0,11.29312726349599
62870.182232273684,183614.0,155765.0,10189.0,11.303130033440539
62870.19223504362,183642.0,155765.0,10196.0,11.313132803377812
62870.202237813566,183657.0,155796.0,10193.0,11.32313557332236
62870.2122405835,183623.0,155734.0,10187.0,11.333138343259634
62870.22224335345,183620.0,155752.0,10222.0,11.343141113204183
62870.232246123385,183609.0,155754.0,10206.0,11.353143883141456
62870.24224889333,183597.0,155742.0,10194.0,11.363146653086005
62870.25225166327,183631.0,155750.0,10229.0,11.373149423023278
62870.26225443321,183578.0,155747.0,10199.0,11.383152192967827
62870.272257203156,183615.0,155765.0,10201.0,11.393154962912377
62870.28225997309,183584.0,155771.0,10208.0,11.40315773284965
62870.29226274304,183612.0,155753.0,10180.0,11.413160502794199
62870.302265512975,183635.0,155771.0,10227.0,11.423163272731472
62870.31226828292,183640.0,155775.0,10204.0,11.43316604267602
62870.32227105286,183615.0,155789.0,10206.0,11.443168812613294
62870.3322738228,183666.0,155793.0,10211.0,11.453171582557843
62870.34227659274,183653.0,155764.0,10213.0,11.463174352495116
62870.35227936268,183657.0,155786.0,10223.0,11.473177122439665
62870.36228213262,183663.0,155784.0,10221.0,11.483179892376938
62870.372284902565,183641.0,155769.0,10218.0,11.493182662321487
62870.3822876725,183689.0,155803.0,10268.0,11.50318543225876
62870.39229044245,183677.0,155787.0,10251.0,11.51318820220331
62870.402293212384,183668.0,155777.0,10238.0,11.523190972140583
62870.41229598233,183710.0,155820.0,10267.0,11.533193742085132
62870.422298752266,183683.0,155828.0,10265.0,11.543196512022405
62870.43230152221,183717.0,155814.0,10276.0,11.553199281966954
62870.44230429215,183700.0,155793.0,10246.0,11.563202051904227
62870.45230706209,183721.0,155798.0,10276.0,11.573204821848776
62870.46230983204,183721.0,155827.0,10304.0,11.583207591793325
62870.472312601974,183705.0,155792.0,10270.0,11.593210361730598
62870.48231537192,183694.0,155810.0,10285.0,11.603213131675147
62870.492318141856,183744.0,155814.0,10312.0,11.61321590161242
62870.5023209118,183761.0,155839.0,10317.0,11.62321867155697
62870.51232368174,183746.0,155832.0,10326.0,11.633221441494243
62870.52232645168,183723.0,155829.0,10334.0,11.643224211438792
62870.53232922162,183736.0,155844.0,10300.0,11.653226981376065
62870.542331991564,183728.0,155818.0,10309.0,11.663229751320614
62870.5523347615,183773.0,155850.0,10332.0,11.673232521257887
62870.562337531446,183785.0,155833.0,10320.0,11.683235291202436
62870.57234030138,183791.0,155873.0,10366.0,11.69323806113971
62870.58234307133,183799.0,155869.0,10376.0,11.703240831084258
62870.592345841265,183792.0,155871.0,10370.0,11.713243601021532
62870.60234861121,183778.0,155818.0,10328.0,11.72324637096608
62870.61235138115,183800.0,155832.0,10374.0,11.733249140903354
62870.62235415109,183791.0,155845.0,10367.0,11.743251910847903
62870.63235692103,183829.0,155885.0,10387.0,11.753254680785176
62870.64235969097,183813.0,155893.0,10381.0,11.763257450729725
62870.65236246092,183823.0,155877.0,10390.0,11.773260220674274
62870.662365230855,183850.0,155885.0,10396.0,11.783262990611547
62870.6723680008,183860.0,155880.0,10404.0,11.793265760556096
62870.68237077074,183854.0,155868.0,10443.0,11.80326853049337
62870.69237354068,183874.0,155902.0,10413.0,11.813271300437918
62870.70237631062,183839.0,155883.0,10432.0,11.823274070375192
62870.71237908056,183893.0,155904.0,10446.0,11.83327684031974
62870.7223818505,183903.0,155916.0,10446.0,11.843279610257014
62870.732384620445,183850.0,155892.0,10421.0,11.853282380201563
62870.74238739038,183903.0,155885.0,10479.0,11.863285150138836
62870.75239016033,183880.0,155914.0,10452.0,11.873287920083385
62870.762392930264,183914.0,155901.0,10479.0,11.883290690020658
62870.77239570021,183955.0,155931.0,10472.0,11.893293459965207
62870.782398470146,183930.0,155924.0,10472.0,11.90329622990248
62870.79240124009,183954.0,155941.0,10529.0,11.91329899984703
62870.80240401003,183956.0,155934.0,10511.0,11.923301769784302
62870.81240677997,183938.0,155908.0,10510.0,11.933304539728852
62870.82240954991,183947.0,155932.0,10554.0,11.943307309666125
62870.832412319854,183954.0,155930.0,10514.0,11.953310079610674
62870.84241508979,183982.0,155939.0,10537.0,11.963312849547947
62870.852417859736,183990.0,155942.0,10512.0,11.973315619492496
62870.86242062968,183934.0,155928.0,10521.0,11.983318389437045
62870.87242339962,183996.0,155955.0,10550.0,11.993321159374318
62870.88242616956,183907.0,155918.0,10518.0,12.003323929318867
62870.8924289395,183855.0,155898.0,10496.0,12.01332669925614
62870.902431709444,183878.0,155920.0,10503.0,12.02332946920069
62870.91243447938,183851.0,155902.0,10455.0,12.033332239137962
62870.922437249326,183815.0,155878.0,10446.0,12.043335009082512
62870.93244001926,183780.0,155870.0,10441.0,12.053337779019785
62870.94244278921,183787.0,155855.0,10405.0,12.063340548964334
62870.952445559145,183753.0,155813.0,10384.0,12.073343318901607
62870.96244832909,183742.0,155835.0,10372.0,12.083346088846156
62870.97245109903,183708.0,155803.0,10352.0,12.093348858783429
62870.98245386897,183744.0,155850.0,10368.0,12.103351628727978
62870.99245663891,183715.0,155840.0,10356.0,12.113354398665251
62871.00245940885,183740.0,155837.0,10368.0,12.1233571686098
62871.01246217879,183750.0,155810.0,10322.0,12.133359938547073
62871.022464948735,183724.0,155818.0,10326.0,12.143362708491622
62871.03246771867,183700.0,155807.0,10332.0,12.153365478428896
62871.04247048862,183723.0,155809.0,10329.0,12.163368248373445
62871.05247325856,183758.0,155790.0,10352.0,12.173371018317994
62871.0624760285,183703.0,155788.0,10317.0,12.183373788255267
62871.07247879844,183734.0,155811.0,10316.0,12.193376558199816
62871.08248156838,183687.0,155795.0,10311.0,12.203379328137089
62871.092484338325,183678.0,155841.0,10324.0,12.213382098081638
62871.10248710826,183713.0,155791.0,10330.0,12.223384868018911
62871.11248987821,183665.0,155788.0,10291.0,12.23338763796346
62871.122492648145,183687.0,155800.0,10310.0,12.243390407900733
62871.13249541809,183735.0,155801.0,10350.0,12.253393177845282
62871.14249818803,183668.0,155773.0,10290.0,12.263395947782556
62871.15250095797,183708.0,155815.0,10327.0,12.273398717727105
62871.16250372791,183697.0,155795.0,10317.0,12.283401487664378
62871.17250649785,183678.0,155774.0,10307.0,12.293404257608927
62871.18250926779,183718.0,155815.0,10324.0,12.3034070275462
62871.192512037735,183672.0,155783.0,10290.0,12.313409797490749
62871.20251480767,183706.0,155812.0,10306.0,12.323412567428022
62871.21251757762,183708.0,155835.0,10320.0,12.333415337372571
62871.222520347554,183670.0,155790.0,10274.0,12.343418107309844
62871.2325231175,183731.0,155813.0,10333.0,12.353420877254393
62871.24252588744,183701.0,155803.0,10312.0,12.363423647198942
62871.25252865738,183705.0,155825.0,10318.0,12.373426417136216
62871.262531427325,183714.0,155829.0,10349.0,12.383429187080765
62871.27253419726,183666.0,155774.0,10298.0,12.393431957018038
62871.28253696721,183702.0,155810.0,10317.0,12.403434726962587
62871.292539737144,183698.0,155826.0,10335.0,12.41343749689986
62871.30254250709,183707.0,155777.0,10317.0,12.423440266844409
62871.312545277025,183745.0,155801.0,10343.0,12.433443036781682
62871.32254804697,183733.0,155827.0,10331.0,12.443445806726231
62871.33255081691,183736.0,155824.0,10333.0,12.453448576663504
62871.34255358685,183735.0,155842.0,10364.0,12.463451346608053
62871.35255635679,183737.0,155847.0,10351.0,12.473454116545327
62871.362559126734,183759.0,155832.0,10351.0,12.483456886489876
62871.37256189667,183787.0,155836.0,10391.0,12.493459656427149
62871.382564666616,183758.0,155822.0,10368.0,12.503462426371698
62871.39256743655,183770.0,155853.0,10376.0,12.513465196308971
62871.4025702065,183762.0,155810.0,10372.0,12.52346796625352
62871.412572976435,183769.0,155842.0,10397.0,12.533470736190793
62871.42257574638,183759.0,155870.0,10405.0,12.543473506135342
62871.432578516324,183820.0,155861.0,10403.0,12.553476276079891
62871.44258128626,183806.0,155863.0,10401.0,12.563479046017164
62871.452584056206,183809.0,155833.0,10405.0,12.573481815961713
62871.46258682614,183770.0,155878.0,10407.0,12.583484585898987
62871.47258959609,183800.0,155868.0,10408.0,12.593487355843536
62871.482592366025,183829.0,155874.0,10426.0,12.603490125780809
62871.49259513597,183840.0,155860.0,10407.0,12.613492895725358
62871.50259790591,183842.0,155876.0,10462.0,12.623495665662631
62871.51260067585,183839.0,155865.0,10464.0,12.63349843560718
62871.52260344579,183832.0,155872.0,10441.0,12.643501205544453
62871.53260621573,183814.0,155898.0,10457.0,12.653503975489002
62871.54260898567,183852.0,155875.0,10460.0,12.663506745426275
62871.552611755615,183835.0,155879.0,10454.0,12.673509515370824
62871.56261452555,183860.0,155882.0,10457.0,12.683512285308097
62871.5726172955,183858.0,155911.0,10472.0,12.693515055252647
62871.582620065434,183838.0,155854.0,10459.0,12.70351782518992
62871.59262283538,183900.0,155911.0,10469.0,12.713520595134469
62871.602625605316,183895.0,155897.0,10505.0,12.723523365071742
62871.61262837526,183899.0,155909.0,10496.0,12.733526135016291
62871.6226311452,183917.0,155893.0,10481.0,12.743528904953564
62871.63263391514,183902.0,155907.0,10471.0,12.753531674898113
62871.64263668509,183916.0,155903.0,10540.0,12.763534444842662
62871.652639455024,183909.0,155937.0,10509.0,12.773537214779935
62871.66264222497,183915.0,155914.0,10498.0,12.783539984724484
62871.672644994906,183922.0,155909.0,10551.0,12.793542754661757
62871.68264776485,183928.0,155911.0,10540.0,12.803545524606307
62871.69265053479,183933.0,155921.0,10549.0,12.81354829454358
62871.70265330473,183966.0,155947.0,10526.0,12.823551064488129
62871.71265607467,183911.0,155918.0,10524.0,12.833553834425402
62871.722658844614,183957.0,155917.0,10540.0,12.843556604369951
62871.73266161455,183961.0,155938.0,10571.0,12.853559374307224
62871.742664384496,183988.0,155965.0,10568.0,12.863562144251773
62871.75266715443,183978.0,155909.0,10560.0,12.873564914189046
62871.76266992438,183963.0,155938.0,10610.0,12.883567684133595
62871.772672694315,184017.0,155956.0,10597.0,12.893570454070868
62871.78267546426,184021.0,155943.0,10601.0,12.903573224015418
62871.7926782342,184009.0,155945.0,10603.0,12.91357599395269
62871.80268100414,184059.0,156000.0,10588.0,12.92357876389724
62871.81268377408,184026.0,155947.0,10618.0,12.933581533834513
62871.82268654402,184009.0,155967.0,10632.0,12.943584303779062
62871.83268931397,184002.0,155953.0,10599.0,12.953587073723611
62871.842692083905,184012.0,155940.0,10641.0,12.963589843660884
62871.85269485385,184042.0,155960.0,10627.0,12.973592613605433
62871.86269762379,183973.0,155952.0,10613.0,12.983595383542706
62871.87270039373,184011.0,155971.0,10628.0,12.993598153487255
62871.88270316367,183906.0,155947.0,10600.0,13.003600923424528
62871.89270593361,183915.0,155912.0,10574.0,13.013603693369078
62871.90270870355,183892.0,155893.0,10532.0,13.02360646330635
62871.912711473495,183866.0,155898.0,10516.0,13.0336092332509
62871.92271424343,183851.0,155860.0,10488.0,13.043612003188173
62871.93271701338,183813.0,155873.0,10488.0,13.053614773132722
62871.942719783314,183819.0,155854.0,10467.0,13.063617543069995
62871.95272255326,183787.0,155870.0,10470.0,13.073620313014544
62871.962725323196,183838.0,155869.0,10479.0,13.083623082951817
62871.97272809314,183822.0,155874.0,10442.0,13.093625852896366
62871.98273086308,183788.0,155858.0,10432.0,13.10362862283364
62871.99273363302,183829.0,155835.0,10451.0,13.113631392778188
62872.00273640296,183796.0,155839.0,10429.0,13.123634162715462
62872.012739172904,183814.0,155849.0,10437.0,13.13363693266001
62872.02274194285,183838.0,155857.0,10466.0,13.14363970260456
62872.032744712786,183792.0,155846.0,10397.0,13.153642472541833
62872.04274748273,183806.0,155812.0,10420.0,13.163645242486382
62872.05275025267,183808.0,155851.0,10428.0,13.173648012423655
62872.06275302261,183823.0,155853.0,10419.0,13.183650782368204
62872.07275579255,183793.0,155816.0,10402.0,13.193653552305477
62872.082758562494,183791.0,155840.0,10409.0,13.203656322250026
62872.09276133243,183799.0,155846.0,10430.0,13.2136590921873
62872.102764102376,183840.0,155885.0,10420.0,13.223661862131848
62872.11276687231,183811.0,155831.0,10452.0,13.233664632069122
62872.12276964226,183795.0,155837.0,10457.0,13.24366740201367
62872.132772412195,183825.0,155855.0,10418.0,13.253670171950944
62872.14277518214,183806.0,155825.0,10418.0,13.263672941895493
62872.15277795208,183819.0,155876.0,10421.0,13.273675711832766
62872.16278072202,183790.0,155847.0,10423.0,13.283678481777315
62872.17278349196,183808.0,155853.0,10435.0,13.293681251714588
62872.1827862619,183797.0,155862.0,10412.0,13.303684021659137
62872.19278903184,183812.0,155888.0,10445.0,13.31368679159641
62872.202791801785,183787.0,155785.0,10424.0,13.32368956154096
62872.21279457173,183798.0,155846.0,10408.0,13.333692331485508
62872.22279734167,183783.0,155851.0,10453.0,13.343695101422782
62872.23280011161,183776.0,155826.0,10410.0,13.35369787136733
62872.24280288155,183807.0,155850.0,10404.0,13.363700641304604
62872.25280565149,183808.0,155859.0,10411.0,13.373703411249153
62872.26280842143,183795.0,155855.0,10429.0,13.383706181186426
62872.272811191375,183806.0,155862.0,10418.0,13.393708951130975
62872.28281396131,183821.0,155848.0,10411.0,13.403711721068248
62872.29281673126,183847.0,155861.0,10437.0,13.413714491012797
62872.302819501194,183871.0,155862.0,10454.0,13.42371726095007
62872.31282227114,183881.0,155898.0,10460.0,13.43372003089462
62872.322825041076,183883.0,155894.0,10453.0,13.443722800831893
62872.33282781102,183839.0,155864.0,10446.0,13.453725570776442
62872.34283058096,183861.0,155886.0,10446.0,13.463728340713715
62872.3528333509,183871.0,155899.0,10477.0,13.473731110658264
62872.36283612084,183856.0,155875.0,10482.0,13.483733880595537
62872.372838890784,183883.0,155897.0,10459.0,13.493736650540086
62872.38284166072,183918.0,155884.0,10492.0,13.503739420477359
62872.392844430666,183846.0,155891.0,10462.0,13.513742190421908
62872.4028472006,183920.0,155893.0,10505.0,13.523744960359181
62872.41284997055,183912.0,155906.0,10490.0,13.53374773030373
62872.42285274049,183895.0,155895.0,10478.0,13.54375050024828
62872.43285551043,183899.0,155918.0,10509.0,13.553753270185553
62872.442858280374,183926.0,155910.0,10505.0,13.563756040130102
62872.45286105031,183932.0,155917.0,10508.0,13.573758810067375
62872.462863820256,183938.0,155897.0,10504.0,13.583761580011924
62872.47286659019,183952.0,155907.0,10525.0,13.593764349949197
62872.48286936014,183904.0,155887.0,10546.0,13.603767119893746
62872.492872130075,183952.0,155932.0,10525.0,13.613769889831019
62872.50287490002,183931.0,155925.0,10539.0,13.623772659775568
62872.51287766996,183929.0,155928.0,10537.0,13.633775429712841
62872.5228804399,183959.0,155944.0,10522.0,13.64377819965739
62872.53288320984,183972.0,155940.0,10517.0,13.653780969594663
62872.54288597978,183958.0,155931.0,10558.0,13.663783739539213
62872.55288874972,183998.0,155961.0,10579.0,13.673786509476486
62872.562891519665,183942.0,155948.0,10545.0,13.683789279421035
62872.5728942896,183994.0,155963.0,10578.0,13.693792049358308
62872.58289705955,183990.0,155958.0,10572.0,13.703794819302857
62872.592899829484,183978.0,155950.0,10566.0,13.71379758924013
62872.60290259943,183987.0,155986.0,10582.0,13.723800359184679
62872.61290536937,183967.0,155957.0,10568.0,13.733803129129228
62872.62290813931,184015.0,155955.0,10577.0,13.743805899066501
62872.632910909255,184042.0,156007.0,10607.0,13.75380866901105
62872.64291367919,184025.0,155963.0,10584.0,13.763811438948323
62872.65291644914,184060.0,155989.0,10625.0,13.773814208892873
62872.662919219074,184051.0,156009.0,10609.0,13.783816978830146
62872.67292198902,184056.0,155992.0,10597.0,13.793819748774695
62872.682924758956,184091.0,155997.0,10652.0,13.803822518711968
62872.6929275289,184042.0,155982.0,10622.0,13.813825288656517
62872.70293029884,184084.0,155993.0,10646.0,13.82382805859379
62872.71293306878,184096.0,156002.0,10656.0,13.83383082853834
62872.72293583872,184073.0,155979.0,10638.0,13.843833598475612
62872.732938608664,184129.0,156025.0,10671.0,13.853836368420161
62872.7429413786,184073.0,155990.0,10648.0,13.863839138357434
62872.752944148546,184013.0,155982.0,10622.0,13.873841908301983
62872.76294691848,184010.0,155969.0,10627.0,13.883844678239257
62872.77294968843,184012.0,155959.0,10612.0,13.893847448183806
62872.782952458365,183971.0,155946.0,10603.0,13.903850218121079
62872.79295522831,183937.0,155948.0,10630.0,13.913852988065628
62872.802957998254,183936.0,155939.0,10558.0,13.923855758010177
62872.81296076819,183928.0,155915.0,10579.0,13.93385852794745
62872.822963538136,183900.0,155913.0,10537.0,13.943861297892
62872.83296630807,183878.0,155903.0,10518.0,13.953864067829272
62872.84296907802,183868.0,155897.0,10529.0,13.963866837773821
62872.852971847955,183888.0,155931.0,10509.0,13.973869607711094
62872.8629746179,183890.0,155898.0,10522.0,13.983872377655644
62872.87297738784,183863.0,155921.0,10475.0,13.993875147592917
62872.88298015778,183835.0,155893.0,10494.0,14.003877917537466
62872.89298292772,183847.0,155873.0,10473.0,14.013880687474739
62872.90298569766,183866.0,155886.0,10464.0,14.023883457419288
62872.9129884676,183887.0,155896.0,10496.0,14.033886227356561
62872.922991237545,183866.0,155855.0,10467.0,14.04388899730111
62872.93299400748,183876.0,155897.0,10462.0,14.053891767238383
62872.94299677743,183868.0,155900.0,10471.0,14.063894537182932
62872.952999547364,183827.0,155873.0,10425.0,14.073897307120205
62872.96300231731,183869.0,155907.0,10488.0,14.083900077064754
62872.973005087246,183847.0,155883.0,10436.0,14.093902847002028
62872.98300785719,183877.0,155896.0,10464.0,14.103905616946577
62872.99301062713,183896.0,155863.0,10484.0,14.11390838688385
62873.00301339707,183848.0,155852.0,10443.0,14.123911156828399
62873.01301616702,183881.0,155904.0,10489.0,14.133913926772948
62873.023018936954,183870.0,155900.0,10470.0,14.143916696710221
62873.0330217069,183874.0,155880.0,10451.0,14.15391946665477
62873.043024476836,183905.0,155910.0,10489.0,14.163922236592043
62873.05302724678,183848.0,155890.0,10445.0,14.173925006536592
62873.06303001672,183880.0,155899.0,10466.0,14.183927776473865
62873.07303278666,183857.0,155881.0,10450.0,14.193930546418414
62873.0830355566,183853.0,155872.0,10447.0,14.203933316355688
62873.093038326544,183902.0,155923.0,10476.0,14.213936086300237
62873.10304109648,183886.0,155895.0,10466.0,14.22393885623751
62873.113043866426,183853.0,155892.0,10455.0,14.233941626182059
62873.12304663636,183889.0,155909.0,10470.0,14.243944396119332
62873.13304940631,183844.0,155854.0,10448.0,14.253947166063881
62873.143052176245,183871.0,155897.0,10474.0,14.263949936001154
62873.15305494619,183876.0,155923.0,10496.0,14.273952705945703
62873.16305771613,183895.0,155922.0,10470.0,14.283955475882976
62873.17306048607,183874.0,155883.0,10477.0,14.293958245827525
62873.18306325601,183912.0,155921.0,10488.0,14.303961015764799
62873.19306602595,183875.0,155894.0,10487.0,14.313963785709348
62873.2030687959,183893.0,155897.0,10494.0,14.323966555653897
62873.213071565835,183882.0,155920.0,10499.0,14.33396932559117
62873.22307433578,183933.0,155932.0,10501.0,14.343972095535719
62873.23307710572,183939.0,155917.0,10500.0,14.353974865472992
62873.24307987566,183957.0,155947.0,10482.0,14.363977635417541
62873.2530826456,183942.0,155924.0,10493.0,14.373980405354814
62873.26308541554,183945.0,155923.0,10508.0,14.383983175299363
62873.27308818548,183959.0,155933.0,10546.0,14.393985945236636
62873.283090955425,183962.0,155925.0,10545.0,14.403988715181185
62873.29309372536,183977.0,155933.0,10540.0,14.413991485118459
62873.30309649531,183998.0,155941.0,10553.0,14.423994255063008
62873.313099265244,183954.0,155943.0,10549.0,14.43399702500028
62873.32310203519,183985.0,155993.0,10583.0,14.44399979494483
62873.333104805126,183991.0,155960.0,10540.0,14.454002564882103
62873.34310757507,184013.0,155966.0,10573.0,14.464005334826652
62873.35311034501,184028.0,155988.0,10573.0,14.474008104763925
62873.36311311495,184020.0,155950.0,10561.0,14.484010874708474
62873.37311588489,184047.0,155999.0,10599.0,14.494013644645747
62873.383118654834,184048.0,155991.0,10588.0,14.504016414590296
62873.39312142478,184013.0,155961.0,10567.0,14.514019184534845
62873.403124194716,184047.0,156005.0,10630.0,14.524021954472119
62873.41312696466,184018.0,155978.0,10589.0,14.534024724416668
62873.4231297346,184068.0,155998.0,10617.0,14.54402749435394
62873.43313250454,184073.0,156015.0,10602.0,14.55403026429849
62873.44313527448,184038.0,156006.0,10600.0,14.564033034235763
62873.453138044424,184096.0,156018.0,10632.0,14.574035804180312
62873.46314081436,184086.0,156001.0,10628.0,14.584038574117585
62873.473143584306,184047.0,156006.0,10657.0,14.594041344062134
62873.48314635424,184096.0,156028.0,10652.0,14.604044113999407
62873.49314912419,184107.0,156016.0,10634.0,14.614046883943956
62873.503151894125,184113.0,156019.0,10685.0,14.62404965388123
62873.51315466407,184091.0,156031.0,10672.0,14.634052423825779
62873.52315743401,184118.0,156047.0,10653.0,14.644055193763052
62873.53316020395,184129.0,156033.0,10693.0,14.6540579637076
62873.54316297389,184118.0,156022.0,10679.0,14.664060733644874
62873.55316574383,184123.0,156017.0,10686.0,14.674063503589423
62873.56316851377,184122.0,156024.0,10710.0,14.684066273526696
62873.573171283715,184138.0,156078.0,10701.0,14.694069043471245
62873.58317405366,184147.0,156053.0,10695.0,14.704071813415794
62873.5931768236,184166.0,156057.0,10720.0,14.714074583353067
62873.60317959354,184175.0,156052.0,10711.0,14.724077353297616
62873.61318236348,184176.0,156053.0,10744.0,14.73408012323489
62873.62318513342,184169.0,156048.0,10719.0,14.744082893179439
62873.63318790336,184151.0,156059.0,10725.0,14.754085663116712
62873.643190673305,184117.0,156008.0,10709.0,14.76408843306126
62873.65319344324,184099.0,156005.0,10699.0,14.774091202998534
62873.66319621319,184016.0,155962.0,10691.0,14.784093972943083
62873.673198983124,184031.0,155988.0,10653.0,14.794096742880356
62873.68320175307,183968.0,155984.0,10639.0,14.804099512824905
62873.693204523006,183961.0,155942.0,10601.0,14.814102282762178
62873.70320729295,183977.0,155961.0,10579.0,14.824105052706727
62873.71321006289,183943.0,155957.0,10583.0,14.834107822644
62873.72321283283,183929.0,155925.0,10558.0,14.84411059258855
62873.73321560277,183935.0,155957.0,10547.0,14.854113362525823
62873.743218372714,183907.0,155915.0,10542.0,14.864116132470372
62873.75322114265,183906.0,155934.0,10523.0,14.874118902407645
62873.763223912596,183905.0,155929.0,10532.0,14.884121672352194
62873.77322668253,183904.0,155947.0,10534.0,14.894124442289467
62873.78322945248,183905.0,155933.0,10524.0,14.904127212234016
62873.79323222242,183899.0,155931.0,10510.0,14.914129982178565
62873.80323499236,183858.0,155910.0,10485.0,14.924132752115838
62873.813237762304,183887.0,155911.0,10475.0,14.934135522060387
62873.82324053224,183869.0,155891.0,10477.0,14.94413829199766
62873.833243302186,183870.0,155912.0,10486.0,14.95414106194221
62873.84324607212,183884.0,155918.0,10497.0,14.964143831879483
62873.85324884207,183839.0,155887.0,10474.0,14.974146601824032
62873.863251612005,183851.0,155914.0,10491.0,14.984149371761305
62873.87325438195,183875.0,155910.0,10469.0,14.994152141705854
62873.88325715189,183887.0,155892.0,10478.0,15.004154911643127
62873.89325992183,183881.0,155905.0,10491.0,15.014157681587676
62873.90326269177,183845.0,155893.0,10452.0,15.02416045152495
62873.91326546171,183867.0,155914.0,10467.0,15.034163221469498
62873.92326823165,183898.0,155878.0,10448.0,15.044165991406771
62873.933271001595,183847.0,155889.0,10451.0,15.05416876135132
62873.94327377153,183845.0,155890.0,10451.0,15.064171531288594
62873.95327654148,183871.0,155901.0,10459.0,15.074174301233143
62873.963279311414,183846.0,155878.0,10463.0,15.084177071170416
62873.97328208136,183889.0,155929.0,10459.0,15.094179841114965
62873.9832848513,183831.0,155885.0,10459.0,15.104182611059514
62873.99328762124,183881.0,155920.0,10457.0,15.114185380996787
62874.003290391185,183855.0,155898.0,10437.0,15.124188150941336
62874.01329316112,183834.0,155873.0,10447.0,15.13419092087861
62874.02329593107,183836.0,155886.0,10460.0,15.144193690823158
62874.033298701004,183871.0,155913.0,10450.0,15.154196460760431
62874.04330147095,183827.0,155906.0,10429.0,15.16419923070498
62874.053304240886,183873.0,155926.0,10479.0,15.174202000642254
62874.06330701083,183856.0,155887.0,10432.0,15.184204770586803
62874.07330978077,183878.0,155917.0,10465.0,15.194207540524076
62874.08331255071,183868.0,155883.0,10476.0,15.204210310468625
62874.09331532065,183894.0,155920.0,10466.0,15.214213080405898
62874.103318090594,183864.0,155912.0,10460.0,15.224215850350447
62874.11332086053,183901.0,155933.0,10470.0,15.23421862028772
62874.123323630476,183901.0,155948.0,10495.0,15.24422139023227
62874.13332640041,183897.0,155924.0,10495.0,15.254224160169542
62874.14332917036,183874.0,155937.0,10481.0,15.264226930114091
62874.153331940295,183928.0,155939.0,10501.0,15.274229700051364
62874.16333471024,183926.0,155928.0,10502.0,15.284232469995914
62874.173337480184,183944.0,155942.0,10486.0,15.294235239940463
62874.18334025012,183925.0,155953.0,10518.0,15.304238009877736
62874.193343020066,183944.0,155936.0,10513.0,15.314240779822285
62874.20334579,183910.0,155925.0,10502.0,15.324243549759558
62874.21334855995,183917.0,155923.0,10532.0,15.334246319704107
62874.223351329885,183939.0,155967.0,10535.0,15.34424908964138
62874.23335409983,183958.0,155951.0,10526.0,15.35425185958593
62874.24335686977,183955.0,155930.0,10520.0,15.364254629523202
62874.25335963971,183970.0,155981.0,10565.0,15.374257399467751
62874.26336240965,183957.0,155944.0,10540.0,15.384260169405024
62874.27336517959,183984.0,155965.0,10548.0,15.394262939349574
62874.28336794953,184000.0,155983.0,10530.0,15.404265709286847
62874.293370719475,183978.0,155958.0,10549.0,15.414268479231396
62874.30337348941,184022.0,155989.0,10576.0,15.424271249168669
62874.31337625936,184001.0,155983.0,10565.0,15.434274019113218
62874.323379029294,183995.0,155972.0,10567.0,15.444276789050491
62874.33338179924,184025.0,155978.0,10605.0,15.45427955899504
62874.343384569176,183979.0,155965.0,10571.0,15.464282328932313
62874.35338733912,184021.0,155985.0,10586.0,15.474285098876862
62874.36339010906,184039.0,156002.0,10591.0,15.484287868814135
62874.373392879,184009.0,155977.0,10570.0,15.494290638758685
62874.38339564895,184059.0,156009.0,10614.0,15.504293408703234
62874.393398418884,184060.0,156004.0,10595.0,15.514296178640507
62874.40340118883,184031.0,156004.0,10610.0,15.524298948585056
62874.413403958766,184075.0,156012.0,10642.0,15.534301718522329
62874.42340672871,184083.0,156037.0,10614.0,15.544304488466878
62874.43340949865,184079.0,156017.0,10657.0,15.554307258404151
62874.44341226859,184064.0,156027.0,10638.0,15.5643100283487
62874.45341503853,184098.0,156012.0,10624.0,15.574312798285973
62874.463417808474,184097.0,155997.0,10657.0,15.584315568230522
62874.47342057841,184069.0,156002.0,10634.0,15.594318338167795
62874.483423348356,184089.0,155994.0,10669.0,15.604321108112345
62874.49342611829,184132.0,156040.0,10683.0,15.614323878049618
62874.50342888824,184145.0,156035.0,10681.0,15.624326647994167
62874.513431658175,184111.0,156029.0,10690.0,15.63432941793144
62874.52343442812,184132.0,156014.0,10693.0,15.644332187875989
62874.53343719806,184145.0,156062.0,10676.0,15.654334957813262
62874.543439968,184145.0,156046.0,10723.0,15.664337727757811
62874.55344273794,184149.0,156050.0,10694.0,15.674340497695084
62874.56344550788,184141.0,156045.0,10709.0,15.684343267639633
62874.57344827783,184102.0,155994.0,10709.0,15.694346037584182
62874.583451047765,184085.0,156002.0,10687.0,15.704348807521455
62874.59345381771,184056.0,156018.0,10665.0,15.714351577466005
62874.60345658765,184032.0,155987.0,10661.0,15.724354347403278
62874.61345935759,184026.0,155982.0,10644.0,15.734357117347827
62874.62346212753,183981.0,155954.0,10615.0,15.7443598872851
62874.63346489747,183990.0,155996.0,10579.0,15.754362657229649
62874.64346766741,183929.0,155942.0,10565.0,15.764365427166922
62874.653470437355,183887.0,155929.0,10583.0,15.774368197111471
62874.66347320729,183905.0,155926.0,10529.0,15.784370967048744
62874.67347597724,183875.0,155894.0,10522.0,15.794373736993293
62874.683478747174,183884.0,155935.0,10498.0,15.804376506930566
62874.69348151712,183830.0,155905.0,10481.0,15.814379276875115
62874.703484287056,183837.0,155905.0,10488.0,15.824382046812389
62874.713487057,183874.0,155942.0,10490.0,15.834384816756938
62874.72348982694,183860.0,155925.0,10452.0,15.84438758669421
62874.73349259688,183826.0,155910.0,10465.0,15.85439035663876
62874.74349536682,183828.0,155920.0,10433.0,15.864393126576033
62874.753498136764,183811.0,155891.0,10419.0,15.874395896520582
62874.76350090671,183837.0,155901.0,10432.0,15.884398666465131
62874.773503676646,183844.0,155896.0,10458.0,15.894401436402404
62874.78350644659,183822.0,155866.0,10430.0,15.904404206346953
62874.79350921653,183824.0,155912.0,10441.0,15.914406976284226
62874.80351198647,183803.0,155883.0,10413.0,15.924409746228775
62874.81351475641,183811.0,155885.0,10405.0,15.934412516166049
62874.823517526354,183814.0,155915.0,10429.0,15.944415286110598
62874.83352029629,183817.0,155864.0,10402.0,15.95441805604787
62874.843523066236,183797.0,155876.0,10404.0,15.96442082599242
62874.85352583617,183772.0,155849.0,10375.0,15.974423595929693
62874.86352860612,183770.0,155874.0,10386.0,15.984426365874242
62874.873531376055,183825.0,155902.0,10421.0,15.994429135811515
62874.883534146,183792.0,155886.0,10398.0,16.004431905756064
62874.89353691594,183814.0,155854.0,10408.0,16.014434675693337
62874.90353968588,183770.0,155871.0,10393.0,16.024437445637886
62874.91354245582,183798.0,155914.0,10387.0,16.03444021557516
62874.92354522576,183794.0,155896.0,10394.0,16.04444298551971
62874.9335479957,183786.0,155897.0,10360.0,16.05444575545698
62874.943550765645,183758.0,155880.0,10361.0,16.06444852540153
62874.95355353559,183808.0,155904.0,10376.0,16.07445129534608
62874.96355630553,183792.0,155887.0,10379.0,16.084454065283353
62874.97355907547,183771.0,155896.0,10390.0,16.094456835227902
62874.98356184541,183800.0,155897.0,10390.0,16.104459605165175
62874.99356461535,183805.0,155886.0,10402.0,16.114462375109724
62875.00356738529,183780.0,155880.0,10388.0,16.124465145046997
62875.013570155235,183751.0,155890.0,10374.0,16.134467914991546
62875.02357292517,183784.0,155885.0,10380.0,16.14447068492882
62875.03357569512,183787.0,155891.0,10382.0,16.15447345487337
62875.043578465054,183814.0,155896.0,10398.0,16.16447622481064
62875.053581235,183823.0,155884.0,10385.0,16.17447899475519
62875.063584004936,183784.0,155880.0,10387.0,16.184481764692464
62875.07358677488,183800.0,155901.0,10367.0,16.194484534637013
62875.08358954482,183835.0,155906.0,10415.0,16.204487304574286
62875.09359231476,183862.0,155905.0,10438.0,16.214490074518835
62875.1035950847,183847.0,155911.0,10397.0,16.22449284445611
62875.113597854644,183823.0,155932.0,10422.0,16.234495614400657
62875.12360062458,183845.0,155921.0,10421.0,16.24449838433793
62875.133603394526,183891.0,155933.0,10431.0,16.25450115428248
62875.14360616446,183829.0,155895.0,10428.0,16.264503924219753
62875.15360893441,183868.0,155921.0,10439.0,16.2745066941643
62875.16361170435,183864.0,155923.0,10442.0,16.28450946410885
62875.17361447429,183864.0,155944.0,10444.0,16.294512234046124
62875.183617244234,183849.0,155954.0,10464.0,16.304515003990673
62875.19362001417,183872.0,155927.0,10457.0,16.314517773927946
62875.203622784116,183888.0,155935.0,10462.0,16.324520543872495
62875.21362555405,183873.0,155949.0,10447.0,16.33452331380977
62875.223628324,183872.0,155946.0,10444.0,16.344526083754317
62875.233631093935,183886.0,155932.0,10468.0,16.35452885369159
62875.24363386388,183912.0,155961.0,10477.0,16.36453162363614
62875.25363663382,183926.0,155948.0,10492.0,16.374534393573413
62875.26363940376,183944.0,155981.0,10515.0,16.38453716351796
62875.2736421737,183884.0,155917.0,10495.0,16.394539933455235
62875.28364494364,183940.0,155956.0,10501.0,16.404542703399784
62875.29364771358,183918.0,155989.0,10492.0,16.414545473337057
62875.303650483525,183891.0,155974.0,10521.0,16.424548243281606
62875.31365325346,183922.0,155945.0,10502.0,16.43455101321888
62875.32365602341,183945.0,155977.0,10513.0,16.44455378316343
62875.333658793345,183939.0,155979.0,10543.0,16.4545565531007
62875.34366156329,183939.0,155973.0,10532.0,16.46455932304525
62875.35366433323,183950.0,155953.0,10548.0,16.4745620929898
62875.36366710317,183987.0,155986.0,10554.0,16.484564862927073
62875.373669873115,183979.0,155941.0,10557.0,16.49456763287162
62875.38367264305,183946.0,155976.0,10545.0,16.504570402808895
62875.393675413,184004.0,156000.0,10539.0,16.514573172753444
62875.403678182935,183985.0,156000.0,10556.0,16.524575942690717
62875.41368095288,184008.0,155995.0,10566.0,16.534578712635266
62875.423683722816,183987.0,155988.0,10566.0,16.54458148257254
62875.43368649276,184028.0,155995.0,10585.0,16.55458425251709
62875.4436892627,184059.0,156016.0,10613.0,16.56458702245436
62875.45369203264,184036.0,156019.0,10605.0,16.57458979239891
62875.46369480258,184020.0,156003.0,10604.0,16.584592562336184
62875.473697572525,184072.0,156044.0,10616.0,16.594595332280733
62875.48370034246,184081.0,156032.0,10643.0,16.604598102218006
62875.49370311241,184066.0,156059.0,10617.0,16.614600872162555
62875.503705882344,184076.0,156054.0,10654.0,16.624603642099828
62875.51370865229,184082.0,156038.0,10657.0,16.634606412044377
62875.523711422225,184095.0,156061.0,10627.0,16.64460918198165
62875.53371419217,184088.0,156048.0,10660.0,16.6546119519262
62875.543716962115,184116.0,156048.0,10660.0,16.66461472187075
62875.55371973205,184107.0,156050.0,10680.0,16.67461749180802
62875.563722502,184088.0,156079.0,10678.0,16.68462026175257
62875.573725271934,184061.0,156052.0,10642.0,16.694623031689844
62875.58372804188,184041.0,156040.0,10652.0,16.704625801634393
62875.593730811815,184024.0,156000.0,10635.0,16.714628571571666
62875.60373358176,183988.0,155982.0,10623.0,16.724631341516215
62875.6137363517,183955.0,155992.0,10579.0,16.734634111453488
62875.62373912164,183911.0,155961.0,10567.0,16.744636881398037
62875.63374189158,183907.0,155981.0,10518.0,16.75463965133531
62875.643744661524,183848.0,155961.0,10492.0,16.76464242127986
62875.65374743146,183836.0,155916.0,10465.0,16.774645191217132
62875.663750201405,183822.0,155933.0,10460.0,16.78464796116168
62875.67375297134,183820.0,155916.0,10433.0,16.794650731098955
62875.68375574129,183808.0,155913.0,10447.0,16.804653501043504
62875.693758511225,183814.0,155935.0,10429.0,16.814656270980777
62875.70376128117,183818.0,155918.0,10422.0,16.824659040925326
62875.71376405111,183793.0,155895.0,10417.0,16.8346618108626
62875.72376682105,183791.0,155916.0,10394.0,16.844664580807148
62875.73376959099,183793.0,155915.0,10407.0,16.85466735074442
62875.74377236093,183819.0,155922.0,10426.0,16.86467012068897
62875.75377513088,183795.0,155935.0,10418.0,16.87467289063352
62875.763777900815,183752.0,155924.0,10367.0,16.884675660570792
62875.77378067076,183781.0,155908.0,10385.0,16.89467843051534
62875.7837834407,183772.0,155894.0,10350.0,16.904681200452615
62875.79378621064,183753.0,155895.0,10365.0,16.914683970397164
62875.80378898058,183781.0,155916.0,10384.0,16.924686740334437
62875.81379175052,183773.0,155905.0,10371.0,16.934689510278986
62875.82379452046,183809.0,155924.0,10374.0,16.94469228021626
62875.833797290405,183815.0,155928.0,10376.0,16.954695050160808
62875.84380006034,183810.0,155941.0,10370.0,16.96469782009808
62875.85380283029,183789.0,155918.0,10367.0,16.97470059004263
62875.863805600224,183795.0,155920.0,10334.0,16.984703359979903
62875.87380837017,183763.0,155889.0,10343.0,16.994706129924452
62875.883811140106,183799.0,155923.0,10342.0,17.004708899861726
62875.89381391005,183765.0,155910.0,10355.0,17.014711669806275
62875.90381667999,183737.0,155898.0,10368.0,17.024714439743548
62875.91381944993,183786.0,155906.0,10369.0,17.034717209688097
62875.92382221987,183790.0,155932.0,10345.0,17.04471997962537
62875.933824989814,183755.0,155892.0,10352.0,17.05472274956992
62875.94382775976,183744.0,155916.0,10329.0,17.064725519514468
62875.953830529696,183765.0,155920.0,10344.0,17.07472828945174
62875.96383329964,183784.0,155899.0,10359.0,17.08473105939629
62875.97383606958,183768.0,155905.0,10347.0,17.094733829333563
62875.98383883952,183773.0,155880.0,10329.0,17.104736599278112
62875.99384160946,183737.0,155881.0,10355.0,17.114739369215386
62876.003844379404,183739.0,155931.0,10337.0,17.124742139159935
62876.01384714934,183780.0,155912.0,10342.0,17.134744909097208
62876.023849919286,183771.0,155910.0,10340.0,17.144747679041757
62876.03385268922,183821.0,155939.0,10346.0,17.15475044897903
62876.04385545917,183792.0,155913.0,10333.0,17.16475321892358
62876.053858229105,183791.0,155919.0,10363.0,17.174755988860852
62876.06386099905,183822.0,155931.0,10390.0,17.1847587588054
62876.07386376899,183785.0,155898.0,10362.0,17.194761528742674
62876.08386653893,183829.0,155924.0,10401.0,17.204764298687223
62876.09386930887,183830.0,155944.0,10380.0,17.214767068624496
62876.10387207881,183812.0,155940.0,10389.0,17.224769838569046
62876.11387484875,183855.0,155979.0,10415.0,17.23477260850632
62876.123877618695,183838.0,155927.0,10389.0,17.244775378450868
62876.13388038864,183856.0,155951.0,10398.0,17.254778148395417
62876.14388315858,183883.0,155972.0,10386.0,17.26478091833269
62876.15388592852,183838.0,155935.0,10385.0,17.27478368827724
62876.16388869846,183891.0,155986.0,10429.0,17.284786458214512
62876.1738914684,183862.0,155969.0,10419.0,17.29478922815906
62876.18389423834,183867.0,155967.0,10412.0,17.304791998096334
62876.193897008285,183852.0,155972.0,10447.0,17.314794768040883
62876.20389977822,183864.0,155961.0,10413.0,17.324797537978156
62876.21390254817,183874.0,155984.0,10434.0,17.334800307922706
62876.223905318104,183917.0,156005.0,10440.0,17.34480307785998
62876.23390808805,183891.0,155952.0,10440.0,17.354805847804528
62876.243910857986,183883.0,155966.0,10436.0,17.3648086177418
62876.25391362793,183911.0,155993.0,10460.0,17.37481138768635
62876.26391639787,183882.0,155990.0,10438.0,17.384814157623623
62876.27391916781,183942.0,155984.0,10466.0,17.394816927568172
62876.28392193775,183916.0,155988.0,10452.0,17.404819697505445
62876.293924707694,183942.0,155994.0,10488.0,17.414822467449994
62876.30392747763,183917.0,156011.0,10486.0,17.424825237387267
62876.313930247576,183930.0,156029.0,10490.0,17.434828007331816
62876.32393301752,183932.0,155983.0,10472.0,17.444830777276366
62876.33393578746,183935.0,156016.0,10473.0,17.45483354721364
62876.3439385574,183939.0,155982.0,10485.0,17.464836317158188
62876.35394132734,183929.0,156003.0,10510.0,17.47483908709546
62876.363944097284,183948.0,156047.0,10503.0,17.48484185704001
62876.37394686722,183952.0,156017.0,10493.0,17.494844626977283
62876.383949637166,183973.0,156026.0,10513.0,17.504847396921832
62876.3939524071,184016.0,156053.0,10513.0,17.514850166859105
62876.40395517705,183957.0,156027.0,10513.0,17.524852936803654
62876.413957946985,184001.0,156038.0,10536.0,17.534855706740927
62876.42396071693,184010.0,156076.0,10550.0,17.544858476685476
62876.43396348687,183982.0,156040.0,10533.0,17.55486124662275
62876.44396625681,184013.0,156033.0,10554.0,17.5648640165673
62876.45396902675,183966.0,156014.0,10539.0,17.574866786504572
62876.46397179669,184017.0,156048.0,10557.0,17.58486955644912
62876.47397456663,184044.0,156079.0,10582.0,17.594872326386394
62876.483977336575,184009.0,156061.0,10561.0,17.604875096330943
62876.49398010651,184048.0,156078.0,10560.0,17.614877866268216
62876.50398287646,184027.0,156058.0,10576.0,17.624880636212765
62876.513985646394,183991.0,156040.0,10543.0,17.63488340615004
62876.52398841634,183997.0,156046.0,10581.0,17.644886176094587
62876.53399118628,183915.0,156005.0,10543.0,17.654888946039136
62876.54399395622,183928.0,156015.0,10509.0,17.66489171597641
62876.553996726165,183876.0,156019.0,10533.0,17.67489448592096
62876.5639994961,183878.0,155992.0,10451.0,17.684897255858232
62876.57400226605,183888.0,156011.0,10472.0,17.69490002580278
62876.584005035984,183807.0,155962.0,10412.0,17.704902795740054
62876.59400780593,183769.0,155941.0,10398.0,17.714905565684603
62876.604010575866,184027.0,156058.0,10576.0,17.724908335621876
62876.61401334581,183991.0,156040.0,10543.0,17.734911105566425
62876.62401611575,183997.0,156046.0,10581.0,17.7449138755037
62876.63401888569,183915.0,156005.0,10543.0,17.754916645448247
62876.64402165563,183928.0,156015.0,10509.0,17.76491941538552
62876.654024425574,183876.0,156019.0,10533.0,17.77492218533007
62876.66402719551,183878.0,155992.0,10451.0,17.784924955267343
62876.674029965456,183888.0,156011.0,10472.0,17.794927725211892
62876.68403273539,183807.0,155962.0,10412.0,17.804930495149165
62876.69403550534,183769.0,155941.0,10398.0,17.814933265093714
62876.704038275275,183832.0,155970.0,10421.0,17.824936035030987
62876.71404104522,183791.0,155959.0,10382.0,17.834938804975536
62876.724043815164,183825.0,155968.0,10384.0,17.844941574920085
62876.7340465851,183854.0,155939.0,10404.0,17.85494434485736
62876.744049355046,183828.0,155967.0,10344.0,17.864947114801907
62876.75405212498,183826.0,155975.0,10394.0,17.87494988473918
62876.76405489493,183822.0,155961.0,10372.0,17.88495265468373
62876.774057664865,183823.0,155951.0,10358.0,17.894955424621003
62876.78406043481,183841.0,155999.0,10382.0,17.904958194565552
62876.79406320475,183804.0,155936.0,10359.0,17.914960964502825
62876.80406597469,183818.0,155971.0,10368.0,17.924963734447374
62876.81406874463,183780.0,155988.0,10373.0,17.934966504384647
62876.82407151457,183789.0,155977.0,10371.0,17.944969274329196
62876.83407428451,183788.0,155956.0,10357.0,17.95497204426647
62876.844077054455,183831.0,155971.0,10375.0,17.96497481421102
62876.85407982439,183845.0,155979.0,10378.0,17.97497758414829
62876.86408259434,183828.0,155997.0,10403.0,17.98498035409284
62876.874085364274,183860.0,155987.0,10376.0,17.994983124030114
62876.88408813422,183851.0,155978.0,10376.0,18.004985893974663
62876.894090904156,183836.0,155942.0,10376.0,18.014988663911936
62876.9040936741,183882.0,155977.0,10382.0,18.024991433856485
62876.914096444045,183827.0,155955.0,10377.0,18.034994203801034
62876.92409921398,183852.0,155978.0,10380.0,18.044996973738307
62876.93410198393,183872.0,155997.0,10384.0,18.054999743682856
62876.944104753864,183825.0,155980.0,10364.0,18.06500251362013
62876.95410752381,183868.0,155995.0,10368.0,18.07500528356468
62876.964110293746,183828.0,155966.0,10372.0,18.08500805350195
62876.97411306369,183829.0,155943.0,10381.0,18.0950108234465
62876.98411583363,183854.0,156007.0,10381.0,18.105013593383774
62876.99411860357,183815.0,155932.0,10378.0,18.115016363328323
62877.00412137351,183853.0,155975.0,10383.0,18.125019133265596
62877.014124143454,183862.0,156008.0,10385.0,18.135021903210145
62877.02412691339,183834.0,155967.0,10371.0,18.145024673147418
62877.034129683336,183889.0,156021.0,10423.0,18.155027443091967
62877.04413245327,183886.0,155989.0,10398.0,18.16503021302924
62877.05413522322,183846.0,155979.0,10386.0,18.17503298297379
62877.064137993155,183915.0,156033.0,10404.0,18.185035752911062
62877.0741407631,183858.0,156007.0,10382.0,18.19503852285561
62877.08414353304,183895.0,156007.0,10396.0,18.205041292792885
62877.09414630298,183925.0,155980.0,10438.0,18.215044062737434
62877.104149072926,183896.0,156010.0,10402.0,18.225046832681983
62877.11415184286,183948.0,156045.0,10439.0,18.235049602619256
62877.12415461281,183910.0,156017.0,10432.0,18.245052372563805
62877.134157382745,183941.0,156017.0,10434.0,18.255055142501078
62877.14416015269,183956.0,156059.0,10447.0,18.265057912445627
62877.15416292263,183935.0,155991.0,10444.0,18.2750606823829
62877.16416569257,183930.0,156038.0,10459.0,18.28506345232745
62877.17416846251,183967.0,156063.0,10472.0,18.295066222264722
62877.18417123245,183923.0,156041.0,10439.0,18.30506899220927
62877.19417400239,183991.0,156058.0,10483.0,18.315071762146545
62877.204176772335,183981.0,156051.0,10464.0,18.325074532091094
62877.21417954227,183985.0,156055.0,10456.0,18.335077302028367
62877.22418231222,183979.0,156060.0,10514.0,18.345080071972916
62877.234185082154,183994.0,156055.0,10484.0,18.35508284191019
62877.2441878521,183992.0,156054.0,10489.0,18.365085611854738
62877.254190622036,183969.0,156040.0,10489.0,18.37508838179201
62877.26419339198,183999.0,156051.0,10490.0,18.38509115173656
62877.27419616192,184027.0,156097.0,10516.0,18.395093921673833
62877.28419893186,184029.0,156077.0,10513.0,18.405096691618382
62877.2942017018,184012.0,156100.0,10521.0,18.415099461555656
62877.304204471744,184009.0,156052.0,10509.0,18.425102231500205
62877.31420724169,184035.0,156076.0,10521.0,18.435105001444754
62877.324210011626,184042.0,156101.0,10501.0,18.445107771382027
62877.33421278157,184047.0,156091.0,10560.0,18.455110541326576
62877.34421555151,184070.0,156131.0,10594.0,18.46511331126385
62877.35421832145,184073.0,156099.0,10548.0,18.475116081208398
62877.36422109139,184076.0,156097.0,10575.0,18.48511885114567
62877.374223861334,184061.0,156120.0,10574.0,18.49512162109022
62877.38422663127,184067.0,156098.0,10559.0,18.505124391027493
62877.394229401216,184082.0,156136.0,10586.0,18.515127160972042
62877.40423217115,184089.0,156131.0,10573.0,18.525129930909316
62877.4142349411,184111.0,156117.0,10605.0,18.535132700853865
62877.424237711035,184114.0,156142.0,10577.0,18.545135470791138
62877.43424048098,184047.0,156128.0,10575.0,18.555138240735687
62877.44424325092,184070.0,156105.0,10617.0,18.56514101067296
62877.45424602086,184047.0,156118.0,10577.0,18.57514378061751
62877.4642487908,184024.0,156109.0,10520.0,18.585146550554782
62877.47425156074,184010.0,156096.0,10539.0,18.59514932049933
62877.48425433068,183907.0,156026.0,10483.0,18.605152090436604
62877.494257100625,183932.0,156059.0,10488.0,18.615154860381153
62877.50425987057,183924.0,156042.0,10471.0,18.625157630325702
62877.51426264051,183873.0,156036.0,10448.0,18.635160400262976
62877.52426541045,183917.0,156064.0,10444.0,18.645163170207525
62877.53426818039,183888.0,156042.0,10427.0,18.655165940144798
62877.54427095033,183844.0,156043.0,10412.0,18.665168710089347
62877.55427372027,183853.0,156039.0,10414.0,18.67517148002662
62877.564276490215,183885.0,156040.0,10387.0,18.68517424997117
62877.57427926015,183881.0,156026.0,10396.0,18.695177019908442
62877.5842820301,183875.0,156061.0,10416.0,18.70517978985299
62877.594284800034,183864.0,156019.0,10384.0,18.715182559790264
62877.60428756998,183883.0,156067.0,10434.0,18.725185329734813
62877.614290339916,183855.0,156001.0,10389.0,18.735188099672087
62877.62429310986,183838.0,156005.0,10385.0,18.745190869616636
62877.6342958798,183873.0,156038.0,10407.0,18.75519363955391
62877.64429864974,183874.0,156056.0,10417.0,18.765196409498458
62877.65430141968,183884.0,156028.0,10390.0,18.77519917943573
62877.664304189624,183842.0,155992.0,10381.0,18.78520194938028
62877.67430695956,183887.0,156040.0,10363.0,18.795204719317553
62877.684309729506,183899.0,156048.0,10418.0,18.805207489262102
62877.69431249945,183892.0,156047.0,10387.0,18.81521025920665
62877.70431526939,183894.0,156039.0,10406.0,18.825213029143924
62877.71431803933,183885.0,156021.0,10405.0,18.835215799088473
62877.72432080927,183886.0,156017.0,10405.0,18.845218569025747
62877.734323579214,183901.0,156045.0,10413.0,18.855221338970296
62877.74432634915,183853.0,156018.0,10372.0,18.86522410890757
62877.754329119096,183900.0,156041.0,10429.0,18.875226878852118
62877.76433188903,183861.0,156037.0,10396.0,18.88522964878939
62877.77433465898,183892.0,156047.0,10412.0,18.89523241873394
62877.784337428915,183902.0,156046.0,10378.0,18.905235188671213
62877.79434019886,183885.0,156032.0,10433.0,18.915237958615762
62877.8043429688,183902.0,156049.0,10402.0,18.925240728553035
62877.81434573874,183885.0,156046.0,10411.0,18.935243498497584
62877.82434850868,183878.0,156014.0,10386.0,18.945246268434857
62877.83435127862,183904.0,156031.0,10405.0,18.955249038379407
62877.84435404856,183903.0,156064.0,10415.0,18.96525180831668
62877.854356818505,183920.0,156056.0,10425.0,18.97525457826123
62877.86435958844,183927.0,156029.0,10401.0,18.985257348198502
62877.87436235839,183916.0,156063.0,10387.0,18.99526011814305
62877.884365128324,183935.0,156052.0,10427.0,19.005262888080324
62877.89436789827,183928.0,156072.0,10437.0,19.015265658024873
62877.90437066821,183939.0,156050.0,10458.0,19.025268427969422
62877.91437343815,183998.0,156109.0,10455.0,19.035271197906695
62877.924376208095,183938.0,156063.0,10458.0,19.045273967851244
62877.93437897803,183990.0,156086.0,10468.0,19.055276737788517
62877.94438174798,183992.0,156084.0,10482.0,19.065279507733067
62877.954384517914,183986.0,156069.0,10465.0,19.07528227767034
62877.96438728786,183974.0,156056.0,10476.0,19.08528504761489
62877.974390057796,183995.0,156096.0,10492.0,19.095287817552162
62877.98439282774,183972.0,156081.0,10476.0,19.10529058749671
62877.99439559768,184015.0,156119.0,10510.0,19.115293357433984
62878.00439836762,184006.0,156090.0,10480.0,19.125296127378533
