timestamp,PPG_1,PPG_2,PPG_3,time_from_segment_start_sec
63856.46400421514,126615.0,76894.0,4759.0,0.0
63856.47405486471,126613.0,76928.0,4765.0,0.010050649572804105
63856.484105514275,126629.0,76900.0,4793.0,0.02010129913833225
63856.49415616385,126600.0,76906.0,4781.0,0.030151948711136356
63856.50420681341,126579.0,76896.0,4750.0,0.0402025982766645
63856.51425746298,126627.0,76917.0,4791.0,0.05025324784219265
63856.52430811255,126582.0,76902.0,4762.0,0.060303897414996754
63856.53435876212,126615.0,76899.0,4772.0,0.0703545469805249
63856.54440941169,126602.0,76905.0,4748.0,0.080405196553329
63856.554460061256,126640.0,76907.0,4772.0,0.09045584611885715
63856.56451071082,126602.0,76895.0,4760.0,0.1005064956843853
63856.574561360394,126618.0,76901.0,4751.0,0.1105571452571894
63856.58461200996,126595.0,76906.0,4786.0,0.12060779482271755
63856.59466265953,126611.0,76904.0,4827.0,0.13065844439552166
63856.6047133091,126593.0,76878.0,4781.0,0.1407090939610498
63856.61476395866,126625.0,76904.0,4776.0,0.15075974352657795
63856.624814608236,126619.0,76922.0,4777.0,0.16081039309938205
63856.6348652578,126640.0,76911.0,4778.0,0.1708610426649102
63856.64491590737,126600.0,76928.0,4789.0,0.18091169223043835
63856.65496655694,126644.0,76903.0,4794.0,0.19096234180324245
63856.665017206506,126619.0,76906.0,4782.0,0.2010129913687706
63856.67506785608,126609.0,76890.0,4779.0,0.2110636409415747
63856.685118505644,126608.0,76885.0,4761.0,0.22111429050710285
63856.69516915521,126651.0,76924.0,4781.0,0.231164940072631
63856.70521980478,126627.0,76905.0,4788.0,0.2412155896454351
63856.71527045435,126629.0,76891.0,4797.0,0.25126623921096325
63856.72532110392,126618.0,76895.0,4782.0,0.26131688878376735
63856.735371753486,126648.0,76890.0,4779.0,0.2713675383492955
63856.74542240305,126624.0,76900.0,4778.0,0.28141818791482365
63856.755473052624,126619.0,76875.0,4762.0,0.29146883748762775
63856.76552370219,126619.0,76911.0,4793.0,0.3015194870531559
63856.77557435176,126638.0,76871.0,4777.0,0.31157013662596
63856.78562500133,126644.0,76895.0,4771.0,0.32162078619148815
63856.795675650894,126600.0,76888.0,4772.0,0.3316714357570163
63856.80572630047,126633.0,76923.0,4804.0,0.3417220853298204
63856.81577695003,126657.0,76905.0,4810.0,0.35177273489534855
63856.825827599605,126641.0,76893.0,4782.0,0.36182338446815265
63856.83587824917,126634.0,76891.0,4773.0,0.3718740340336808
63856.845928898736,126646.0,76896.0,4759.0,0.38192468359920895
63856.85597954831,126613.0,76872.0,4763.0,0.39197533317201305
63856.866030197874,126616.0,76903.0,4779.0,0.4020259827375412
63856.87608084745,126622.0,76919.0,4808.0,0.4120766323103453
63856.88613149701,126638.0,76907.0,4807.0,0.42212728187587345
63856.89618214658,126627.0,76874.0,4774.0,0.4321779314414016
63856.90623279615,126634.0,76875.0,4780.0,0.4422285810142057
63856.91628344572,126634.0,76878.0,4781.0,0.45227923057973385
63856.92633409528,126609.0,76893.0,4777.0,0.462329880145262
63856.936384744855,126625.0,76872.0,4766.0,0.4723805297180661
63856.94643539442,126645.0,76880.0,4785.0,0.48243117928359425
63856.95648604399,126674.0,76902.0,4760.0,0.49248182885639835
63856.96653669356,126615.0,76880.0,4784.0,0.5025324784219265
63856.976587343124,126621.0,76876.0,4770.0,0.5125831279874546
63856.9866379927,126657.0,76891.0,4775.0,0.5226337775602587
63856.99668864226,126645.0,76915.0,4737.0,0.5326844271257869
63857.006739291835,126646.0,76887.0,4768.0,0.542735076698591
63857.0167899414,126644.0,76883.0,4772.0,0.5527857262641191
63857.02684059097,126661.0,76892.0,4787.0,0.5628363758296473
63857.03689124054,126661.0,76925.0,4795.0,0.5728870254024514
63857.046941890105,126660.0,76853.0,4777.0,0.5829376749679795
63857.05699253968,126673.0,76890.0,4767.0,0.5929883245407837
63857.06704318924,126655.0,76905.0,4777.0,0.6030389741063118
63857.07709383881,126646.0,76888.0,4798.0,0.61308962367184
63857.08714448838,126632.0,76869.0,4772.0,0.623140273244644
63857.09719513795,126638.0,76920.0,4792.0,0.6331909228101722
63857.10724578751,126631.0,76891.0,4763.0,0.6432415723757003
63857.117296437085,126658.0,76885.0,4782.0,0.6532922219485044
63857.12734708665,126649.0,76912.0,4761.0,0.6633428715140326
63857.137397736224,126674.0,76907.0,4813.0,0.6733935210868367
63857.14744838579,126658.0,76888.0,4779.0,0.6834441706523648
63857.157499035355,126662.0,76892.0,4782.0,0.693494820217893
63857.16754968493,126675.0,76913.0,4806.0,0.7035454697906971
63857.17760033449,126692.0,76909.0,4790.0,0.7135961193562252
63857.187650984066,126677.0,76883.0,4803.0,0.7236467689290293
63857.19770163363,126662.0,76901.0,4787.0,0.7336974184945575
63857.2077522832,126680.0,76900.0,4792.0,0.7437480680600856
63857.21780293277,126693.0,76919.0,4817.0,0.7537987176328897
63857.227853582335,126635.0,76889.0,4763.0,0.7638493671984179
63857.23790423191,126666.0,76904.0,4785.0,0.773900016771222
63857.24795488147,126668.0,76898.0,4808.0,0.7839506663367501
63857.25800553104,126654.0,76879.0,4783.0,0.7940013159022783
63857.26805618061,126612.0,76834.0,4754.0,0.8040519654750824
63857.27810683018,126635.0,76891.0,4789.0,0.8141026150406105
63857.28815747975,126663.0,76917.0,4780.0,0.8241532646134146
63857.298208129316,126640.0,76862.0,4782.0,0.8342039141789428
63857.30825877888,126626.0,76896.0,4775.0,0.8442545637444709
63857.318309428454,126639.0,76892.0,4776.0,0.854305213317275
63857.32836007802,126622.0,76861.0,4766.0,0.8643558628828032
63857.33841072759,126649.0,76920.0,4805.0,0.8744065124556073
63857.34846137716,126633.0,76906.0,4790.0,0.8844571620211354
63857.35851202672,126629.0,76895.0,4776.0,0.8945078115866636
63857.368562676296,126632.0,76877.0,4766.0,0.9045584611594677
63857.37861332586,126629.0,76875.0,4749.0,0.9146091107249958
63857.38866397543,126644.0,76867.0,4754.0,0.924659760290524
63857.398714625,126670.0,76921.0,4793.0,0.9347104098633281
63857.408765274566,126639.0,76913.0,4770.0,0.9447610594288562
63857.41881592414,126655.0,76886.0,4783.0,0.9548117090016603
63857.428866573704,126636.0,76877.0,4766.0,0.9648623585671885
63857.43891722327,126636.0,76893.0,4786.0,0.9749130081327166
63857.44896787284,126621.0,76899.0,4785.0,0.9849636577055207
63857.45901852241,126643.0,76907.0,4792.0,0.9950143072710489
63857.46906917198,126640.0,76900.0,4763.0,1.005064956843853
63857.479119821546,126650.0,76901.0,4782.0,1.0151156064093811
63857.48917047111,126645.0,76898.0,4749.0,1.0251662559749093
63857.499221120685,126653.0,76888.0,4777.0,1.0352169055477134
63857.50927177025,126617.0,76876.0,4761.0,1.0452675551132415
63857.51932241982,126648.0,76892.0,4773.0,1.0553182046860456
63857.52937306939,126608.0,76898.0,4782.0,1.0653688542515738
63857.539423718954,126648.0,76918.0,4792.0,1.075419503817102
63857.54947436853,126652.0,76895.0,4793.0,1.085470153389906
63857.55952501809,126632.0,76895.0,4769.0,1.0955208029554342
63857.56957566766,126651.0,76897.0,4772.0,1.1055714525209623
63857.57962631723,126641.0,76903.0,4764.0,1.1156221020937664
63857.589676966796,126628.0,76874.0,4765.0,1.1256727516592946
63857.59972761637,126672.0,76873.0,4808.0,1.1357234012320987
63857.609778265934,126646.0,76909.0,4780.0,1.1457740507976268
63857.6198289155,126614.0,76899.0,4791.0,1.155824700363155
63857.62987956507,126634.0,76897.0,4763.0,1.165875349935959
63857.63993021464,126626.0,76885.0,4769.0,1.1759259995014872
63857.64998086421,126651.0,76882.0,4777.0,1.1859766490742913
63857.66003151378,126628.0,76850.0,4771.0,1.1960272986398195
63857.67008216334,126611.0,76873.0,4768.0,1.2060779482053476
63857.680132812915,126637.0,76871.0,4785.0,1.2161285977781517
63857.69018346248,126648.0,76897.0,4784.0,1.22617924734368
63857.70023411205,126688.0,76889.0,4804.0,1.236229896916484
63857.71028476162,126635.0,76894.0,4752.0,1.2462805464820121
63857.720335411184,126670.0,76907.0,4806.0,1.2563311960475403
63857.73038606076,126641.0,76883.0,4784.0,1.2663818456203444
63857.74043671032,126634.0,76884.0,4795.0,1.2764324951858725
63857.750487359895,126638.0,76865.0,4761.0,1.2864831447586766
63857.76053800946,126678.0,76906.0,4797.0,1.2965337943242048
63857.77058865903,126659.0,76891.0,4784.0,1.306584443889733
63857.7806393086,126648.0,76886.0,4775.0,1.316635093462537
63857.790689958165,126689.0,76893.0,4809.0,1.3266857430280652
63857.80074060774,126703.0,76910.0,4806.0,1.3367363926008693
63857.8107912573,126648.0,76893.0,4776.0,1.3467870421663974
63857.82084190687,126642.0,76901.0,4778.0,1.3568376917319256
63857.83089255644,126649.0,76897.0,4762.0,1.3668883413047297
63857.84094320601,126661.0,76915.0,4810.0,1.3769389908702578
63857.85099385557,126660.0,76894.0,4788.0,1.386989640435786
63857.861044505145,126654.0,76900.0,4769.0,1.39704029000859
63857.87109515471,126660.0,76898.0,4755.0,1.4070909395741182
63857.881145804284,126631.0,76892.0,4793.0,1.4171415891469223
63857.89119645385,126661.0,76889.0,4783.0,1.4271922387124505
63857.901247103415,126632.0,76905.0,4795.0,1.4372428882779786
63857.91129775299,126665.0,76876.0,4791.0,1.4472935378507827
63857.92134840255,126666.0,76886.0,4811.0,1.4573441874163109
63857.931399052126,126659.0,76885.0,4769.0,1.467394836989115
63857.94144970169,126646.0,76880.0,4774.0,1.4774454865546431
63857.95150035126,126672.0,76867.0,4796.0,1.4874961361201713
63857.96155100083,126637.0,76876.0,4777.0,1.4975467856929754
63857.971601650395,126671.0,76890.0,4766.0,1.5075974352585035
63857.98165229997,126676.0,76866.0,4799.0,1.5176480848313076
63857.991702949534,126642.0,76899.0,4768.0,1.5276987343968358
63858.0017535991,126680.0,76928.0,4795.0,1.537749383962364
63858.01180424867,126675.0,76891.0,4779.0,1.547800033535168
63858.02185489824,126671.0,76865.0,4787.0,1.5578506831006962
63858.03190554781,126688.0,76893.0,4794.0,1.5679013326735003
63858.041956197376,126673.0,76889.0,4774.0,1.5779519822390284
63858.05200684694,126683.0,76883.0,4778.0,1.5880026318045566
63858.062057496514,126658.0,76877.0,4812.0,1.5980532813773607
63858.07210814608,126675.0,76892.0,4775.0,1.6081039309428888
63858.082158795645,126670.0,76864.0,4790.0,1.618154580508417
63858.09220944522,126633.0,76862.0,4774.0,1.628205230081221
63858.10226009478,126669.0,76896.0,4783.0,1.6382558796467492
63858.11231074436,126649.0,76908.0,4798.0,1.6483065292195533
63858.12236139392,126674.0,76877.0,4774.0,1.6583571787850815
63858.13241204349,126651.0,76922.0,4798.0,1.6684078283506096
63858.14246269306,126684.0,76898.0,4789.0,1.6784584779234137
63858.152513342626,126656.0,76894.0,4774.0,1.6885091274889419
63858.1625639922,126670.0,76889.0,4774.0,1.698559777061746
63858.172614641764,126673.0,76911.0,4826.0,1.7086104266272741
63858.18266529133,126658.0,76889.0,4785.0,1.7186610761928023
63858.1927159409,126653.0,76909.0,4847.0,1.7287117257656064
63858.20276659047,126631.0,76906.0,4795.0,1.7387623753311345
63858.21281724004,126612.0,76882.0,4750.0,1.7488130249039386
63858.222867889606,126633.0,76897.0,4787.0,1.7588636744694668
63858.23291853917,126624.0,76878.0,4770.0,1.768914324034995
63858.242969188745,126643.0,76874.0,4779.0,1.778964973607799
63858.25301983831,126614.0,76866.0,4806.0,1.7890156231733272
63858.26307048788,126620.0,76894.0,4772.0,1.7990662727461313
63858.27312113745,126590.0,76890.0,4779.0,1.8091169223116594
63858.283171787014,126607.0,76897.0,4765.0,1.8191675718771876
63858.29322243659,126652.0,76901.0,4793.0,1.8292182214499917
63858.30327308615,126633.0,76888.0,4777.0,1.8392688710155198
63858.31332373572,126614.0,76920.0,4807.0,1.849319520581048
63858.32337438529,126606.0,76917.0,4774.0,1.859370170153852
63858.333425034856,126633.0,76875.0,4759.0,1.8694208197193802
63858.34347568443,126636.0,76893.0,4783.0,1.8794714692921843
63858.353526333995,126660.0,76904.0,4790.0,1.8895221188577125
63858.36357698356,126658.0,76875.0,4789.0,1.8995727684232406
63858.37362763313,126629.0,76886.0,4772.0,1.9096234179960447
63858.3836782827,126640.0,76885.0,4778.0,1.9196740675615729
63858.39372893227,126661.0,76907.0,4772.0,1.929724717134377
63858.40377958184,126632.0,76880.0,4760.0,1.9397753666999051
63858.4138302314,126674.0,76896.0,4804.0,1.9498260162654333
63858.423880880975,126635.0,76886.0,4788.0,1.9598766658382374
63858.43393153054,126651.0,76902.0,4800.0,1.9699273154037655
63858.44398218011,126609.0,76872.0,4766.0,1.9799779649765696
63858.45403282968,126662.0,76920.0,4773.0,1.9900286145420978
63858.464083479244,126649.0,76876.0,4804.0,2.000079264107626
63858.47413412882,126641.0,76902.0,4783.0,2.01012991368043
63858.48418477838,126640.0,76895.0,4777.0,2.020180563245958
63858.494235427956,126642.0,76880.0,4794.0,2.0302312128187623
63858.50428607752,126614.0,76884.0,4796.0,2.0402818623842904
63858.51433672709,126640.0,76888.0,4780.0,2.0503325119498186
63858.52438737666,126646.0,76899.0,4748.0,2.0603831615226227
63858.534438026225,126669.0,76907.0,4800.0,2.070433811088151
63858.54448867579,126602.0,76864.0,4772.0,2.080484460653679
63858.55453932536,126646.0,76889.0,4784.0,2.090535110226483
63858.56458997493,126622.0,76913.0,4776.0,2.1005857597920112
63858.5746406245,126667.0,76892.0,4812.0,2.1106364093648153
63858.58469127407,126628.0,76873.0,4773.0,2.1206870589303435
63858.59474192363,126647.0,76873.0,4807.0,2.1307377084958716
63858.604792573205,126645.0,76902.0,4777.0,2.1407883580686757
63858.61484322277,126635.0,76896.0,4779.0,2.150839007634204
63858.624893872344,126624.0,76905.0,4772.0,2.160889657207008
63858.63494452191,126649.0,76882.0,4782.0,2.170940306772536
63858.644995171475,126660.0,76878.0,4801.0,2.1809909563380643
63858.65504582105,126650.0,76864.0,4798.0,2.1910416059108684
63858.66509647061,126632.0,76853.0,4780.0,2.2010922554763965
63858.675147120186,126654.0,76889.0,4782.0,2.2111429050492006
63858.68519776975,126634.0,76927.0,4808.0,2.221193554614729
63858.69524841932,126657.0,76875.0,4765.0,2.231244204180257
63858.70529906889,126688.0,76918.0,4793.0,2.241294853753061
63858.715349718455,126656.0,76902.0,4790.0,2.251345503318589
63858.72540036803,126635.0,76863.0,4764.0,2.2613961528913933
63858.735451017594,126637.0,76883.0,4773.0,2.2714468024569214
63858.74550166716,126671.0,76915.0,4771.0,2.2814974520224496
63858.75555231673,126655.0,76893.0,4782.0,2.2915481015952537
63858.7656029663,126652.0,76891.0,4836.0,2.301598751160782
63858.77565361586,126655.0,76897.0,4760.0,2.31164940072631
63858.785704265436,126653.0,76922.0,4814.0,2.321700050299114
63858.795754915,126664.0,76886.0,4783.0,2.3317506998646422
63858.805805564574,126649.0,76886.0,4769.0,2.3418013494374463
63858.81585621414,126651.0,76893.0,4776.0,2.3518519990029745
63858.825906863705,126671.0,76900.0,4817.0,2.3619026485685026
63858.83595751328,126663.0,76895.0,4799.0,2.3719532981413067
63858.846008162844,126633.0,76875.0,4769.0,2.382003947706835
63858.85605881242,126671.0,76925.0,4806.0,2.392054597279639
63858.86610946198,126623.0,76902.0,4795.0,2.402105246845167
63858.87616011155,126666.0,76894.0,4791.0,2.4121558964106953
63858.88621076112,126687.0,76927.0,4815.0,2.4222065459834994
63858.896261410686,126686.0,76911.0,4801.0,2.4322571955490275
63858.90631206026,126634.0,76884.0,4772.0,2.4423078451218316
63858.916362709824,126666.0,76896.0,4785.0,2.45235849468736
63858.92641335939,126682.0,76883.0,4793.0,2.462409144252888
63858.93646400896,126682.0,76910.0,4800.0,2.472459793825692
63858.94651465853,126661.0,76872.0,4780.0,2.48251044339122
63858.9565653081,126661.0,76898.0,4783.0,2.4925610929640243
63858.96661595767,126664.0,76882.0,4791.0,2.5026117425295524
63858.97666660723,126684.0,76921.0,4811.0,2.5126623920950806
63858.986717256805,126639.0,76886.0,4768.0,2.5227130416678847
63858.99676790637,126680.0,76899.0,4800.0,2.532763691233413
63859.006818555936,126655.0,76894.0,4788.0,2.542814340798941
63859.01686920551,126652.0,76869.0,4795.0,2.552864990371745
63859.026919855074,126668.0,76869.0,4776.0,2.5629156399372732
63859.03697050465,126702.0,76907.0,4791.0,2.5729662895100773
63859.04702115421,126676.0,76903.0,4790.0,2.5830169390756055
63859.05707180378,126661.0,76882.0,4778.0,2.5930675886411336
63859.06712245335,126670.0,76898.0,4779.0,2.6031182382139377
63859.077173102916,126675.0,76887.0,4802.0,2.613168887779466
63859.08722375249,126661.0,76904.0,4789.0,2.62321953735227
63859.097274402055,126648.0,76893.0,4766.0,2.633270186917798
63859.10732505162,126660.0,76927.0,4772.0,2.6433208364833263
63859.11737570119,126649.0,76868.0,4777.0,2.6533714860561304
63859.12742635076,126613.0,76869.0,4777.0,2.6634221356216585
63859.13747700033,126625.0,76879.0,4771.0,2.6734727851944626
63859.1475276499,126611.0,76903.0,4782.0,2.6835234347599908
63859.15757829946,126637.0,76900.0,4762.0,2.693574084325519
63859.167628949035,126622.0,76896.0,4776.0,2.703624733898323
63859.1776795986,126620.0,76889.0,4747.0,2.713675383463851
63859.18773024817,126647.0,76906.0,4789.0,2.7237260330366553
63859.19778089774,126623.0,76881.0,4755.0,2.7337766826021834
63859.207831547305,126639.0,76897.0,4784.0,2.7438273321677116
63859.21788219688,126597.0,76909.0,4782.0,2.7538779817405157
63859.22793284644,126639.0,76915.0,4797.0,2.763928631306044
63859.23798349601,126608.0,76869.0,4783.0,2.773979280871572
63859.24803414558,126632.0,76896.0,4780.0,2.784029930444376
63859.25808479515,126647.0,76881.0,4787.0,2.7940805800099042
63859.26813544472,126647.0,76895.0,4795.0,2.8041312295827083
63859.278186094285,126604.0,76880.0,4761.0,2.8141818791482365
63859.28823674385,126627.0,76887.0,4777.0,2.8242325287137646
63859.29828739342,126640.0,76901.0,4795.0,2.8342831782865687
63859.30833804299,126605.0,76867.0,4793.0,2.844333827852097
63859.31838869256,126618.0,76865.0,4772.0,2.854384477424901
63859.32843934213,126633.0,76894.0,4782.0,2.864435126990429
63859.33848999169,126637.0,76914.0,4792.0,2.8744857765559573
63859.348540641266,126637.0,76869.0,4781.0,2.8845364261287614
63859.35859129083,126624.0,76892.0,4770.0,2.8945870756942895
63859.368641940404,126621.0,76895.0,4776.0,2.9046377252670936
63859.37869258997,126628.0,76913.0,4803.0,2.9146883748326218
63859.388743239535,126600.0,76880.0,4738.0,2.92473902439815
63859.39879388911,126654.0,76913.0,4764.0,2.934789673970954
63859.40884453867,126627.0,76887.0,4765.0,2.944840323536482
63859.418895188246,126615.0,76893.0,4789.0,2.9548909731092863
63859.42894583781,126630.0,76888.0,4776.0,2.9649416226748144
63859.43899648738,126665.0,76911.0,4795.0,2.9749922722403426
63859.44904713695,126661.0,76886.0,4800.0,2.9850429218131467
63859.459097786515,126644.0,76892.0,4773.0,2.995093571378675
63859.46914843608,126628.0,76877.0,4782.0,3.005144220944203
63859.479199085654,126638.0,76906.0,4807.0,3.015194870517007
63859.48924973522,126609.0,76864.0,4759.0,3.0252455200825352
63859.49930038479,126637.0,76893.0,4779.0,3.0352961696553393
63859.50935103436,126605.0,76907.0,4787.0,3.0453468192208675
63859.51940168392,126658.0,76906.0,4807.0,3.0553974687863956
63859.529452333496,126646.0,76890.0,4759.0,3.0654481183591997
63859.53950298306,126646.0,76901.0,4783.0,3.075498767924728
63859.549553632634,126615.0,76875.0,4782.0,3.085549417497532
63859.5596042822,126645.0,76918.0,4803.0,3.09560006706306
63859.569654931765,126638.0,76892.0,4757.0,3.1056507166285883
63859.57970558134,126640.0,76896.0,4782.0,3.1157013662013924
63859.589756230904,126650.0,76891.0,4789.0,3.1257520157669205
63859.59980688048,126664.0,76862.0,4776.0,3.1358026653397246
63859.60985753004,126662.0,76885.0,4790.0,3.1458533149052528
63859.61990817961,126633.0,76890.0,4781.0,3.155903964470781
63859.62995882918,126619.0,76901.0,4769.0,3.165954614043585
63859.640009478746,126644.0,76880.0,4774.0,3.176005263609113
63859.65006012832,126636.0,76905.0,4789.0,3.1860559131819173
63859.660110777884,126646.0,76897.0,4782.0,3.1961065627474454
63859.67016142745,126656.0,76910.0,4775.0,3.2061572123129736
63859.68021207702,126638.0,76865.0,4773.0,3.2162078618857777
63859.69026272659,126657.0,76907.0,4765.0,3.226258511451306
63859.700313376154,126658.0,76899.0,4787.0,3.236309161016834
63859.71036402573,126629.0,76869.0,4812.0,3.246359810589638
63859.72041467529,126650.0,76885.0,4774.0,3.256410460155166
63859.730465324865,126663.0,76863.0,4793.0,3.2664611097279703
63859.74051597443,126659.0,76901.0,4788.0,3.2765117592934985
63859.750566623996,126689.0,76873.0,4787.0,3.2865624088590266
63859.76061727357,126636.0,76888.0,4779.0,3.2966130584318307
63859.770667923134,126672.0,76922.0,4777.0,3.306663707997359
63859.78071857271,126656.0,76904.0,4789.0,3.316714357570163
63859.79076922227,126621.0,76927.0,4778.0,3.326765007135691
63859.80081987184,126626.0,76899.0,4777.0,3.3368156567012193
63859.81087052141,126637.0,76892.0,4776.0,3.3468663062740234
63859.82092117098,126658.0,76898.0,4795.0,3.3569169558395515
63859.83097182055,126666.0,76890.0,4767.0,3.3669676054123556
63859.841022470115,126686.0,76902.0,4799.0,3.3770182549778838
63859.85107311968,126679.0,76914.0,4799.0,3.387068904543412
63859.86112376925,126672.0,76912.0,4766.0,3.397119554116216
63859.87117441882,126652.0,76896.0,4806.0,3.407170203681744
63859.88122506839,126670.0,76911.0,4794.0,3.4172208532545483
63859.89127571796,126658.0,76880.0,4771.0,3.4272715028200764
63859.90132636752,126647.0,76912.0,4771.0,3.4373221523856046
63859.911377017095,126667.0,76882.0,4792.0,3.4473728019584087
63859.92142766666,126693.0,76895.0,4833.0,3.457423451523937
63859.931478316226,126643.0,76929.0,4793.0,3.467474101089465
63859.9415289658,126669.0,76898.0,4795.0,3.477524750662269
63859.951579615365,126675.0,76901.0,4791.0,3.487575400227797
63859.96163026494,126685.0,76918.0,4798.0,3.4976260498006013
63859.9716809145,126654.0,76911.0,4769.0,3.5076766993661295
63859.98173156407,126688.0,76897.0,4784.0,3.5177273489316576
63859.99178221364,126671.0,76912.0,4788.0,3.5277779985044617
63860.00183286321,126649.0,76925.0,4801.0,3.53782864806999
63860.01188351278,126683.0,76932.0,4794.0,3.547879297642794
63860.021934162345,126650.0,76934.0,4806.0,3.557929947208322
63860.03198481191,126641.0,76903.0,4782.0,3.5679805967738503
63860.04203546148,126647.0,76894.0,4751.0,3.5780312463466544
63860.05208611105,126640.0,76901.0,4769.0,3.5880818959121825
63860.06213676062,126649.0,76926.0,4795.0,3.5981325454849866
63860.07218741019,126635.0,76909.0,4776.0,3.6081831950505148
63860.08223805975,126616.0,76904.0,4788.0,3.618233844616043
63860.092288709326,126607.0,76918.0,4770.0,3.628284494188847
63860.10233935889,126628.0,76906.0,4758.0,3.638335143754375
63860.112390008464,126641.0,76908.0,4781.0,3.6483857933271793
63860.12244065803,126646.0,76891.0,4764.0,3.6584364428927074
63860.132491307595,126620.0,76917.0,4800.0,3.6684870924582356
63860.14254195717,126657.0,76934.0,4795.0,3.6785377420310397
63860.15259260673,126637.0,76904.0,4781.0,3.688588391596568
63860.1626432563,126616.0,76894.0,4778.0,3.698639041162096
63860.17269390587,126658.0,76934.0,4800.0,3.7086896907349
63860.18274455544,126653.0,76883.0,4783.0,3.718740340300428
63860.19279520501,126612.0,76864.0,4763.0,3.7287909898732323
63860.202845854576,126648.0,76868.0,4767.0,3.7388416394387605
63860.21289650414,126657.0,76920.0,4782.0,3.7488922890042886
63860.222947153714,126622.0,76899.0,4769.0,3.7589429385770927
63860.23299780328,126645.0,76895.0,4781.0,3.768993588142621
63860.24304845285,126655.0,76899.0,4797.0,3.779044237715425
63860.25309910242,126647.0,76916.0,4800.0,3.789094887280953
63860.26314975198,126624.0,76905.0,4751.0,3.7991455368464813
63860.273200401556,126641.0,76903.0,4789.0,3.8091961864192854
63860.28325105112,126635.0,76902.0,4758.0,3.8192468359848135
63860.293301700694,126633.0,76886.0,4794.0,3.8292974855576176
63860.30335235026,126615.0,76882.0,4770.0,3.8393481351231458
63860.313402999825,126628.0,76889.0,4776.0,3.849398784688674
63860.3234536494,126662.0,76914.0,4803.0,3.859449434261478
63860.333504298964,126603.0,76889.0,4759.0,3.869500083827006
63860.34355494854,126665.0,76904.0,4765.0,3.8795507333998103
63860.3536055981,126645.0,76903.0,4809.0,3.8896013829653384
63860.36365624767,126652.0,76927.0,4773.0,3.8996520325308666
63860.37370689724,126635.0,76888.0,4778.0,3.9097026821036707
63860.383757546806,126632.0,76904.0,4755.0,3.919753331669199
63860.39380819637,126643.0,76904.0,4768.0,3.929803981234727
63860.403858845944,126641.0,76881.0,4789.0,3.939854630807531
63860.41390949551,126623.0,76882.0,4789.0,3.949905280373059
63860.42396014508,126671.0,76911.0,4799.0,3.9599559299458633
63860.43401079465,126651.0,76893.0,4784.0,3.9700065795113915
63860.444061444214,126658.0,76913.0,4786.0,3.9800572290769196
63860.45411209379,126633.0,76895.0,4771.0,3.9901078786497237
63860.46416274335,126667.0,76925.0,4802.0,4.000158528215252
63860.474213392925,126662.0,76882.0,4799.0,4.010209177788056
63860.48426404249,126660.0,76903.0,4780.0,4.020259827353584
63860.494314692056,126628.0,76875.0,4785.0,4.030310476919112
63860.50436534163,126670.0,76913.0,4780.0,4.040361126491916
63860.514415991194,126645.0,76913.0,4808.0,4.0504117760574445
63860.52446664077,126650.0,76891.0,4787.0,4.060462425630249
63860.53451729033,126673.0,76884.0,4803.0,4.070513075195777
63860.5445679399,126640.0,76890.0,4788.0,4.080563724761305
63860.55461858947,126644.0,76902.0,4774.0,4.090614374334109
63860.56466923904,126658.0,76897.0,4793.0,4.100665023899637
63860.57471988861,126670.0,76909.0,4761.0,4.110715673472441
63860.584770538175,126670.0,76912.0,4803.0,4.120766323037969
63860.59482118774,126611.0,76836.0,4757.0,4.130816972603498
63860.60487183731,126662.0,76890.0,4792.0,4.140867622176302
63860.61492248688,126634.0,76895.0,4779.0,4.15091827174183
63860.624973136444,126635.0,76883.0,4770.0,4.160968921307358
63860.63502378602,126649.0,76882.0,4784.0,4.171019570880162
63860.64507443558,126658.0,76894.0,4776.0,4.18107022044569
63860.655125085155,126661.0,76915.0,4801.0,4.191120870018494
63860.66517573472,126681.0,76913.0,4781.0,4.2011715195840225
63860.675226384286,126656.0,76891.0,4765.0,4.211222169149551
63860.68527703386,126676.0,76893.0,4782.0,4.221272818722355
63860.695327683425,126693.0,76897.0,4820.0,4.231323468287883
63860.705378333,126665.0,76913.0,4806.0,4.241374117860687
63860.71542898256,126656.0,76894.0,4768.0,4.251424767426215
63860.72547963213,126675.0,76902.0,4785.0,4.261475416991743
63860.7355302817,126654.0,76890.0,4798.0,4.271526066564547
63860.74558093127,126674.0,76914.0,4806.0,4.2815767161300755
63860.75563158084,126672.0,76918.0,4798.0,4.29162736570288
63860.765682230405,126681.0,76905.0,4787.0,4.301678015268408
63860.77573287997,126651.0,76870.0,4793.0,4.311728664833936
63860.78578352954,126656.0,76875.0,4770.0,4.32177931440674
63860.79583417911,126687.0,76916.0,4782.0,4.331829963972268
63860.80588482868,126679.0,76902.0,4823.0,4.341880613545072
63860.81593547825,126673.0,76899.0,4790.0,4.3519312631106
63860.82598612781,126662.0,76877.0,4794.0,4.361981912676129
63860.836036777386,126703.0,76909.0,4809.0,4.372032562248933
63860.84608742695,126685.0,76904.0,4789.0,4.382083211814461
63860.85613807652,126697.0,76905.0,4769.0,4.392133861379989
63860.86618872609,126711.0,76906.0,4766.0,4.402184510952793
63860.876239375655,126705.0,76903.0,4805.0,4.412235160518321
63860.88629002523,126671.0,76881.0,4788.0,4.422285810091125
63860.89634067479,126678.0,76904.0,4790.0,4.4323364596566535
63860.90639132436,126659.0,76865.0,4799.0,4.442387109222182
63860.91644197393,126696.0,76908.0,4798.0,4.452437758794986
63860.9264926235,126677.0,76924.0,4766.0,4.462488408360514
63860.93654327307,126668.0,76896.0,4783.0,4.472539057933318
63860.946593922636,126639.0,76904.0,4824.0,4.482589707498846
63860.9566445722,126644.0,76897.0,4797.0,4.492640357064374
63860.966695221774,126645.0,76883.0,4756.0,4.502691006637178
63860.97674587134,126634.0,76894.0,4782.0,4.5127416562027065
63860.98679652091,126607.0,76892.0,4805.0,4.522792305775511
63860.99684717048,126646.0,76881.0,4796.0,4.532842955341039
63861.00689782004,126625.0,76875.0,4764.0,4.542893604906567
63861.016948469616,126640.0,76889.0,4780.0,4.552944254479371
63861.02699911918,126636.0,76892.0,4769.0,4.562994904044899
63861.037049768755,126627.0,76888.0,4752.0,4.573045553617703
63861.04710041832,126646.0,76910.0,4773.0,4.583096203183231
63861.057151067886,126648.0,76892.0,4770.0,4.59314685274876
63861.06720171746,126613.0,76916.0,4768.0,4.603197502321564
63861.077252367024,126616.0,76891.0,4755.0,4.613248151887092
63861.08730301659,126635.0,76883.0,4770.0,4.62329880145262
63861.09735366616,126661.0,76895.0,4777.0,4.633349451025424
63861.10740431573,126647.0,76876.0,4805.0,4.643400100590952
63861.1174549653,126631.0,76868.0,4811.0,4.653450750163756
63861.127505614866,126611.0,76839.0,4779.0,4.6635013997292845
63861.13755626443,126643.0,76886.0,4782.0,4.673552049294813
63861.147606914004,126623.0,76869.0,4770.0,4.683602698867617
63861.15765756357,126637.0,76881.0,4765.0,4.693653348433145
63861.16770821314,126676.0,76877.0,4784.0,4.703703998005949
63861.17775886271,126649.0,76894.0,4786.0,4.713754647571477
63861.187809512274,126676.0,76914.0,4756.0,4.723805297137005
63861.19786016185,126646.0,76878.0,4760.0,4.733855946709809
63861.20791081141,126652.0,76911.0,4778.0,4.7439065962753375
63861.217961460985,126654.0,76892.0,4775.0,4.753957245848142
63861.22801211055,126649.0,76877.0,4797.0,4.76400789541367
63861.238062760116,126671.0,76907.0,4805.0,4.774058544979198
63861.24811340969,126642.0,76896.0,4779.0,4.784109194552002
63861.258164059254,126622.0,76901.0,4753.0,4.79415984411753
63861.26821470883,126638.0,76907.0,4791.0,4.804210493690334
63861.27826535839,126639.0,76900.0,4771.0,4.814261143255862
63861.28831600796,126648.0,76926.0,4794.0,4.8243117928213906
63861.29836665753,126617.0,76891.0,4759.0,4.834362442394195
63861.3084173071,126658.0,76893.0,4781.0,4.844413091959723
63861.31846795666,126655.0,76902.0,4771.0,4.854463741525251
63861.328518606235,126630.0,76896.0,4786.0,4.864514391098055
63861.3385692558,126625.0,76858.0,4785.0,4.874565040663583
63861.34861990537,126649.0,76887.0,4788.0,4.884615690236387
63861.35867055494,126639.0,76876.0,4783.0,4.8946663398019155
63861.368721204504,126678.0,76889.0,4791.0,4.904716989367444
63861.37877185408,126641.0,76871.0,4776.0,4.914767638940248
63861.38882250364,126667.0,76875.0,4806.0,4.924818288505776
63861.398873153215,126659.0,76894.0,4806.0,4.93486893807858
63861.40892380278,126639.0,76902.0,4796.0,4.944919587644108
63861.41897445235,126669.0,76878.0,4793.0,4.954970237209636
63861.42902510192,126661.0,76894.0,4790.0,4.96502088678244
63861.439075751485,126644.0,76859.0,4774.0,4.9750715363479685
63861.44912640106,126682.0,76909.0,4785.0,4.985122185920773
63861.45917705062,126660.0,76867.0,4779.0,4.995172835486301
63861.46922770019,126669.0,76886.0,4780.0,5.005223485051829
63861.47927834976,126680.0,76885.0,4792.0,5.015274134624633
63861.48932899933,126651.0,76873.0,4769.0,5.025324784190161
63861.4993796489,126657.0,76908.0,4776.0,5.035375433762965
63861.509430298465,126662.0,76895.0,4787.0,5.045426083328493
63861.51948094803,126700.0,76873.0,4812.0,5.0554767328940216
63861.5295315976,126637.0,76861.0,4781.0,5.065527382466826
63861.53958224717,126618.0,76870.0,4767.0,5.075578032032354
63861.549632896735,126670.0,76883.0,4777.0,5.085628681597882
63861.55968354631,126662.0,76912.0,4792.0,5.095679331170686
63861.56973419587,126654.0,76888.0,4772.0,5.105729980736214
63861.579784845446,126646.0,76915.0,4794.0,5.115780630309018
63861.58983549501,126656.0,76886.0,4778.0,5.1258312798745465
63861.59988614458,126654.0,76886.0,4756.0,5.135881929440075
63861.60993679415,126660.0,76894.0,4759.0,5.145932579012879
63861.619987443715,126700.0,76896.0,4810.0,5.155983228578407
63861.63003809329,126654.0,76886.0,4781.0,5.166033878151211
63861.64008874285,126684.0,76886.0,4812.0,5.176084527716739
63861.65013939242,126603.0,76875.0,4760.0,5.186135177282267
63861.66019004199,126624.0,76890.0,4774.0,5.196185826855071
63861.67024069156,126654.0,76884.0,4786.0,5.2062364764205995
63861.68029134113,126640.0,76865.0,4784.0,5.216287125993404
63861.690341990696,126682.0,76900.0,4817.0,5.226337775558932
63861.70039264026,126651.0,76884.0,4786.0,5.23638842512446
63861.710443289834,126663.0,76889.0,4785.0,5.246439074697264
63861.7204939394,126645.0,76884.0,4801.0,5.256489724262792
63861.73054458897,126677.0,76909.0,4807.0,5.266540373835596
63861.74059523854,126650.0,76871.0,4792.0,5.276591023401124
63861.7506458881,126656.0,76887.0,4809.0,5.2866416729666525
63861.760696537676,126671.0,76903.0,4790.0,5.296692322539457
63861.77074718724,126638.0,76909.0,4804.0,5.306742972104985
63861.78079783681,126662.0,76867.0,4753.0,5.316793621670513
63861.79084848638,126666.0,76897.0,4809.0,5.326844271243317
63861.800899135946,126630.0,76906.0,4782.0,5.336894920808845
63861.81094978552,126618.0,76852.0,4777.0,5.346945570381649
63861.821000435084,126626.0,76874.0,4777.0,5.3569962199471775
63861.83105108465,126651.0,76906.0,4795.0,5.367046869512706
63861.84110173422,126625.0,76879.0,4777.0,5.37709751908551
63861.85115238379,126632.0,76878.0,4788.0,5.387148168651038
63861.86120303336,126602.0,76870.0,4749.0,5.397198818223842
63861.871253682926,126627.0,76902.0,4813.0,5.40724946778937
63861.88130433249,126620.0,76880.0,4778.0,5.417300117354898
63861.891354982065,126613.0,76866.0,4756.0,5.427350766927702
63861.90140563163,126639.0,76910.0,4771.0,5.4374014164932305
63861.9114562812,126636.0,76889.0,4792.0,5.447452066066035
63861.92150693077,126598.0,76863.0,4775.0,5.457502715631563
63861.931557580334,126601.0,76860.0,4759.0,5.467553365197091
63861.94160822991,126623.0,76886.0,4804.0,5.477604014769895
63861.95165887947,126620.0,76846.0,4773.0,5.487654664335423
63861.961709529045,126621.0,76877.0,4773.0,5.497705313908227
63861.97176017861,126627.0,76883.0,4741.0,5.507755963473755
63861.981810828176,126647.0,76899.0,4794.0,5.5178066130392835
63861.99186147775,126604.0,76861.0,4786.0,5.527857262612088
63862.001912127314,126641.0,76881.0,4783.0,5.537907912177616
63862.01196277688,126615.0,76907.0,4787.0,5.547958561743144
63862.02201342645,126644.0,76908.0,4804.0,5.558009211315948
63862.03206407602,126598.0,76853.0,4790.0,5.568059860881476
63862.04211472559,126622.0,76888.0,4788.0,5.57811051045428
63862.05216537516,126639.0,76899.0,4803.0,5.5881611600198084
63862.06221602472,126588.0,76849.0,4799.0,5.598211809585337
63862.072266674295,126595.0,76875.0,4760.0,5.608262459158141
63862.08231732386,126615.0,76891.0,4776.0,5.618313108723669
63862.09236797343,126639.0,76880.0,4784.0,5.628363758296473
63862.102418623,126621.0,76861.0,4808.0,5.638414407862001
63862.112469272564,126626.0,76849.0,4774.0,5.648465057427529
63862.12251992214,126627.0,76891.0,4789.0,5.658515707000333
63862.1325705717,126653.0,76911.0,4784.0,5.6685663565658615
63862.142621221275,126622.0,76870.0,4772.0,5.678617006138666
63862.15267187084,126619.0,76894.0,4779.0,5.688667655704194
63862.16272252041,126620.0,76878.0,4793.0,5.698718305269722
63862.17277316998,126633.0,76875.0,4780.0,5.708768954842526
63862.182823819545,126600.0,76867.0,4765.0,5.718819604408054
63862.19287446912,126629.0,76895.0,4757.0,5.728870253980858
63862.20292511868,126618.0,76879.0,4795.0,5.738920903546386
63862.21297576825,126605.0,76873.0,4798.0,5.7489715531119145
63862.22302641782,126623.0,76875.0,4757.0,5.759022202684719
63862.23307706739,126628.0,76917.0,4804.0,5.769072852250247
63862.24312771695,126611.0,76890.0,4759.0,5.779123501815775
63862.253178366525,126649.0,76883.0,4783.0,5.789174151388579
63862.26322901609,126645.0,76913.0,4804.0,5.799224800954107
63862.273279665664,126635.0,76903.0,4810.0,5.809275450526911
63862.28333031523,126619.0,76863.0,4761.0,5.8193261000924394
63862.293380964795,126645.0,76893.0,4773.0,5.829376749657968
63862.30343161437,126642.0,76916.0,4782.0,5.839427399230772
63862.31348226393,126670.0,76883.0,4798.0,5.8494780487963
63862.323532913506,126618.0,76859.0,4748.0,5.859528698369104
63862.33358356307,126640.0,76887.0,4786.0,5.869579347934632
63862.34363421264,126621.0,76906.0,4808.0,5.87962999750016
63862.35368486221,126625.0,76865.0,4770.0,5.889680647072964
63862.363735511775,126604.0,76889.0,4766.0,5.8997312966384925
63862.37378616135,126655.0,76890.0,4785.0,5.909781946211297
63862.38383681091,126663.0,76900.0,4801.0,5.919832595776825
63862.39388746048,126622.0,76855.0,4785.0,5.929883245342353
63862.40393811005,126645.0,76872.0,4784.0,5.939933894915157
63862.41398875962,126643.0,76886.0,4783.0,5.949984544480685
63862.42403940919,126669.0,76935.0,4792.0,5.960035194053489
63862.434090058756,126636.0,76877.0,4766.0,5.970085843619017
63862.44414070832,126670.0,76919.0,4797.0,5.9801364931845455
63862.454191357894,126663.0,76916.0,4806.0,5.99018714275735
63862.46424200746,126650.0,76889.0,4770.0,6.000237792322878
63862.474292657025,126641.0,76867.0,4767.0,6.010288441888406
63862.4843433066,126644.0,76904.0,4773.0,6.02033909146121
63862.49439395616,126659.0,76891.0,4798.0,6.030389741026738
63862.504444605736,126650.0,76917.0,4801.0,6.040440390599542
63862.5144952553,126629.0,76875.0,4760.0,6.0504910401650704
63862.52454590487,126633.0,76910.0,4787.0,6.060541689730599
63862.53459655444,126652.0,76890.0,4794.0,6.070592339303403
63862.544647204006,126669.0,76909.0,4774.0,6.080642988868931
63862.55469785358,126646.0,76883.0,4782.0,6.090693638441735
63862.564748503144,126671.0,76898.0,4810.0,6.100744288007263
63862.57479915271,126667.0,76895.0,4781.0,6.110794937572791
63862.58484980228,126636.0,76907.0,4759.0,6.120845587145595
63862.59490045185,126665.0,76903.0,4819.0,6.1308962367111235
63862.60495110142,126640.0,76869.0,4772.0,6.140946886283928
63862.615001750986,126651.0,76892.0,4787.0,6.150997535849456
63862.62505240055,126642.0,76902.0,4771.0,6.161048185414984
63862.635103050125,126663.0,76915.0,4784.0,6.171098834987788
63862.64515369969,126600.0,76889.0,4783.0,6.181149484553316
63862.65520434926,126627.0,76908.0,4775.0,6.19120013412612
63862.66525499883,126597.0,76902.0,4774.0,6.201250783691648
63862.675305648394,126636.0,76909.0,4797.0,6.2113014332571765
63862.68535629797,126607.0,76889.0,4771.0,6.221352082829981
63862.69540694753,126622.0,76902.0,4798.0,6.231402732395509
63862.7054575971,126621.0,76880.0,4781.0,6.241453381961037
63862.71550824667,126614.0,76914.0,4784.0,6.251504031533841
63862.725558896236,126587.0,76892.0,4758.0,6.261554681099369
63862.73560954581,126613.0,76902.0,4773.0,6.271605330672173
63862.745660195375,126619.0,76923.0,4777.0,6.281655980237701
63862.75571084494,126628.0,76885.0,4778.0,6.29170662980323
63862.76576149451,126639.0,76892.0,4781.0,6.301757279376034
63862.77581214408,126608.0,76888.0,4794.0,6.311807928941562
63862.78586279365,126623.0,76899.0,4777.0,6.321858578514366
63862.79591344322,126621.0,76886.0,4785.0,6.331909228079894
63862.80596409278,126628.0,76916.0,4790.0,6.341959877645422
63862.816014742355,126628.0,76917.0,4809.0,6.352010527218226
63862.82606539192,126626.0,76907.0,4771.0,6.3620611767837545
63862.83611604149,126625.0,76887.0,4752.0,6.372111826356559
63862.84616669106,126645.0,76901.0,4779.0,6.382162475922087
63862.856217340624,126639.0,76857.0,4805.0,6.392213125487615
63862.8662679902,126610.0,76903.0,4778.0,6.402263775060419
63862.87631863976,126594.0,76904.0,4758.0,6.412314424625947
63862.886369289336,126645.0,76892.0,4799.0,6.422365074198751
63862.8964199389,126600.0,76907.0,4756.0,6.432415723764279
63862.90647058847,126621.0,76903.0,4775.0,6.4424663733298075
63862.91652123804,126615.0,76893.0,4767.0,6.452517022902612
63862.926571887605,126634.0,76913.0,4790.0,6.46256767246814
63862.93662253717,126606.0,76884.0,4777.0,6.472618322033668
63862.94667318674,126619.0,76893.0,4788.0,6.482668971606472
63862.95672383631,126587.0,76892.0,4763.0,6.492719621172
63862.96677448588,126643.0,76898.0,4800.0,6.502770270744804
63862.97682513545,126601.0,76895.0,4771.0,6.512820920310332
63862.98687578501,126618.0,76884.0,4766.0,6.522871569875861
63862.996926434585,126624.0,76893.0,4784.0,6.532922219448665
63863.00697708415,126590.0,76865.0,4767.0,6.542972869014193
63863.017027733724,126605.0,76887.0,4754.0,6.553023518586997
63863.02707838329,126625.0,76896.0,4787.0,6.563074168152525
63863.037129032855,126620.0,76907.0,4791.0,6.573124817718053
63863.04717968243,126634.0,76879.0,4803.0,6.583175467290857
63863.05723033199,126607.0,76871.0,4759.0,6.5932261168563855
63863.067280981566,126626.0,76904.0,4777.0,6.60327676642919
63863.07733163113,126642.0,76920.0,4780.0,6.613327415994718
63863.0873822807,126602.0,76904.0,4749.0,6.623378065560246
63863.09743293027,126610.0,76872.0,4774.0,6.63342871513305
63863.107483579835,126637.0,76894.0,4784.0,6.643479364698578
63863.11753422941,126623.0,76890.0,4762.0,6.653530014271382
63863.127584878974,126608.0,76879.0,4770.0,6.66358066383691
63863.13763552854,126639.0,76904.0,4756.0,6.6736313134024385
63863.14768617811,126639.0,76899.0,4805.0,6.683681962975243
63863.15773682768,126628.0,76904.0,4793.0,6.693732612540771
63863.16778747724,126636.0,76914.0,4779.0,6.703783262106299
63863.177838126816,126671.0,76895.0,4799.0,6.713833911679103
63863.18788877638,126619.0,76908.0,4766.0,6.723884561244631
63863.197939425954,126633.0,76896.0,4789.0,6.733935210817435
63863.20799007552,126652.0,76901.0,4773.0,6.743985860382963
63863.218040725085,126653.0,76924.0,4799.0,6.754036509948492
63863.22809137466,126621.0,76889.0,4783.0,6.764087159521296
63863.23814202422,126644.0,76899.0,4786.0,6.774137809086824
63863.2481926738,126641.0,76921.0,4805.0,6.784188458659628
63863.25824332336,126616.0,76894.0,4780.0,6.794239108225156
63863.26829397293,126621.0,76892.0,4784.0,6.804289757790684
63863.2783446225,126646.0,76895.0,4790.0,6.814340407363488
63863.288395272066,126645.0,76910.0,4809.0,6.8243910569290165
63863.29844592164,126633.0,76891.0,4789.0,6.834441706501821
63863.308496571204,126636.0,76893.0,4773.0,6.844492356067349
63863.31854722077,126650.0,76907.0,4779.0,6.854543005632877
63863.32859787034,126686.0,76914.0,4794.0,6.864593655205681
63863.33864851991,126657.0,76882.0,4797.0,6.874644304771209
63863.34869916948,126625.0,76888.0,4759.0,6.884694954344013
63863.358749819046,126646.0,76903.0,4779.0,6.894745603909541
63863.36880046861,126670.0,76936.0,4791.0,6.9047962534750695
63863.378851118185,126635.0,76912.0,4783.0,6.914846903047874
63863.38890176775,126636.0,76924.0,4800.0,6.924897552613402
63863.39895241732,126641.0,76896.0,4791.0,6.934948202186206
63863.40900306689,126624.0,76878.0,4791.0,6.944998851751734
63863.419053716454,126625.0,76892.0,4765.0,6.955049501317262
63863.42910436603,126687.0,76931.0,4795.0,6.965100150890066
63863.43915501559,126668.0,76899.0,4785.0,6.975150800455594
63863.44920566516,126645.0,76918.0,4806.0,6.985201450021123
63863.45925631473,126643.0,76881.0,4774.0,6.995252099593927
63863.469306964296,126670.0,76925.0,4797.0,7.005302749159455
63863.47935761387,126667.0,76906.0,4786.0,7.015353398732259
63863.489408263435,126676.0,76889.0,4774.0,7.025404048297787
63863.499458913,126683.0,76921.0,4766.0,7.035454697863315
63863.50950956257,126654.0,76891.0,4794.0,7.045505347436119
63863.51956021214,126632.0,76888.0,4767.0,7.0555559970016475
63863.52961086171,126645.0,76883.0,4761.0,7.065606646574452
63863.53966151128,126635.0,76913.0,4788.0,7.07565729613998
63863.54971216084,126687.0,76927.0,4811.0,7.085707945705508
63863.559762810415,126672.0,76921.0,4778.0,7.095758595278312
63863.56981345998,126638.0,76900.0,4790.0,7.10580924484384
63863.57986410955,126670.0,76920.0,4766.0,7.115859894416644
63863.58991475912,126645.0,76903.0,4757.0,7.125910543982172
63863.599965408685,126679.0,76925.0,4753.0,7.1359611935477005
63863.61001605826,126670.0,76917.0,4789.0,7.146011843120505
63863.62006670782,126715.0,76946.0,4797.0,7.156062492686033
63863.63011735739,126708.0,76924.0,4787.0,7.166113142251561
63863.64016800696,126683.0,76934.0,4760.0,7.176163791824365
63863.65021865653,126739.0,76914.0,4773.0,7.186214441389893
63863.6602693061,126750.0,76955.0,4806.0,7.196265090962697
63863.670319955665,126707.0,76932.0,4754.0,7.206315740528225
63863.68037060523,126749.0,76932.0,4775.0,7.216366390093754
63863.6904212548,126754.0,76950.0,4775.0,7.226417039666558
63863.70047190437,126744.0,76924.0,4773.0,7.236467689232086
63863.71052255394,126776.0,76931.0,4777.0,7.24651833880489
63863.72057320351,126784.0,76983.0,4796.0,7.256568988370418
63863.73062385307,126776.0,76963.0,4782.0,7.266619637935946
63863.740674502646,126776.0,76970.0,4804.0,7.27667028750875
63863.75072515221,126783.0,76942.0,4768.0,7.2867209370742785
63863.760775801784,126821.0,76960.0,4798.0,7.296771586647083
63863.77082645135,126808.0,76974.0,4786.0,7.306822236212611
63863.780877100915,126792.0,76953.0,4752.0,7.316872885778139
63863.79092775049,126844.0,76996.0,4792.0,7.326923535350943
63863.80097840005,126870.0,76983.0,4802.0,7.336974184916471
63863.811029049626,126855.0,76995.0,4783.0,7.347024834489275
63863.82107969919,126873.0,76982.0,4784.0,7.357075484054803
63863.83113034876,126856.0,77014.0,4780.0,7.3671261336203315
63863.84118099833,126921.0,77024.0,4805.0,7.377176783193136
63863.851231647895,126903.0,77014.0,4789.0,7.387227432758664
63863.86128229747,126898.0,76998.0,4787.0,7.397278082331468
63863.871332947034,126893.0,77002.0,4783.0,7.407328731896996
63863.8813835966,126946.0,77032.0,4771.0,7.417379381462524
63863.89143424617,126916.0,77015.0,4803.0,7.427430031035328
63863.90148489574,126899.0,77032.0,4793.0,7.437480680600856
63863.9115355453,126928.0,77030.0,4805.0,7.447531330166385
63863.921586194876,126868.0,76970.0,4786.0,7.457581979739189
63863.93163684444,126873.0,77013.0,4788.0,7.467632629304717
63863.941687494014,126825.0,76974.0,4788.0,7.477683278877521
63863.95173814358,126858.0,77028.0,4807.0,7.487733928443049
63863.961788793145,126852.0,77024.0,4806.0,7.497784578008577
63863.97183944272,126831.0,77004.0,4796.0,7.507835227581381
63863.981890092284,126893.0,77002.0,4783.0,7.5178858771469095
63863.99194074186,126946.0,77032.0,4771.0,7.527936526719714
63864.00199139142,126916.0,77015.0,4803.0,7.537987176285242
63864.01204204099,126899.0,77032.0,4793.0,7.54803782585077
63864.02209269056,126928.0,77030.0,4805.0,7.558088475423574
63864.032143340126,126868.0,76970.0,4786.0,7.568139124989102
63864.0421939897,126873.0,77013.0,4788.0,7.578189774561906
63864.052244639264,126825.0,76974.0,4788.0,7.588240424127434
63864.06229528883,126858.0,77028.0,4807.0,7.5982910736929625
63864.0723459384,126852.0,77024.0,4806.0,7.608341723265767
63864.08239658797,126831.0,77004.0,4796.0,7.618392372831295
63864.09244723753,126853.0,77016.0,4786.0,7.628443022396823
63864.10249788711,126869.0,76986.0,4809.0,7.638493671969627
63864.11254853667,126831.0,76993.0,4780.0,7.648544321535155
63864.122599186245,126844.0,77009.0,4788.0,7.658594971107959
63864.13264983581,126858.0,77039.0,4811.0,7.668645620673487
63864.142700485376,126841.0,77000.0,4816.0,7.678696270239016
63864.15275113495,126796.0,76974.0,4802.0,7.68874691981182
63864.162801784514,126850.0,77033.0,4782.0,7.698797569377348
63864.17285243409,126850.0,77015.0,4809.0,7.708848218950152
63864.18290308365,126858.0,77031.0,4806.0,7.71889886851568
63864.19295373322,126833.0,76996.0,4787.0,7.728949518081208
63864.20300438279,126834.0,77023.0,4772.0,7.739000167654012
63864.213055032356,126832.0,76993.0,4806.0,7.7490508172195405
63864.22310568193,126812.0,76990.0,4770.0,7.759101466792345
63864.233156331495,126863.0,77017.0,4818.0,7.769152116357873
63864.24320698106,126857.0,77012.0,4790.0,7.779202765923401
63864.25325763063,126839.0,77047.0,4795.0,7.789253415496205
63864.2633082802,126839.0,77005.0,4812.0,7.799304065061733
63864.27335892977,126860.0,77014.0,4799.0,7.809354714634537
63864.28340957934,126812.0,77000.0,4793.0,7.819405364200065
63864.2934602289,126820.0,77024.0,4775.0,7.8294560137655935
63864.303510878475,126796.0,77004.0,4782.0,7.839506663338398
63864.31356152804,126825.0,76987.0,4769.0,7.849557312903926
63864.32361217761,126826.0,76989.0,4764.0,7.85960796247673
63864.33366282718,126819.0,77004.0,4795.0,7.869658612042258
63864.343713476745,126814.0,76998.0,4775.0,7.879709261607786
63864.35376412632,126816.0,77015.0,4768.0,7.88975991118059
63864.36381477588,126794.0,77010.0,4809.0,7.899810560746118
63864.37386542545,126803.0,76995.0,4791.0,7.909861210311647
63864.38391607502,126772.0,76989.0,4805.0,7.919911859884451
63864.39396672459,126776.0,77008.0,4793.0,7.929962509449979
63864.40401737416,126782.0,76962.0,4784.0,7.940013159022783
63864.414068023725,126781.0,76974.0,4784.0,7.950063808588311
63864.42411867329,126740.0,76975.0,4779.0,7.960114458153839
63864.43416932286,126748.0,76964.0,4772.0,7.970165107726643
63864.44421997243,126738.0,76966.0,4799.0,7.9802157572921715
63864.454270622,126751.0,76973.0,4790.0,7.990266406864976
63864.46432127157,126763.0,76963.0,4787.0,8.000317056430504
63864.47437192113,126774.0,76980.0,4795.0,8.010367705996032
63864.484422570706,126721.0,76956.0,4777.0,8.020418355568836
63864.49447322027,126747.0,76970.0,4794.0,8.030469005134364
63864.504523869844,126744.0,76949.0,4793.0,8.040519654707168
63864.51457451941,126720.0,76960.0,4777.0,8.050570304272696
63864.524625168975,126739.0,76978.0,4813.0,8.060620953838225
63864.53467581855,126718.0,76953.0,4793.0,8.070671603411029
63864.54472646811,126738.0,76952.0,4776.0,8.080722252976557
63864.55477711768,126694.0,76904.0,4770.0,8.090772902542085
63864.56482776725,126704.0,76922.0,4788.0,8.100823552114889
63864.57487841682,126712.0,76950.0,4789.0,8.110874201680417
63864.58492906639,126741.0,76970.0,4775.0,8.120924851253221
63864.594979715956,126692.0,76948.0,4773.0,8.13097550081875
63864.60503036552,126692.0,76925.0,4771.0,8.141026150384278
63864.615081015094,126684.0,76948.0,4776.0,8.151076799957082
63864.62513166466,126646.0,76918.0,4785.0,8.16112744952261
63864.63518231423,126706.0,76939.0,4774.0,8.171178099095414
63864.6452329638,126653.0,76927.0,4785.0,8.181228748660942
63864.65528361336,126662.0,76934.0,4797.0,8.19127939822647
63864.665334262936,126660.0,76916.0,4775.0,8.201330047799274
63864.6753849125,126631.0,76919.0,4765.0,8.211380697364802
63864.685435562074,126623.0,76950.0,4767.0,8.221431346937607
63864.69548621164,126602.0,76932.0,4748.0,8.231481996503135
63864.705536861205,126648.0,76921.0,4781.0,8.241532646068663
63864.71558751078,126652.0,76964.0,4795.0,8.251583295641467
63864.725638160344,126663.0,76949.0,4801.0,8.261633945206995
63864.73568880992,126646.0,76932.0,4779.0,8.2716845947798
63864.74573945948,126650.0,76951.0,4764.0,8.281735244345327
63864.75579010905,126631.0,76923.0,4781.0,8.291785893910856
63864.76584075862,126671.0,76957.0,4782.0,8.30183654348366
63864.775891408186,126648.0,76913.0,4781.0,8.311887193049188
63864.78594205776,126655.0,76937.0,4779.0,8.321937842621992
63864.795992707324,126657.0,76929.0,4771.0,8.33198849218752
63864.80604335689,126671.0,76941.0,4763.0,8.342039141753048
63864.81609400646,126666.0,76926.0,4756.0,8.352089791325852
63864.82614465603,126676.0,76948.0,4790.0,8.36214044089138
63864.836195305594,126608.0,76900.0,4778.0,8.372191090456909
63864.84624595517,126652.0,76918.0,4792.0,8.382241740029713
63864.85629660473,126625.0,76912.0,4748.0,8.39229238959524
63864.866347254305,126658.0,76932.0,4771.0,8.402343039168045
63864.87639790387,126647.0,76957.0,4796.0,8.412393688733573
63864.886448553436,126658.0,76929.0,4800.0,8.422444338299101
63864.89649920301,126637.0,76923.0,4740.0,8.432494987871905
63864.906549852574,126656.0,76925.0,4769.0,8.442545637437433
63864.91660050215,126666.0,76915.0,4760.0,8.452596287010238
63864.92665115171,126634.0,76929.0,4756.0,8.462646936575766
63864.93670180128,126635.0,76927.0,4785.0,8.472697586141294
63864.94675245085,126649.0,76931.0,4775.0,8.482748235714098
63864.95680310042,126628.0,76926.0,4805.0,8.492798885279626
63864.96685374999,126603.0,76892.0,4757.0,8.50284953485243
63864.976904399555,126620.0,76927.0,4773.0,8.512900184417958
63864.98695504912,126649.0,76914.0,4781.0,8.522950833983487
63864.99700569869,126632.0,76913.0,4797.0,8.53300148355629
63865.00705634826,126643.0,76903.0,4763.0,8.543052133121819
63865.017106997824,126642.0,76898.0,4760.0,8.553102782687347
63865.0271576474,126654.0,76918.0,4774.0,8.563153432260151
63865.03720829696,126650.0,76901.0,4770.0,8.57320408182568
63865.047258946535,126619.0,76917.0,4745.0,8.583254731398483
63865.0573095961,126664.0,76938.0,4787.0,8.593305380964011
63865.067360245666,126644.0,76922.0,4769.0,8.60335603052954
63865.07741089524,126651.0,76908.0,4781.0,8.613406680102344
63865.087461544805,126656.0,76900.0,4770.0,8.623457329667872
63865.09751219438,126637.0,76901.0,4798.0,8.633507979240676
63865.10756284394,126649.0,76922.0,4760.0,8.643558628806204
63865.11761349351,126644.0,76902.0,4797.0,8.653609278371732
63865.12766414308,126657.0,76946.0,4773.0,8.663659927944536
63865.13771479265,126647.0,76904.0,4761.0,8.673710577510064
63865.14776544222,126636.0,76927.0,4745.0,8.683761227082869
63865.157816091785,126659.0,76911.0,4776.0,8.693811876648397
63865.16786674135,126671.0,76938.0,4764.0,8.703862526213925
63865.17791739092,126658.0,76928.0,4784.0,8.713913175786729
63865.18796804049,126640.0,76888.0,4765.0,8.723963825352257
63865.19801869006,126652.0,76923.0,4774.0,8.734014474925061
63865.20806933963,126679.0,76942.0,4781.0,8.74406512449059
63865.21811998919,126633.0,76908.0,4761.0,8.754115774056118
63865.228170638766,126651.0,76904.0,4728.0,8.764166423628922
63865.23822128833,126648.0,76915.0,4768.0,8.77421707319445
63865.248271937904,126640.0,76904.0,4763.0,8.784267722767254
63865.25832258747,126610.0,76884.0,4784.0,8.794318372332782
63865.268373237035,126635.0,76952.0,4775.0,8.80436902189831
63865.27842388661,126657.0,76911.0,4768.0,8.814419671471114
63865.28847453617,126680.0,76894.0,4779.0,8.824470321036642
63865.29852518574,126624.0,76907.0,4786.0,8.83452097060217
63865.30857583531,126679.0,76931.0,4783.0,8.844571620174975
63865.31862648488,126656.0,76907.0,4785.0,8.854622269740503
63865.32867713445,126624.0,76924.0,4788.0,8.864672919313307
63865.338727784016,126648.0,76913.0,4767.0,8.874723568878835
63865.34877843358,126667.0,76939.0,4797.0,8.884774218444363
63865.358829083154,126641.0,76882.0,4784.0,8.894824868017167
63865.36887973272,126639.0,76895.0,4783.0,8.904875517582695
63865.37893038229,126642.0,76906.0,4780.0,8.9149261671555
63865.38898103186,126693.0,76931.0,4801.0,8.924976816721028
63865.39903168142,126668.0,76913.0,4778.0,8.935027466286556
63865.409082330996,126644.0,76903.0,4774.0,8.94507811585936
63865.41913298056,126663.0,76927.0,4776.0,8.955128765424888
63865.429183630135,126635.0,76887.0,4774.0,8.965179414997692
63865.4392342797,126653.0,76912.0,4784.0,8.97523006456322
63865.449284929266,126629.0,76887.0,4767.0,8.985280714128749
63865.45933557884,126674.0,76929.0,4768.0,8.995331363701553
63865.469386228404,126639.0,76895.0,4797.0,9.00538201326708
63865.47943687797,126672.0,76912.0,4783.0,9.015432662832609
63865.48948752754,126673.0,76886.0,4759.0,9.025483312405413
63865.49953817711,126648.0,76880.0,4773.0,9.035533961970941
63865.50958882668,126652.0,76905.0,4771.0,9.045584611543745
63865.519639476246,126668.0,76908.0,4772.0,9.055635261109273
63865.52969012581,126687.0,76914.0,4762.0,9.065685910674802
63865.539740775384,126689.0,76926.0,4806.0,9.075736560247606
63865.54979142495,126665.0,76898.0,4766.0,9.085787209813134
63865.55984207452,126659.0,76916.0,4773.0,9.095837859385938
63865.56989272409,126652.0,76919.0,4778.0,9.105888508951466
63865.579943373654,126636.0,76914.0,4768.0,9.115939158516994
63865.58999402323,126630.0,76899.0,4756.0,9.125989808089798
63865.60004467279,126634.0,76911.0,4777.0,9.136040457655326
63865.610095322365,126641.0,76923.0,4772.0,9.14609110722813
63865.62014597193,126630.0,76905.0,4783.0,9.156141756793659
63865.630196621496,126612.0,76899.0,4768.0,9.166192406359187
63865.64024727107,126603.0,76908.0,4747.0,9.176243055931991
63865.650297920634,126621.0,76889.0,4776.0,9.18629370549752
63865.66034857021,126603.0,76895.0,4772.0,9.196344355070323
63865.67039921977,126613.0,76885.0,4759.0,9.206395004635851
63865.68044986934,126619.0,76931.0,4787.0,9.21644565420138
63865.69050051891,126616.0,76911.0,4769.0,9.226496303774184
63865.70055116848,126619.0,76887.0,4782.0,9.236546953339712
63865.71060181805,126634.0,76923.0,4775.0,9.246597602912516
63865.720652467615,126603.0,76889.0,4761.0,9.256648252478044
63865.73070311718,126630.0,76900.0,4778.0,9.266698902043572
63865.74075376675,126593.0,76875.0,4755.0,9.276749551616376
63865.75080441632,126651.0,76917.0,4780.0,9.286800201181904
63865.760855065884,126619.0,76867.0,4760.0,9.296850850747433
63865.77090571546,126614.0,76910.0,4774.0,9.306901500320237
63865.78095636502,126609.0,76905.0,4766.0,9.316952149885765
63865.791007014595,126639.0,76933.0,4800.0,9.327002799458569
63865.80105766416,126587.0,76881.0,4754.0,9.337053449024097
63865.81110831373,126620.0,76902.0,4765.0,9.347104098589625
63865.8211589633,126639.0,76913.0,4764.0,9.35715474816243
63865.831209612865,126598.0,76891.0,4752.0,9.367205397727957
63865.84126026244,126633.0,76881.0,4789.0,9.377256047300762
63865.851310912,126614.0,76903.0,4766.0,9.38730669686629
63865.86136156157,126627.0,76916.0,4776.0,9.397357346431818
63865.87141221114,126583.0,76918.0,4763.0,9.407407996004622
63865.88146286071,126607.0,76909.0,4751.0,9.41745864557015
63865.89151351028,126615.0,76916.0,4781.0,9.427509295142954
63865.901564159845,126607.0,76909.0,4783.0,9.437559944708482
63865.91161480941,126585.0,76882.0,4757.0,9.44761059427401
63865.92166545898,126588.0,76930.0,4767.0,9.457661243846815
63865.93171610855,126606.0,76919.0,4772.0,9.467711893412343
63865.94176675812,126597.0,76900.0,4759.0,9.477762542985147
63865.95181740769,126613.0,76903.0,4750.0,9.487813192550675
63865.96186805725,126634.0,76920.0,4769.0,9.497863842116203
63865.971918706826,126616.0,76902.0,4774.0,9.507914491689007
63865.98196935639,126631.0,76932.0,4792.0,9.517965141254535
63865.99202000596,126594.0,76895.0,4745.0,9.528015790820064
63866.00207065553,126611.0,76909.0,4798.0,9.538066440392868
63866.012121305095,126609.0,76906.0,4778.0,9.548117089958396
63866.02217195467,126568.0,76853.0,4725.0,9.5581677395312
63866.03222260423,126597.0,76875.0,4764.0,9.568218389096728
63866.0422732538,126629.0,76913.0,4796.0,9.578269038662256
63866.05232390337,126616.0,76907.0,4750.0,9.58831968823506
63866.06237455294,126621.0,76887.0,4803.0,9.598370337800588
63866.07242520251,126606.0,76910.0,4773.0,9.608420987373393
63866.082475852076,126627.0,76907.0,4789.0,9.61847163693892
63866.09252650164,126587.0,76898.0,4760.0,9.628522286504449
63866.102577151214,126616.0,76890.0,4771.0,9.638572936077253
63866.11262780078,126634.0,76919.0,4779.0,9.648623585642781
63866.12267845035,126595.0,76908.0,4803.0,9.658674235215585
63866.13272909992,126622.0,76898.0,4751.0,9.668724884781113
63866.14277974948,126608.0,76892.0,4776.0,9.678775534346642
63866.152830399056,126584.0,76887.0,4732.0,9.688826183919446
63866.16288104862,126566.0,76883.0,4752.0,9.698876833484974
63866.172931698195,126604.0,76878.0,4761.0,9.708927483057778
63866.18298234776,126597.0,76897.0,4773.0,9.718978132623306
63866.193032997326,126603.0,76916.0,4792.0,9.729028782188834
63866.2030836469,126598.0,76884.0,4764.0,9.739079431761638
63866.213134296464,126578.0,76886.0,4754.0,9.749130081327166
63866.22318494603,126606.0,76886.0,4770.0,9.759180730892695
63866.2332355956,126641.0,76887.0,4791.0,9.769231380465499
63866.24328624517,126594.0,76883.0,4757.0,9.779282030031027
63866.25333689474,126632.0,76916.0,4796.0,9.789332679603831
63866.263387544306,126619.0,76889.0,4772.0,9.799383329169359
63866.27343819387,126595.0,76905.0,4781.0,9.809433978734887
63866.283488843445,126594.0,76887.0,4753.0,9.819484628307691
63866.29353949301,126634.0,76927.0,4794.0,9.82953527787322
63866.30359014258,126611.0,76900.0,4773.0,9.839585927446024
63866.31364079215,126604.0,76878.0,4774.0,9.849636577011552
63866.323691441714,126625.0,76880.0,4764.0,9.85968722657708
63866.33374209129,126616.0,76916.0,4778.0,9.869737876149884
63866.34379274085,126626.0,76904.0,4775.0,9.879788525715412
63866.353843390425,126614.0,76902.0,4813.0,9.889839175288216
63866.36389403999,126634.0,76921.0,4798.0,9.899889824853744
63866.373944689556,126650.0,76906.0,4794.0,9.909940474419273
63866.38399533913,126621.0,76898.0,4780.0,9.919991123992077
63866.394045988694,126627.0,76894.0,4751.0,9.930041773557605
63866.40409663827,126656.0,76927.0,4772.0,9.940092423130409
63866.41414728783,126618.0,76889.0,4798.0,9.950143072695937
63866.4241979374,126589.0,76894.0,4765.0,9.960193722261465
63866.43424858697,126612.0,76880.0,4763.0,9.97024437183427
63866.44429923654,126652.0,76887.0,4794.0,9.980295021399797
63866.4543498861,126612.0,76901.0,4763.0,9.990345670965326
63866.464400535675,126640.0,76907.0,4775.0,10.00039632053813
63866.47445118524,126640.0,76902.0,4770.0,10.010446970103658
63866.48450183481,126664.0,76909.0,4795.0,10.020497619676462
63866.49455248438,126609.0,76890.0,4763.0,10.03054826924199
63866.504603133944,126624.0,76906.0,4763.0,10.040598918807518
63866.51465378352,126603.0,76912.0,4772.0,10.050649568380322
63866.52470443308,126616.0,76918.0,4791.0,10.06070021794585
63866.534755082655,126639.0,76921.0,4757.0,10.070750867518655
63866.54480573222,126592.0,76895.0,4771.0,10.080801517084183
63866.55485638179,126565.0,76881.0,4773.0,10.09085216664971
63866.56490703136,126578.0,76871.0,4751.0,10.100902816222515
63866.574957680925,126560.0,76888.0,4754.0,10.110953465788043
63866.5850083305,126607.0,76897.0,4787.0,10.121004115360847
63866.59505898006,126586.0,76925.0,4767.0,10.131054764926375
63866.60510962963,126587.0,76871.0,4768.0,10.141105414491904
63866.6151602792,126591.0,76869.0,4759.0,10.151156064064708
63866.62521092877,126608.0,76930.0,4775.0,10.161206713630236
63866.63526157834,126586.0,76893.0,4766.0,10.17125736320304
63866.645312227905,126591.0,76929.0,4766.0,10.181308012768568
63866.65536287747,126600.0,76909.0,4791.0,10.191358662334096
63866.665413527044,126583.0,76876.0,4758.0,10.2014093119069
63866.67546417661,126591.0,76897.0,4769.0,10.211459961472428
63866.685514826175,126589.0,76884.0,4751.0,10.221510611037957
63866.69556547575,126610.0,76916.0,4763.0,10.23156126061076
63866.70561612531,126573.0,76888.0,4803.0,10.241611910176289
63866.715666774886,126581.0,76889.0,4764.0,10.251662559749093
63866.72571742445,126573.0,76890.0,4745.0,10.261713209314621
63866.73576807402,126602.0,76881.0,4772.0,10.27176385888015
63866.74581872359,126581.0,76897.0,4764.0,10.281814508452953
63866.755869373155,126590.0,76895.0,4768.0,10.291865158018481
63866.76592002273,126614.0,76948.0,4777.0,10.301915807591286
63866.77597067229,126610.0,76918.0,4790.0,10.311966457156814
63866.78602132186,126573.0,76874.0,4758.0,10.322017106722342
63866.79607197143,126591.0,76902.0,4772.0,10.332067756295146
63866.806122621,126557.0,76907.0,4761.0,10.342118405860674
63866.81617327057,126626.0,76890.0,4811.0,10.352169055433478
63866.826223920136,126580.0,76860.0,4754.0,10.362219704999006
63866.8362745697,126604.0,76907.0,4768.0,10.372270354564535
63866.846325219274,126581.0,76913.0,4803.0,10.382321004137339
63866.85637586884,126598.0,76885.0,4759.0,10.392371653702867
63866.86642651841,126590.0,76928.0,4774.0,10.40242230327567
63866.87647716798,126613.0,76911.0,4773.0,10.412472952841199
63866.88652781754,126642.0,76909.0,4786.0,10.422523602406727
63866.896578467116,126590.0,76867.0,4778.0,10.432574251979531
63866.90662911668,126616.0,76883.0,4775.0,10.44262490154506
63866.91667976625,126608.0,76909.0,4773.0,10.452675551110588
63866.92673041582,126635.0,76926.0,4769.0,10.462726200683392
63866.936781065386,126618.0,76887.0,4751.0,10.47277685024892
63866.94683171496,126626.0,76924.0,4800.0,10.482827499821724
63866.956882364524,126628.0,76891.0,4797.0,10.492878149387252
63866.96693301409,126616.0,76906.0,4738.0,10.50292879895278
63866.97698366366,126598.0,76878.0,4750.0,10.512979448525584
63866.98703431323,126631.0,76897.0,4741.0,10.523030098091112
63866.9970849628,126627.0,76905.0,4781.0,10.533080747663917
63867.007135612366,126612.0,76896.0,4777.0,10.543131397229445
63867.01718626193,126608.0,76899.0,4775.0,10.553182046794973
63867.027236911505,126623.0,76934.0,4778.0,10.563232696367777
63867.03728756107,126625.0,76906.0,4761.0,10.573283345933305
63867.04733821064,126609.0,76878.0,4771.0,10.58333399550611
63867.05738886021,126633.0,76905.0,4742.0,10.593384645071637
63867.067439509774,126626.0,76897.0,4792.0,10.603435294637165
63867.07749015935,126605.0,76879.0,4762.0,10.61348594420997
63867.08754080891,126629.0,76898.0,4769.0,10.623536593775498
63867.097591458485,126626.0,76924.0,4772.0,10.633587243348302
63867.10764210805,126620.0,76898.0,4750.0,10.64363789291383
63867.117692757616,126617.0,76881.0,4779.0,10.653688542479358
63867.12774340719,126648.0,76904.0,4775.0,10.663739192052162
63867.137794056755,126650.0,76915.0,4763.0,10.67378984161769
63867.14784470632,126618.0,76878.0,4756.0,10.683840491183219
63867.15789535589,126651.0,76915.0,4786.0,10.693891140756023
63867.16794600546,126645.0,76915.0,4775.0,10.70394179032155
63867.17799665503,126659.0,76905.0,4788.0,10.713992439894355
63867.1880473046,126626.0,76878.0,4771.0,10.724043089459883
63867.19809795416,126671.0,76912.0,4780.0,10.734093739025411
63867.208148603735,126647.0,76904.0,4780.0,10.744144388598215
63867.2181992533,126676.0,76925.0,4776.0,10.754195038163743
63867.22824990287,126637.0,76899.0,4754.0,10.764245687736548
63867.23830055244,126669.0,76921.0,4785.0,10.774296337302076
63867.248351202004,126646.0,76901.0,4777.0,10.784346986867604
63867.25840185158,126636.0,76893.0,4763.0,10.794397636440408
63867.26845250114,126676.0,76925.0,4766.0,10.804448286005936
63867.278503150716,126628.0,76907.0,4778.0,10.81449893557874
63867.28855380028,126652.0,76915.0,4776.0,10.824549585144268
63867.29860444985,126652.0,76895.0,4793.0,10.834600234709796
63867.30865509942,126659.0,76913.0,4762.0,10.8446508842826
63867.318705748985,126634.0,76918.0,4776.0,10.854701533848129
63867.32875639856,126660.0,76920.0,4775.0,10.864752183420933
63867.33880704812,126675.0,76909.0,4765.0,10.874802832986461
63867.34885769769,126696.0,76927.0,4803.0,10.88485348255199
63867.35890834726,126677.0,76933.0,4801.0,10.894904132124793
63867.36895899683,126643.0,76913.0,4778.0,10.904954781690321
63867.37900964639,126631.0,76907.0,4766.0,10.91500543125585
63867.389060295965,126651.0,76932.0,4786.0,10.925056080828654
63867.39911094553,126689.0,76934.0,4794.0,10.935106730394182
63867.409161595104,126669.0,76918.0,4771.0,10.945157379966986
63867.41921224467,126642.0,76905.0,4778.0,10.955208029532514
63867.429262894235,126677.0,76940.0,4800.0,10.965258679098042
63867.43931354381,126678.0,76941.0,4770.0,10.975309328670846
63867.44936419337,126667.0,76919.0,4762.0,10.985359978236374
63867.459414842946,126658.0,76930.0,4773.0,10.995410627809179
63867.46946549251,126625.0,76918.0,4774.0,11.005461277374707
63867.47951614208,126653.0,76918.0,4803.0,11.015511926940235
63867.48956679165,126597.0,76879.0,4747.0,11.025562576513039
63867.499617441215,126600.0,76901.0,4774.0,11.035613226078567
63867.50966809079,126589.0,76905.0,4754.0,11.045663875651371
63867.519718740354,126634.0,76935.0,4757.0,11.0557145252169
63867.52976938992,126647.0,76910.0,4794.0,11.065765174782427
63867.53982003949,126632.0,76936.0,4768.0,11.075815824355232
63867.54987068906,126606.0,76898.0,4757.0,11.08586647392076
63867.55992133863,126618.0,76890.0,4766.0,11.095917123493564
63867.569971988196,126655.0,76942.0,4784.0,11.105967773059092
63867.58002263776,126630.0,76918.0,4773.0,11.11601842262462
63867.590073287334,126627.0,76895.0,4786.0,11.126069072197424
63867.6001239369,126599.0,76892.0,4757.0,11.136119721762952
63867.610174586465,126646.0,76930.0,4783.0,11.14617037132848
63867.62022523604,126630.0,76943.0,4748.0,11.156221020901285
63867.6302758856,126656.0,76910.0,4805.0,11.166271670466813
63867.64032653518,126635.0,76926.0,4747.0,11.176322320039617
63867.65037718474,126625.0,76886.0,4755.0,11.186372969605145
63867.66042783431,126615.0,76915.0,4767.0,11.196423619170673
63867.67047848388,126593.0,76900.0,4731.0,11.206474268743477
63867.680529133446,126600.0,76926.0,4770.0,11.216524918309005
63867.69057978302,126633.0,76913.0,4758.0,11.22657556788181
63867.700630432584,126629.0,76908.0,4771.0,11.236626217447338
63867.71068108215,126632.0,76932.0,4774.0,11.246676867012866
63867.72073173172,126599.0,76907.0,4758.0,11.25672751658567
63867.73078238129,126627.0,76921.0,4743.0,11.266778166151198
63867.74083303086,126624.0,76920.0,4770.0,11.276828815724002
63867.750883680426,126590.0,76915.0,4762.0,11.28687946528953
63867.76093432999,126600.0,76907.0,4754.0,11.296930114855058
63867.770984979565,126612.0,76906.0,4768.0,11.306980764427863
63867.78103562913,126632.0,76911.0,4770.0,11.31703141399339
63867.7910862787,126610.0,76916.0,4789.0,11.327082063566195
63867.80113692827,126658.0,76946.0,4767.0,11.337132713131723
63867.811187577834,126597.0,76902.0,4750.0,11.347183362697251
63867.82123822741,126626.0,76908.0,4771.0,11.357234012270055
63867.83128887697,126603.0,76916.0,4774.0,11.367284661835583
63867.84133952654,126644.0,76944.0,4801.0,11.377335311401112
63867.85139017611,126652.0,76923.0,4784.0,11.387385960973916
63867.861440825676,126622.0,76909.0,4770.0,11.397436610539444
63867.87149147525,126660.0,76932.0,4799.0,11.407487260112248
63867.881542124815,126639.0,76912.0,4786.0,11.417537909677776
63867.89159277438,126596.0,76884.0,4749.0,11.427588559243304
63867.90164342395,126626.0,76902.0,4773.0,11.437639208816108
63867.91169407352,126606.0,76880.0,4746.0,11.447689858381636
63867.92174472309,126658.0,76922.0,4781.0,11.45774050795444
63867.93179537266,126618.0,76882.0,4756.0,11.467791157519969
63867.94184602222,126619.0,76901.0,4774.0,11.477841807085497
63867.951896671795,126636.0,76878.0,4779.0,11.487892456658301
63867.96194732136,126656.0,76900.0,4801.0,11.497943106223829
63867.97199797093,126614.0,76894.0,4741.0,11.507993755796633
63867.9820486205,126601.0,76907.0,4752.0,11.518044405362161
63867.992099270065,126640.0,76873.0,4773.0,11.52809505492769
63868.00214991964,126636.0,76878.0,4785.0,11.538145704500494
63868.0122005692,126611.0,76869.0,4751.0,11.548196354066022
63868.022251218776,126657.0,76934.0,4758.0,11.558247003638826
63868.03230186834,126634.0,76903.0,4770.0,11.568297653204354
63868.04235251791,126605.0,76884.0,4780.0,11.578348302769882
63868.05240316748,126634.0,76915.0,4767.0,11.588398952342686
63868.062453817045,126646.0,76892.0,4777.0,11.598449601908214
63868.07250446661,126630.0,76912.0,4763.0,11.608500251473743
63868.08255511618,126638.0,76899.0,4748.0,11.618550901046547
63868.09260576575,126617.0,76883.0,4747.0,11.628601550612075
63868.10265641532,126655.0,76918.0,4803.0,11.638652200184879
63868.11270706489,126634.0,76903.0,4771.0,11.648702849750407
63868.12275771445,126613.0,76915.0,4761.0,11.658753499315935
63868.132808364026,126631.0,76942.0,4792.0,11.66880414888874
63868.14285901359,126611.0,76901.0,4766.0,11.678854798454267
63868.152909663164,126642.0,76909.0,4773.0,11.688905448027072
63868.16296031273,126621.0,76893.0,4764.0,11.6989560975926
63868.173010962295,126654.0,76894.0,4793.0,11.709006747158128
63868.18306161187,126654.0,76902.0,4804.0,11.719057396730932
63868.19311226143,126636.0,76885.0,4770.0,11.72910804629646
63868.203162911006,126642.0,76893.0,4766.0,11.739158695869264
63868.21321356057,126614.0,76899.0,4752.0,11.749209345434792
63868.22326421014,126628.0,76887.0,4758.0,11.75925999500032
63868.23331485971,126645.0,76907.0,4779.0,11.769310644573125
63868.243365509275,126640.0,76896.0,4787.0,11.779361294138653
63868.25341615885,126663.0,76926.0,4793.0,11.789411943711457
63868.263466808414,126627.0,76892.0,4766.0,11.799462593276985
63868.27351745798,126654.0,76894.0,4773.0,11.809513242842513
63868.28356810755,126681.0,76906.0,4783.0,11.819563892415317
63868.29361875712,126674.0,76920.0,4755.0,11.829614541980845
63868.30366940668,126615.0,76892.0,4767.0,11.839665191546374
63868.313720056256,126641.0,76897.0,4773.0,11.849715841119178
63868.32377070582,126663.0,76899.0,4800.0,11.859766490684706
63868.333821355394,126641.0,76868.0,4755.0,11.86981714025751
63868.34387200496,126653.0,76910.0,4769.0,11.879867789823038
63868.353922654525,126636.0,76897.0,4771.0,11.889918439388566
63868.3639733041,126660.0,76915.0,4774.0,11.89996908896137
63868.374023953664,126627.0,76880.0,4750.0,11.910019738526898
63868.38407460324,126651.0,76914.0,4746.0,11.920070388099703
63868.3941252528,126633.0,76901.0,4749.0,11.93012103766523
63868.40417590237,126609.0,76885.0,4776.0,11.940171687230759
63868.41422655194,126653.0,76909.0,4813.0,11.950222336803563
63868.424277201506,126586.0,76910.0,4774.0,11.960272986369091
63868.43432785108,126573.0,76884.0,4752.0,11.970323635941895
63868.444378500644,126593.0,76888.0,4767.0,11.980374285507423
63868.45442915021,126607.0,76907.0,4751.0,11.990424935072951
63868.46447979978,126616.0,76909.0,4792.0,12.000475584645756
63868.47453044935,126564.0,76872.0,4751.0,12.010526234211284
63868.48458109892,126595.0,76885.0,4757.0,12.020576883784088
63868.49463174849,126576.0,76874.0,4773.0,12.030627533349616
63868.50468239805,126634.0,76894.0,4786.0,12.040678182915144
63868.514733047625,126589.0,76875.0,4757.0,12.050728832487948
63868.52478369719,126595.0,76890.0,4758.0,12.060779482053476
63868.534834346756,126586.0,76898.0,4788.0,12.070830131619005
63868.54488499633,126570.0,76865.0,4791.0,12.080880781191809
63868.554935645894,126577.0,76875.0,4744.0,12.090931430757337
63868.56498629547,126588.0,76885.0,4762.0,12.100982080330141
63868.57503694503,126618.0,76877.0,4784.0,12.111032729895669
63868.5850875946,126590.0,76905.0,4783.0,12.121083379461197
63868.59513824417,126583.0,76861.0,4772.0,12.131134029034001
63868.605188893736,126591.0,76886.0,4764.0,12.14118467859953
63868.61523954331,126584.0,76876.0,4743.0,12.151235328172334
63868.625290192875,126589.0,76867.0,4745.0,12.161285977737862
63868.63534084244,126614.0,76904.0,4759.0,12.17133662730339
63868.64539149201,126594.0,76879.0,4762.0,12.181387276876194
63868.65544214158,126595.0,76856.0,4758.0,12.191437926441722
63868.66549279115,126587.0,76870.0,4757.0,12.201488576014526
63868.67554344072,126613.0,76911.0,4765.0,12.211539225580054
63868.68559409028,126594.0,76854.0,4770.0,12.221589875145582
63868.695644739855,126583.0,76852.0,4773.0,12.231640524718387
63868.70569538942,126589.0,76890.0,4750.0,12.241691174283915
63868.71574603899,126585.0,76890.0,4748.0,12.251741823856719
63868.72579668856,126595.0,76873.0,4762.0,12.261792473422247
63868.735847338125,126584.0,76878.0,4747.0,12.271843122987775
63868.7458979877,126618.0,76908.0,4748.0,12.28189377256058
63868.75594863726,126603.0,76883.0,4797.0,12.291944422126107
63868.76599928683,126594.0,76881.0,4769.0,12.301995071691636
63868.7760499364,126587.0,76876.0,4746.0,12.31204572126444
63868.78610058597,126569.0,76898.0,4779.0,12.322096370829968
63868.79615123554,126580.0,76860.0,4764.0,12.332147020402772
63868.806201885105,126594.0,76879.0,4769.0,12.3421976699683
63868.81625253467,126611.0,76871.0,4747.0,12.352248319533828
63868.82630318424,126615.0,76898.0,4799.0,12.362298969106632
63868.83635383381,126564.0,76855.0,4757.0,12.37234961867216
63868.84640448338,126592.0,76884.0,4762.0,12.382400268244965
63868.85645513295,126566.0,76906.0,4755.0,12.392450917810493
63868.86650578251,126621.0,76897.0,4796.0,12.40250156737602
63868.876556432086,126578.0,76860.0,4773.0,12.412552216948825
63868.88660708165,126600.0,76882.0,4766.0,12.422602866514353
63868.896657731224,126605.0,76872.0,4770.0,12.432653516087157
63868.90670838079,126596.0,76876.0,4789.0,12.442704165652685
63868.916759030355,126624.0,76889.0,4797.0,12.452754815218213
63868.92680967993,126615.0,76880.0,4797.0,12.462805464791018
63868.93686032949,126607.0,76902.0,4770.0,12.472856114356546
63868.946910979066,126585.0,76821.0,4717.0,12.48290676392935
63868.95696162863,126595.0,76861.0,4758.0,12.492957413494878
63868.9670122782,126622.0,76913.0,4776.0,12.503008063060406
63868.97706292777,126602.0,76889.0,4780.0,12.51305871263321
63868.987113577336,126569.0,76881.0,4762.0,12.523109362198738
63868.9971642269,126593.0,76888.0,4770.0,12.533160011764267
63869.007214876474,126606.0,76870.0,4760.0,12.54321066133707
63869.01726552604,126600.0,76885.0,4775.0,12.553261310902599
63869.02731617561,126625.0,76868.0,4753.0,12.563311960475403
63869.03736682518,126625.0,76898.0,4745.0,12.573362610040931
63869.04741747474,126587.0,76900.0,4793.0,12.58341325960646
63869.057468124316,126618.0,76886.0,4770.0,12.593463909179263
63869.06751877388,126598.0,76857.0,4762.0,12.603514558744791
63869.077569423454,126601.0,76909.0,4788.0,12.613565208317596
63869.08762007302,126620.0,76907.0,4785.0,12.623615857883124
63869.097670722585,126607.0,76883.0,4769.0,12.633666507448652
63869.10772137216,126601.0,76886.0,4765.0,12.643717157021456
63869.117772021724,126622.0,76903.0,4778.0,12.653767806586984
63869.1278226713,126591.0,76857.0,4757.0,12.663818456159788
63869.13787332086,126614.0,76882.0,4773.0,12.673869105725316
63869.14792397043,126571.0,76898.0,4765.0,12.683919755290844
63869.15797462,126648.0,76890.0,4791.0,12.693970404863649
63869.168025269566,126582.0,76870.0,4762.0,12.704021054429177
63869.17807591914,126620.0,76875.0,4772.0,12.71407170400198
63869.188126568704,126598.0,76875.0,4786.0,12.724122353567509
63869.19817721827,126596.0,76854.0,4773.0,12.734173003133037
63869.20822786784,126576.0,76883.0,4768.0,12.744223652705841
63869.21827851741,126619.0,76877.0,4771.0,12.75427430227137
63869.228329166974,126619.0,76874.0,4797.0,12.764324951836898
63869.23837981655,126613.0,76868.0,4784.0,12.774375601409702
63869.24843046611,126610.0,76846.0,4764.0,12.78442625097523
63869.258481115685,126610.0,76877.0,4773.0,12.794476900548034
63869.26853176525,126620.0,76905.0,4781.0,12.804527550113562
63869.278582414816,126596.0,76853.0,4747.0,12.81457819967909
63869.28863306439,126589.0,76900.0,4796.0,12.824628849251894
63869.298683713954,126585.0,76893.0,4773.0,12.834679498817422
63869.30873436353,126593.0,76864.0,4756.0,12.844730148390227
63869.31878501309,126558.0,76864.0,4751.0,12.854780797955755
63869.32883566266,126597.0,76886.0,4755.0,12.864831447521283
63869.33888631223,126568.0,76881.0,4778.0,12.874882097094087
63869.3489369618,126529.0,76873.0,4754.0,12.884932746659615
63869.35898761137,126548.0,76857.0,4753.0,12.89498339623242
63869.369038260935,126581.0,76889.0,4793.0,12.905034045797947
63869.3790889105,126553.0,76881.0,4751.0,12.915084695363475
63869.38913956007,126569.0,76858.0,4762.0,12.92513534493628
63869.39919020964,126570.0,76862.0,4740.0,12.935185994501808
63869.40924085921,126569.0,76895.0,4774.0,12.945236644074612
63869.41929150878,126569.0,76871.0,4761.0,12.95528729364014
63869.42934215834,126582.0,76881.0,4769.0,12.965337943205668
63869.439392807915,126540.0,76893.0,4766.0,12.975388592778472
63869.44944345748,126595.0,76886.0,4789.0,12.985439242344
63869.459494107046,126560.0,76861.0,4769.0,12.995489891909529
63869.46954475662,126580.0,76875.0,4772.0,13.005540541482333
63869.479595406185,126596.0,76912.0,4774.0,13.01559119104786
63869.48964605576,126555.0,76872.0,4766.0,13.025641840620665
63869.49969670532,126551.0,76868.0,4759.0,13.035692490186193
63869.50974735489,126575.0,76877.0,4761.0,13.045743139751721
63869.51979800446,126604.0,76875.0,4787.0,13.055793789324525
63869.52984865403,126567.0,76875.0,4748.0,13.065844438890053
63869.5398993036,126586.0,76838.0,4752.0,13.075895088462858
63869.549949953165,126591.0,76889.0,4766.0,13.085945738028386
63869.56000060273,126606.0,76895.0,4793.0,13.095996387593914
63869.5700512523,126583.0,76865.0,4762.0,13.106047037166718
63869.58010190187,126586.0,76881.0,4762.0,13.116097686732246
63869.59015255144,126579.0,76889.0,4776.0,13.12614833630505
63869.60020320101,126599.0,76869.0,4764.0,13.136198985870578
63869.61025385057,126589.0,76865.0,4752.0,13.146249635436106
63869.620304500146,126623.0,76923.0,4767.0,13.15630028500891
63869.63035514971,126580.0,76873.0,4769.0,13.166350934574439
63869.640405799284,126582.0,76871.0,4781.0,13.176401584147243
63869.65045644885,126569.0,76875.0,4757.0,13.186452233712771
63869.660507098415,126596.0,76871.0,4773.0,13.1965028832783
63869.67055774799,126581.0,76891.0,4772.0,13.206553532851103
63869.68060839755,126623.0,76874.0,4769.0,13.216604182416631
63869.69065904712,126585.0,76874.0,4723.0,13.22665483198216
63869.70070969669,126604.0,76895.0,4782.0,13.236705481554964
63869.71076034626,126594.0,76873.0,4775.0,13.246756131120492
63869.72081099583,126582.0,76869.0,4757.0,13.256806780693296
63869.730861645396,126598.0,76910.0,4772.0,13.266857430258824
63869.74091229496,126609.0,76884.0,4792.0,13.276908079824352
63869.750962944534,126568.0,76845.0,4768.0,13.286958729397156
63869.7610135941,126565.0,76859.0,4757.0,13.297009378962684
63869.77106424367,126602.0,76866.0,4772.0,13.307060028535489
63869.78111489324,126576.0,76877.0,4781.0,13.317110678101017
63869.7911655428,126596.0,76884.0,4739.0,13.327161327666545
63869.801216192376,126574.0,76881.0,4772.0,13.337211977239349
63869.81126684194,126610.0,76877.0,4794.0,13.347262626804877
63869.821317491514,126564.0,76856.0,4794.0,13.357313276377681
63869.83136814108,126600.0,76878.0,4774.0,13.36736392594321
63869.841418790646,126605.0,76879.0,4785.0,13.377414575508737
63869.85146944022,126622.0,76903.0,4777.0,13.387465225081542
63869.861520089784,126597.0,76894.0,4770.0,13.39751587464707
63869.87157073936,126609.0,76888.0,4769.0,13.407566524219874
63869.88162138892,126609.0,76863.0,4785.0,13.417617173785402
63869.89167203849,126586.0,76855.0,4772.0,13.42766782335093
63869.90172268806,126567.0,76861.0,4746.0,13.437718472923734
63869.911773337626,126622.0,76902.0,4792.0,13.447769122489262
63869.92182398719,126611.0,76884.0,4766.0,13.45781977205479
63869.931874636764,126596.0,76881.0,4763.0,13.467870421627595
63869.94192528633,126602.0,76889.0,4765.0,13.477921071193123
63869.9519759359,126626.0,76919.0,4803.0,13.487971720765927
63869.96202658547,126606.0,76893.0,4778.0,13.498022370331455
63869.972077235034,126616.0,76896.0,4761.0,13.508073019896983
63869.98212788461,126613.0,76877.0,4762.0,13.518123669469787
63869.99217853417,126629.0,76897.0,4791.0,13.528174319035315
63870.002229183745,126612.0,76889.0,4778.0,13.53822496860812
63870.01227983331,126601.0,76919.0,4751.0,13.548275618173648
63870.022330482876,126583.0,76904.0,4802.0,13.558326267739176
63870.03238113245,126590.0,76873.0,4747.0,13.56837691731198
63870.042431782014,126617.0,76893.0,4766.0,13.578427566877508
63870.05248243159,126601.0,76875.0,4765.0,13.588478216450312
63870.06253308115,126646.0,76897.0,4770.0,13.59852886601584
63870.07258373072,126603.0,76877.0,4786.0,13.608579515581368
63870.08263438029,126628.0,76875.0,4767.0,13.618630165154173
63870.09268502986,126611.0,76890.0,4770.0,13.6286808147197
63870.10273567943,126642.0,76915.0,4791.0,13.638731464292505
63870.112786328995,126649.0,76892.0,4749.0,13.648782113858033
63870.12283697856,126623.0,76880.0,4775.0,13.658832763423561
63870.13288762813,126613.0,76860.0,4767.0,13.668883412996365
63870.1429382777,126590.0,76867.0,4760.0,13.678934062561893
63870.152988927264,126583.0,76866.0,4747.0,13.688984712127422
63870.16303957684,126614.0,76886.0,4767.0,13.699035361700226
63870.1730902264,126593.0,76895.0,4762.0,13.709086011265754
63870.183140875975,126600.0,76874.0,4781.0,13.719136660838558
63870.19319152554,126593.0,76874.0,4769.0,13.729187310404086
63870.20324217511,126589.0,76884.0,4778.0,13.739237959969614
63870.21329282468,126600.0,76908.0,4749.0,13.749288609542418
63870.223343474245,126567.0,76892.0,4769.0,13.759339259107946
63870.23339412382,126598.0,76892.0,4777.0,13.76938990868075
63870.24344477338,126580.0,76895.0,4768.0,13.779440558246279
63870.25349542295,126582.0,76925.0,4784.0,13.789491207811807
63870.26354607252,126560.0,76869.0,4738.0,13.799541857384611
63870.27359672209,126576.0,76899.0,4747.0,13.809592506950139
63870.28364737166,126589.0,76868.0,4824.0,13.819643156522943
63870.293698021225,126583.0,76899.0,4767.0,13.829693806088471
63870.30374867079,126577.0,76867.0,4741.0,13.839744455654
63870.31379932036,126604.0,76903.0,4795.0,13.849795105226804
63870.32384996993,126584.0,76887.0,4736.0,13.859845754792332
63870.3339006195,126594.0,76901.0,4764.0,13.869896404365136
63870.34395126907,126581.0,76895.0,4729.0,13.879947053930664
63870.35400191863,126601.0,76921.0,4772.0,13.889997703496192
63870.364052568206,126576.0,76876.0,4774.0,13.900048353068996
63870.37410321777,126593.0,76891.0,4757.0,13.910099002634524
63870.38415386734,126580.0,76906.0,4770.0,13.920149652200053
63870.39420451691,126626.0,76889.0,4775.0,13.930200301772857
63870.404255166475,126592.0,76876.0,4757.0,13.940250951338385
63870.41430581605,126580.0,76892.0,4751.0,13.950301600911189
63870.42435646561,126574.0,76916.0,4801.0,13.960352250476717
63870.43440711518,126571.0,76891.0,4774.0,13.970402900042245
63870.44445776475,126578.0,76885.0,4753.0,13.98045354961505
63870.45450841432,126599.0,76903.0,4763.0,13.990504199180577
63870.46455906389,126601.0,76914.0,4766.0,14.000554848753382
63870.474609713456,126612.0,76877.0,4776.0,14.01060549831891
63870.48466036302,126589.0,76876.0,4748.0,14.020656147884438
63870.494711012594,126600.0,76899.0,4771.0,14.030706797457242
63870.50476166216,126636.0,76931.0,4776.0,14.04075744702277
63870.51481231173,126589.0,76876.0,4779.0,14.050808096595574
63870.5248629613,126631.0,76902.0,4795.0,14.060858746161102
63870.53491361086,126593.0,76893.0,4768.0,14.07090939572663
63870.544964260436,126559.0,76878.0,4727.0,14.080960045299435
63870.55501491,126561.0,76880.0,4740.0,14.091010694864963
63870.565065559575,126598.0,76900.0,4737.0,14.101061344437767
63870.57511620914,126600.0,76893.0,4759.0,14.111111994003295
63870.585166858706,126577.0,76897.0,4796.0,14.121162643568823
63870.59521750828,126589.0,76889.0,4755.0,14.131213293141627
63870.605268157844,126597.0,76924.0,4776.0,14.141263942707155
63870.61531880741,126600.0,76894.0,4767.0,14.151314592272684
63870.62536945698,126587.0,76863.0,4761.0,14.161365241845488
63870.63542010655,126624.0,76892.0,4742.0,14.171415891411016
63870.64547075612,126576.0,76894.0,4761.0,14.18146654098382
63870.655521405686,126602.0,76896.0,4768.0,14.191517190549348
63870.66557205525,126579.0,76883.0,4756.0,14.201567840114876
63870.675622704824,126611.0,76926.0,4793.0,14.21161848968768
63870.68567335439,126624.0,76906.0,4794.0,14.221669139253208
63870.69572400396,126607.0,76898.0,4765.0,14.231719788826013
63870.70577465353,126594.0,76880.0,4760.0,14.24177043839154
63870.715825303094,126597.0,76909.0,4750.0,14.251821087957069
63870.72587595267,126595.0,76871.0,4754.0,14.261871737529873
63870.73592660223,126609.0,76902.0,4762.0,14.271922387095401
63870.745977251805,126631.0,76881.0,4787.0,14.281973036668205
63870.75602790137,126650.0,76916.0,4777.0,14.292023686233733
63870.766078550936,126630.0,76887.0,4800.0,14.302074335799261
63870.77612920051,126617.0,76902.0,4755.0,14.312124985372066
63870.786179850074,126631.0,76888.0,4767.0,14.322175634937594
63870.79623049965,126633.0,76938.0,4793.0,14.332226284510398
63870.80628114921,126646.0,76918.0,4769.0,14.342276934075926
63870.81633179878,126635.0,76890.0,4782.0,14.352327583641454
63870.82638244835,126609.0,76903.0,4778.0,14.362378233214258
63870.83643309792,126654.0,76877.0,4773.0,14.372428882779786
63870.84648374748,126642.0,76925.0,4791.0,14.382479532345315
63870.856534397055,126665.0,76920.0,4792.0,14.392530181918119
63870.86658504662,126637.0,76902.0,4765.0,14.402580831483647
63870.87663569619,126638.0,76888.0,4793.0,14.41263148105645
63870.88668634576,126615.0,76870.0,4787.0,14.422682130621979
63870.896736995324,126654.0,76937.0,4786.0,14.432732780187507
63870.9067876449,126637.0,76898.0,4778.0,14.442783429760311
63870.91683829446,126656.0,76916.0,4805.0,14.45283407932584
63870.926888944035,126663.0,76924.0,4765.0,14.462884728898644
63870.9369395936,126622.0,76898.0,4774.0,14.472935378464172
63870.94699024317,126598.0,76884.0,4764.0,14.4829860280297
63870.95704089274,126629.0,76892.0,4756.0,14.493036677602504
63870.967091542305,126626.0,76922.0,4784.0,14.503087327168032
63870.97714219188,126672.0,76935.0,4796.0,14.513137976740836
63870.98719284144,126650.0,76908.0,4769.0,14.523188626306364
63870.99724349101,126645.0,76906.0,4756.0,14.533239275871892
63871.00729414058,126669.0,76880.0,4768.0,14.543289925444697
63871.01734479015,126681.0,76925.0,4789.0,14.553340575010225
63871.02739543972,126649.0,76915.0,4777.0,14.563391224583029
63871.037446089285,126650.0,76944.0,4794.0,14.573441874148557
63871.04749673885,126664.0,76934.0,4797.0,14.583492523714085
63871.057547388424,126627.0,76880.0,4778.0,14.59354317328689
63871.06759803799,126640.0,76914.0,4766.0,14.603593822852417
63871.077648687555,126615.0,76932.0,4772.0,14.613644472417946
63871.08769933713,126623.0,76909.0,4782.0,14.62369512199075
63871.09774998669,126587.0,76891.0,4744.0,14.633745771556278
63871.107800636266,126624.0,76906.0,4761.0,14.643796421129082
63871.11785128583,126579.0,76917.0,4770.0,14.65384707069461
63871.1279019354,126592.0,76904.0,4772.0,14.663897720260138
63871.13795258497,126633.0,76901.0,4768.0,14.673948369832942
63871.148003234535,126611.0,76922.0,4761.0,14.68399901939847
63871.15805388411,126594.0,76948.0,4782.0,14.694049668971275
63871.16810453367,126639.0,76913.0,4775.0,14.704100318536803
63871.17815518324,126596.0,76893.0,4767.0,14.71415096810233
63871.18820583281,126601.0,76914.0,4764.0,14.724201617675135
63871.19825648238,126586.0,76890.0,4751.0,14.734252267240663
63871.20830713195,126637.0,76918.0,4768.0,14.744302916813467
63871.218357781516,126590.0,76892.0,4755.0,14.754353566378995
63871.22840843108,126600.0,76900.0,4793.0,14.764404215944523
63871.238459080654,126577.0,76887.0,4775.0,14.774454865517328
63871.24850973022,126616.0,76924.0,4774.0,14.784505515082856
63871.25856037979,126628.0,76911.0,4798.0,14.79455616465566
63871.26861102936,126626.0,76908.0,4776.0,14.804606814221188
63871.27866167892,126603.0,76910.0,4752.0,14.814657463786716
63871.288712328496,126616.0,76891.0,4755.0,14.82470811335952
63871.29876297806,126584.0,76882.0,4754.0,14.834758762925048
63871.308813627635,126635.0,76917.0,4730.0,14.844809412497852
63871.3188642772,126616.0,76913.0,4764.0,14.85486006206338
63871.328914926766,126586.0,76934.0,4749.0,14.864910711628909
63871.33896557634,126629.0,76928.0,4771.0,14.874961361201713
63871.349016225904,126600.0,76899.0,4748.0,14.885012010767241
63871.35906687547,126598.0,76907.0,4764.0,14.89506266033277
63871.36911752504,126606.0,76889.0,4747.0,14.905113309905573
63871.37916817461,126637.0,76917.0,4749.0,14.915163959471101
63871.38921882418,126591.0,76917.0,4754.0,14.925214609043906
63871.399269473746,126620.0,76901.0,4758.0,14.935265258609434
63871.40932012331,126589.0,76912.0,4750.0,14.945315908174962
63871.419370772885,126618.0,76924.0,4798.0,14.955366557747766
63871.42942142245,126610.0,76896.0,4764.0,14.965417207313294
63871.43947207202,126622.0,76906.0,4762.0,14.975467856886098
63871.44952272159,126611.0,76923.0,4741.0,14.985518506451626
63871.459573371154,126629.0,76922.0,4783.0,14.995569156017154
63871.46962402073,126587.0,76873.0,4783.0,15.005619805589959
63871.47967467029,126624.0,76909.0,4765.0,15.015670455155487
63871.489725319865,126570.0,76902.0,4769.0,15.02572110472829
63871.49977596943,126625.0,76900.0,4782.0,15.035771754293819
63871.509826618996,126582.0,76880.0,4765.0,15.045822403859347
63871.51987726857,126613.0,76899.0,4767.0,15.055873053432151
63871.529927918134,126609.0,76903.0,4799.0,15.06592370299768
63871.5399785677,126597.0,76888.0,4777.0,15.075974352563208
63871.55002921727,126603.0,76882.0,4767.0,15.086025002136012
63871.56007986684,126611.0,76899.0,4768.0,15.09607565170154
63871.57013051641,126642.0,76904.0,4797.0,15.106126301274344
63871.58018116598,126616.0,76886.0,4782.0,15.116176950839872
63871.59023181554,126624.0,76871.0,4766.0,15.1262276004054
63871.600282465115,126617.0,76892.0,4765.0,15.136278249978204
63871.61033311468,126609.0,76886.0,4787.0,15.146328899543732
63871.62038376425,126625.0,76873.0,4752.0,15.156379549116537
63871.63043441382,126614.0,76903.0,4758.0,15.166430198682065
63871.640485063384,126622.0,76885.0,4765.0,15.176480848247593
63871.65053571296,126644.0,76900.0,4771.0,15.186531497820397
63871.66058636252,126622.0,76892.0,4751.0,15.196582147385925
63871.670637012096,126647.0,76913.0,4744.0,15.20663279695873
63871.68068766166,126624.0,76896.0,4754.0,15.216683446524257
63871.69073831123,126631.0,76876.0,4802.0,15.226734096089785
63871.7007889608,126630.0,76881.0,4759.0,15.23678474566259
63871.710839610365,126617.0,76925.0,4778.0,15.246835395228118
63871.72089025994,126616.0,76896.0,4760.0,15.256886044800922
63871.7309409095,126635.0,76888.0,4773.0,15.26693669436645
63871.74099155907,126659.0,76888.0,4775.0,15.276987343931978
63871.75104220864,126599.0,76916.0,4777.0,15.287037993504782
63871.76109285821,126626.0,76876.0,4758.0,15.29708864307031
63871.77114350778,126632.0,76897.0,4768.0,15.307139292643114
63871.781194157345,126636.0,76915.0,4764.0,15.317189942208643
63871.79124480691,126626.0,76921.0,4766.0,15.32724059177417
63871.801295456484,126632.0,76885.0,4767.0,15.337291241346975
63871.81134610605,126639.0,76903.0,4778.0,15.347341890912503
63871.821396755615,126648.0,76921.0,4781.0,15.357392540478031
63871.83144740519,126612.0,76881.0,4789.0,15.367443190050835
63871.84149805475,126610.0,76896.0,4767.0,15.377493839616363
63871.851548704326,126648.0,76896.0,4769.0,15.387544489189168
63871.86159935389,126636.0,76917.0,4808.0,15.397595138754696
63871.87165000346,126651.0,76877.0,4769.0,15.407645788320224
63871.88170065303,126665.0,76917.0,4792.0,15.417696437893028
63871.891751302595,126645.0,76893.0,4777.0,15.427747087458556
63871.90180195217,126631.0,76919.0,4784.0,15.43779773703136
63871.911852601734,126660.0,76885.0,4746.0,15.447848386596888
63871.9219032513,126681.0,76939.0,4801.0,15.457899036162416
63871.93195390087,126655.0,76913.0,4767.0,15.46794968573522
63871.94200455044,126654.0,76908.0,4754.0,15.478000335300749
63871.95205520001,126650.0,76881.0,4763.0,15.488050984873553
63871.962105849576,126662.0,76898.0,4778.0,15.498101634439081
63871.97215649914,126660.0,76906.0,4773.0,15.508152284004609
63871.982207148714,126650.0,76892.0,4775.0,15.518202933577413
63871.99225779828,126662.0,76908.0,4761.0,15.528253583142941
63872.002308447845,126687.0,76930.0,4808.0,15.53830423270847
63872.01235909742,126619.0,76876.0,4741.0,15.548354882281274
63872.02240974698,126625.0,76885.0,4753.0,15.558405531846802
63872.03246039656,126665.0,76923.0,4744.0,15.568456181419606
63872.04251104612,126642.0,76878.0,4742.0,15.578506830985134
63872.05256169569,126637.0,76895.0,4765.0,15.588557480550662
63872.06261234526,126612.0,76894.0,4764.0,15.598608130123466
63872.072662994826,126594.0,76907.0,4778.0,15.608658779688994
63872.0827136444,126600.0,76895.0,4754.0,15.618709429261799
63872.092764293964,126620.0,76891.0,4754.0,15.628760078827327
63872.10281494353,126605.0,76895.0,4736.0,15.638810728392855
63872.1128655931,126630.0,76898.0,4787.0,15.648861377965659
63872.12291624267,126581.0,76863.0,4759.0,15.658912027531187
63872.13296689224,126607.0,76899.0,4763.0,15.668962677103991
63872.143017541806,126604.0,76945.0,4777.0,15.67901332666952
63872.15306819137,126595.0,76904.0,4755.0,15.689063976235047
63872.163118840945,126598.0,76886.0,4760.0,15.699114625807852
63872.17316949051,126612.0,76901.0,4776.0,15.70916527537338
63872.18322014008,126610.0,76902.0,4758.0,15.719215924946184
63872.19327078965,126581.0,76877.0,4776.0,15.729266574511712
63872.203321439214,126576.0,76887.0,4745.0,15.73931722407724
63872.21337208879,126630.0,76897.0,4788.0,15.749367873650044
63872.22342273835,126610.0,76911.0,4767.0,15.759418523215572
63872.233473387925,126593.0,76884.0,4754.0,15.769469172788376
63872.24352403749,126619.0,76885.0,4773.0,15.779519822353905
63872.253574687056,126594.0,76877.0,4771.0,15.789570471919433
63872.26362533663,126607.0,76918.0,4769.0,15.799621121492237
63872.273675986195,126574.0,76860.0,4760.0,15.809671771057765
63872.28372663576,126629.0,76902.0,4761.0,15.819722420623293
63872.29377728533,126614.0,76874.0,4775.0,15.829773070196097
63872.3038279349,126601.0,76888.0,4762.0,15.839823719761625
63872.31387858447,126600.0,76871.0,4736.0,15.84987436933443
63872.32392923404,126636.0,76930.0,4735.0,15.859925018899958
63872.3339798836,126606.0,76889.0,4755.0,15.869975668465486
63872.344030533175,126602.0,76897.0,4765.0,15.88002631803829
63872.35408118274,126601.0,76901.0,4740.0,15.890076967603818
63872.36413183231,126593.0,76886.0,4774.0,15.900127617176622
63872.37418248188,126574.0,76876.0,4749.0,15.91017826674215
63872.384233131444,126607.0,76892.0,4760.0,15.920228916307678
63872.39428378102,126597.0,76889.0,4748.0,15.930279565880483
63872.40433443058,126618.0,76896.0,4773.0,15.94033021544601
63872.414385080156,126550.0,76849.0,4719.0,15.950380865018815
63872.42443572972,126595.0,76887.0,4757.0,15.960431514584343
63872.43448637929,126583.0,76914.0,4752.0,15.970482164149871
63872.44453702886,126570.0,76884.0,4755.0,15.980532813722675
63872.454587678425,126598.0,76883.0,4740.0,15.990583463288203
63872.46463832799,126605.0,76883.0,4768.0,16.00063411285373
63872.47468897756,126610.0,76916.0,4770.0,16.010684762426536
63872.48473962713,126586.0,76872.0,4772.0,16.020735411992064
63872.4947902767,126558.0,76889.0,4756.0,16.030786061564868
63872.50484092627,126606.0,76900.0,4776.0,16.040836711130396
63872.51489157583,126631.0,76884.0,4798.0,16.050887360695924
63872.524942225406,126593.0,76870.0,4769.0,16.06093801026873
63872.53499287497,126611.0,76875.0,4759.0,16.070988659834256
63872.545043524544,126583.0,76867.0,4760.0,16.08103930940706
63872.55509417411,126585.0,76868.0,4784.0,16.09108995897259
63872.565144823675,126587.0,76875.0,4748.0,16.101140608538117
63872.57519547325,126631.0,76899.0,4782.0,16.11119125811092
63872.58524612281,126611.0,76903.0,4761.0,16.12124190767645
63872.595296772386,126612.0,76872.0,4775.0,16.131292557249253
63872.60534742195,126597.0,76863.0,4760.0,16.14134320681478
63872.61539807152,126636.0,76917.0,4769.0,16.15139385638031
63872.62544872109,126615.0,76887.0,4791.0,16.161444505953114
63872.635499370655,126598.0,76883.0,4789.0,16.17149515551864
63872.64555002023,126620.0,76903.0,4793.0,16.181545805091446
63872.655600669794,126625.0,76873.0,4785.0,16.191596454656974
63872.66565131936,126594.0,76878.0,4748.0,16.201647104222502
63872.67570196893,126623.0,76865.0,4753.0,16.211697753795306
63872.6857526185,126621.0,76906.0,4748.0,16.221748403360834
63872.69580326807,126596.0,76894.0,4784.0,16.23179905293364
63872.705853917636,126591.0,76866.0,4755.0,16.241849702499167
63872.7159045672,126608.0,76888.0,4773.0,16.251900352064695
63872.725955216774,126622.0,76910.0,4764.0,16.2619510016375
63872.73600586634,126613.0,76888.0,4761.0,16.272001651203027
63872.746056515905,126633.0,76903.0,4744.0,16.282052300768555
63872.75610716548,126617.0,76891.0,4766.0,16.29210295034136
63872.766157815044,126615.0,76877.0,4768.0,16.302153599906887
63872.77620846462,126626.0,76879.0,4766.0,16.31220424947969
63872.78625911418,126619.0,76885.0,4755.0,16.32225489904522
63872.79630976375,126623.0,76886.0,4773.0,16.332305548610748
63872.80636041332,126613.0,76914.0,4808.0,16.342356198183552
63872.816411062886,126624.0,76865.0,4775.0,16.35240684774908
63872.82646171246,126604.0,76868.0,4753.0,16.362457497321884
63872.836512362024,126626.0,76899.0,4775.0,16.372508146887412
63872.84656301159,126636.0,76903.0,4777.0,16.38255879645294
63872.85661366116,126599.0,76890.0,4744.0,16.392609446025745
63872.86666431073,126630.0,76904.0,4764.0,16.402660095591273
63872.8767149603,126635.0,76888.0,4777.0,16.412710745164077
63872.88676560987,126636.0,76897.0,4742.0,16.422761394729605
63872.89681625943,126660.0,76888.0,4773.0,16.432812044295133
63872.906866909005,126618.0,76881.0,4782.0,16.442862693867937
63872.91691755857,126631.0,76883.0,4777.0,16.452913343433465
63872.926968208136,126609.0,76883.0,4787.0,16.462963992998993
63872.93701885771,126613.0,76920.0,4770.0,16.473014642571798
63872.947069507274,126630.0,76938.0,4794.0,16.483065292137326
63872.95712015685,126592.0,76886.0,4763.0,16.49311594171013
63872.96717080641,126596.0,76874.0,4745.0,16.503166591275658
63872.97722145598,126623.0,76905.0,4746.0,16.513217240841186
63872.98727210555,126584.0,76875.0,4740.0,16.52326789041399
63872.997322755116,126600.0,76894.0,4763.0,16.53331853997952
63873.00737340469,126575.0,76873.0,4750.0,16.543369189552322
63873.017424054255,126596.0,76875.0,4760.0,16.55341983911785
63873.02747470382,126573.0,76880.0,4756.0,16.56347048868338
63873.03752535339,126583.0,76888.0,4757.0,16.573521138256183
63873.04757600296,126588.0,76885.0,4735.0,16.58357178782171
63873.05762665253,126607.0,76905.0,4768.0,16.593622437394515
63873.0676773021,126556.0,76868.0,4742.0,16.603673086960043
63873.07772795166,126572.0,76894.0,4736.0,16.61372373652557
63873.087778601235,126602.0,76866.0,4757.0,16.623774386098376
63873.0978292508,126568.0,76867.0,4746.0,16.633825035663904
63873.10787990037,126594.0,76886.0,4732.0,16.643875685236708
63873.11793054994,126589.0,76885.0,4775.0,16.653926334802236
63873.127981199505,126590.0,76885.0,4768.0,16.663976984367764
63873.13803184908,126597.0,76917.0,4781.0,16.674027633940568
63873.14808249864,126569.0,76893.0,4738.0,16.684078283506096
63873.158133148216,126617.0,76878.0,4773.0,16.6941289330789
63873.16818379778,126588.0,76887.0,4758.0,16.70417958264443
63873.17823444735,126587.0,76874.0,4770.0,16.714230232209957
63873.18828509692,126605.0,76873.0,4775.0,16.72428088178276
63873.198335746485,126605.0,76916.0,4776.0,16.73433153134829
63873.20838639605,126574.0,76913.0,4761.0,16.744382180913817
63873.21843704562,126557.0,76893.0,4748.0,16.75443283048662
63873.22848769519,126583.0,76901.0,4767.0,16.76448348005215
63873.23853834476,126605.0,76912.0,4792.0,16.774534129624953
63873.24858899433,126593.0,76894.0,4767.0,16.78458477919048
63873.25863964389,126581.0,76873.0,4742.0,16.79463542875601
63873.268690293466,126616.0,76903.0,4754.0,16.804686078328814
63873.27874094303,126578.0,76888.0,4746.0,16.814736727894342
63873.288791592604,126598.0,76902.0,4763.0,16.824787377467146
63873.29884224217,126608.0,76901.0,4781.0,16.834838027032674
63873.308892891735,126621.0,76880.0,4784.0,16.844888676598202
63873.31894354131,126586.0,76901.0,4747.0,16.854939326171007
63873.32899419087,126601.0,76891.0,4766.0,16.864989975736535
63873.339044840446,126591.0,76906.0,4745.0,16.87504062530934
63873.34909549001,126595.0,76898.0,4777.0,16.885091274874867
63873.35914613958,126573.0,76856.0,4757.0,16.895141924440395
63873.36919678915,126592.0,76888.0,4764.0,16.9051925740132
63873.379247438716,126586.0,76909.0,4755.0,16.915243223578727
63873.38929808828,126575.0,76901.0,4753.0,16.925293873144255
63873.399348737854,126598.0,76873.0,4762.0,16.93534452271706
63873.40939938742,126600.0,76897.0,4772.0,16.945395172282588
63873.41945003699,126593.0,76907.0,4792.0,16.955445821855392
63873.42950068656,126599.0,76881.0,4770.0,16.96549647142092
63873.43955133612,126588.0,76904.0,4748.0,16.975547120986448
63873.449601985696,126608.0,76908.0,4764.0,16.985597770559252
63873.45965263526,126611.0,76903.0,4794.0,16.99564842012478
63873.469703284834,126561.0,76863.0,4751.0,17.005699069697584
63873.4797539344,126610.0,76876.0,4766.0,17.015749719263113
63873.489804583965,126608.0,76893.0,4767.0,17.02580036882864
63873.49985523354,126587.0,76875.0,4755.0,17.035851018401445
63873.509905883104,126595.0,76882.0,4751.0,17.045901667966973
63873.51995653268,126637.0,76910.0,4801.0,17.055952317539777
63873.53000718224,126613.0,76894.0,4763.0,17.066002967105305
63873.54005783181,126640.0,76899.0,4780.0,17.076053616670833
63873.55010848138,126596.0,76878.0,4751.0,17.086104266243638
63873.560159130946,126617.0,76895.0,4742.0,17.096154915809166
63873.57020978052,126610.0,76891.0,4761.0,17.10620556538197
63873.580260430084,126601.0,76880.0,4790.0,17.116256214947498
63873.59031107965,126609.0,76890.0,4760.0,17.126306864513026
63873.60036172922,126634.0,76911.0,4792.0,17.13635751408583
63873.61041237879,126583.0,76922.0,4748.0,17.14640816365136
63873.62046302836,126617.0,76884.0,4770.0,17.156458813224162
63873.63051367793,126633.0,76917.0,4770.0,17.16650946278969
63873.64056432749,126638.0,76915.0,4783.0,17.17656011235522
63873.650614977065,126618.0,76881.0,4768.0,17.186610761928023
63873.66066562663,126619.0,76897.0,4781.0,17.19666141149355
63873.670716276196,126601.0,76915.0,4772.0,17.20671206105908
63873.68076692577,126653.0,76907.0,4782.0,17.216762710631883
63873.690817575334,126638.0,76923.0,4771.0,17.22681336019741
63873.70086822491,126625.0,76895.0,4773.0,17.236864009770215
63873.71091887447,126610.0,76913.0,4787.0,17.246914659335744
63873.72096952404,126623.0,76864.0,4764.0,17.256965308901272
63873.73102017361,126620.0,76890.0,4747.0,17.267015958474076
63873.74107082318,126627.0,76902.0,4796.0,17.277066608039604
63873.75112147275,126643.0,76881.0,4796.0,17.287117257612408
63873.761172122315,126645.0,76888.0,4784.0,17.297167907177936
63873.77122277188,126641.0,76868.0,4766.0,17.307218556743464
63873.78127342145,126636.0,76902.0,4773.0,17.31726920631627
63873.79132407102,126664.0,76930.0,4777.0,17.327319855881797
63873.80137472059,126613.0,76909.0,4757.0,17.3373705054546
63873.81142537016,126644.0,76914.0,4791.0,17.34742115502013
63873.82147601972,126634.0,76905.0,4777.0,17.357471804585657
63873.831526669295,126623.0,76890.0,4778.0,17.36752245415846
63873.84157731886,126609.0,76902.0,4757.0,17.37757310372399
63873.851627968426,126639.0,76920.0,4774.0,17.387623753289517
63873.861678618,126624.0,76907.0,4773.0,17.39767440286232
63873.871729267565,126571.0,76871.0,4788.0,17.40772505242785
63873.88177991714,126578.0,76885.0,4751.0,17.417775702000654
63873.8918305667,126610.0,76928.0,4785.0,17.427826351566182
63873.90188121627,126588.0,76900.0,4766.0,17.43787700113171
63873.91193186584,126588.0,76876.0,4742.0,17.447927650704514
63873.92198251541,126624.0,76925.0,4764.0,17.457978300270042
63873.93203316498,126623.0,76923.0,4781.0,17.468028949842846
63873.942083814545,126600.0,76899.0,4768.0,17.478079599408375
63873.95213446411,126569.0,76891.0,4751.0,17.488130248973903
63873.96218511368,126575.0,76916.0,4758.0,17.498180898546707
63873.97223576325,126614.0,76929.0,4782.0,17.508231548112235
63873.98228641282,126599.0,76902.0,4764.0,17.51828219768504
63873.99233706239,126588.0,76887.0,4767.0,17.528332847250567
63874.00238771195,126605.0,76888.0,4768.0,17.538383496816095
63874.012438361526,126558.0,76867.0,4764.0,17.5484341463889
63874.02248901109,126590.0,76894.0,4763.0,17.558484795954428
63874.032539660664,126595.0,76916.0,4765.0,17.568535445527232
63874.04259031023,126609.0,76921.0,4779.0,17.57858609509276
63874.052640959795,126599.0,76891.0,4787.0,17.588636744658288
63874.06269160937,126582.0,76904.0,4759.0,17.598687394231092
63874.07274225893,126587.0,76879.0,4759.0,17.60873804379662
63874.082792908506,126570.0,76894.0,4757.0,17.618788693369424
63874.09284355807,126590.0,76895.0,4741.0,17.628839342934953
63874.10289420764,126618.0,76911.0,4771.0,17.63888999250048
63874.11294485721,126589.0,76907.0,4752.0,17.648940642073285
63874.122995506776,126589.0,76870.0,4743.0,17.658991291638813
63874.13304615634,126565.0,76888.0,4741.0,17.66904194120434
63874.143096805914,126605.0,76925.0,4734.0,17.679092590777145
63874.15314745548,126584.0,76891.0,4760.0,17.689143240342673
63874.16319810505,126580.0,76881.0,4786.0,17.699193889915477
63874.17324875462,126567.0,76877.0,4763.0,17.709244539481006
63874.18329940418,126599.0,76886.0,4765.0,17.719295189046534
63874.193350053756,126595.0,76900.0,4774.0,17.729345838619338
63874.20340070332,126592.0,76894.0,4748.0,17.739396488184866
63874.213451352894,126617.0,76939.0,4766.0,17.74944713775767
63874.22350200246,126572.0,76907.0,4762.0,17.7594977873232
63874.233552652026,126593.0,76894.0,4763.0,17.769548436888726
63874.2436033016,126580.0,76879.0,4741.0,17.77959908646153
63874.253653951164,126572.0,76900.0,4751.0,17.78964973602706
63874.26370460074,126588.0,76899.0,4764.0,17.799700385599863
63874.2737552503,126587.0,76878.0,4774.0,17.80975103516539
63874.28380589987,126608.0,76922.0,4756.0,17.81980168473092
63874.29385654944,126600.0,76898.0,4786.0,17.829852334303723
63874.303907199006,126601.0,76888.0,4760.0,17.83990298386925
63874.31395784857,126601.0,76903.0,4768.0,17.84995363343478
63874.324008498144,126588.0,76912.0,4773.0,17.860004283007584
63874.33405914771,126627.0,76906.0,4795.0,17.87005493257311
63874.34410979728,126625.0,76894.0,4785.0,17.880105582145916
63874.35416044685,126600.0,76903.0,4762.0,17.890156231711444
63874.364211096414,126592.0,76898.0,4742.0,17.900206881276972
63874.37426174599,126603.0,76911.0,4749.0,17.910257530849776
63874.38431239555,126579.0,76896.0,4745.0,17.920308180415304
63874.394363045125,126600.0,76906.0,4775.0,17.93035882998811
63874.40441369469,126540.0,76871.0,4795.0,17.940409479553637
63874.414464344256,126596.0,76865.0,4786.0,17.950460129119165
63874.42451499383,126624.0,76922.0,4767.0,17.96051077869197
63874.434565643394,126617.0,76902.0,4768.0,17.970561428257497
63874.44461629297,126624.0,76928.0,4788.0,17.9806120778303
63874.45466694253,126642.0,76908.0,4790.0,17.99066272739583
63874.4647175921,126590.0,76902.0,4749.0,18.000713376961357
63874.47476824167,126615.0,76902.0,4752.0,18.01076402653416
63874.48481889124,126600.0,76883.0,4796.0,18.02081467609969
63874.49486954081,126589.0,76890.0,4743.0,18.030865325672494
63874.504920190375,126596.0,76868.0,4776.0,18.040915975238022
63874.51497083994,126620.0,76901.0,4751.0,18.05096662480355
63874.52502148951,126603.0,76901.0,4795.0,18.061017274376354
63874.53507213908,126610.0,76897.0,4747.0,18.071067923941882
63874.54512278865,126571.0,76889.0,4764.0,18.081118573514686
63874.55517343822,126630.0,76909.0,4776.0,18.091169223080215
63874.56522408778,126618.0,76910.0,4778.0,18.101219872645743
63874.575274737355,126626.0,76882.0,4761.0,18.111270522218547
63874.58532538692,126593.0,76883.0,4744.0,18.121321171784075
63874.59537603649,126657.0,76932.0,4740.0,18.131371821349603
63874.60542668606,126629.0,76910.0,4768.0,18.141422470922407
63874.615477335625,126619.0,76936.0,4782.0,18.151473120487935
63874.6255279852,126636.0,76906.0,4768.0,18.16152377006074
63874.63557863476,126648.0,76904.0,4750.0,18.171574419626268
63874.64562928433,126635.0,76919.0,4770.0,18.181625069191796
63874.6556799339,126657.0,76910.0,4787.0,18.1916757187646
63874.66573058347,126645.0,76899.0,4757.0,18.201726368330128
63874.67578123304,126683.0,76915.0,4790.0,18.211777017902932
63874.685831882605,126633.0,76904.0,4771.0,18.22182766746846
63874.69588253217,126611.0,76906.0,4758.0,18.23187831703399
63874.70593318174,126632.0,76923.0,4792.0,18.241928966606793
63874.71598383131,126635.0,76884.0,4775.0,18.25197961617232
63874.72603448088,126635.0,76901.0,4778.0,18.262030265745125
63874.73608513045,126616.0,76893.0,4755.0,18.272080915310653
63874.74613578001,126664.0,76932.0,4782.0,18.28213156487618
63874.756186429586,126622.0,76889.0,4784.0,18.292182214448985
63874.76623707915,126653.0,76903.0,4766.0,18.302232864014513
63874.77628772872,126617.0,76908.0,4770.0,18.31228351358004
63874.78633837829,126661.0,76927.0,4795.0,18.322334163152846
63874.796389027855,126634.0,76885.0,4785.0,18.332384812718374
63874.80643967743,126673.0,76916.0,4797.0,18.342435462291178
63874.81649032699,126643.0,76914.0,4778.0,18.352486111856706
63874.82654097656,126639.0,76921.0,4783.0,18.362536761422234
63874.83659162613,126670.0,76925.0,4786.0,18.37258741099504
63874.8466422757,126636.0,76912.0,4765.0,18.382638060560566
63874.85669292527,126623.0,76904.0,4747.0,18.39268871013337
63874.866743574836,126595.0,76892.0,4755.0,18.4027393596989
63874.8767942244,126604.0,76886.0,4745.0,18.412790009264427
63874.886844873974,126610.0,76913.0,4775.0,18.42284065883723
63874.89689552354,126617.0,76903.0,4744.0,18.43289130840276
63874.90694617311,126587.0,76910.0,4761.0,18.442941957975563
63874.91699682268,126601.0,76903.0,4727.0,18.45299260754109
63874.92704747224,126608.0,76902.0,4768.0,18.46304325710662
63874.937098121816,126606.0,76913.0,4779.0,18.473093906679424
63874.94714877138,126589.0,76885.0,4756.0,18.48314455624495
63874.957199420955,126603.0,76910.0,4738.0,18.493195205817756
63874.96725007052,126606.0,76906.0,4753.0,18.503245855383284
63874.977300720086,126585.0,76919.0,4770.0,18.513296504948812
63874.98735136966,126570.0,76885.0,4745.0,18.523347154521616
63874.997402019224,126569.0,76922.0,4778.0,18.533397804087144
63875.0074526688,126577.0,76903.0,4766.0,18.54344845365995
63875.01750331836,126600.0,76886.0,4766.0,18.553499103225477
63875.02755396793,126601.0,76909.0,4735.0,18.563549752791005
63875.0376046175,126577.0,76889.0,4740.0,18.57360040236381
63875.047655267066,126577.0,76892.0,4753.0,18.583651051929337
63875.05770591663,126596.0,76898.0,4773.0,18.593701701494865
63875.067756566204,126603.0,76943.0,4776.0,18.60375235106767
63875.07780721577,126608.0,76901.0,4799.0,18.613803000633197
63875.08785786534,126572.0,76891.0,4754.0,18.623853650206
63875.09790851491,126601.0,76906.0,4762.0,18.63390429977153
63875.107959164474,126602.0,76889.0,4765.0,18.643954949337058
63875.11800981405,126567.0,76882.0,4770.0,18.654005598909862
63875.12806046361,126585.0,76893.0,4756.0,18.66405624847539
63875.138111113185,126601.0,76898.0,4765.0,18.674106898048194
63875.14816176275,126602.0,76886.0,4739.0,18.684157547613722
63875.158212412316,126610.0,76892.0,4777.0,18.69420819717925
63875.16826306189,126616.0,76887.0,4746.0,18.704258846752055
63875.178313711454,126605.0,76902.0,4764.0,18.714309496317583
63875.18836436103,126612.0,76921.0,4785.0,18.724360145890387
63875.19841501059,126591.0,76897.0,4747.0,18.734410795455915
63875.20846566016,126624.0,76911.0,4765.0,18.744461445021443
63875.21851630973,126596.0,76899.0,4769.0,18.754512094594247
63875.2285669593,126609.0,76885.0,4753.0,18.764562744159775
63875.23861760887,126642.0,76932.0,4791.0,18.77461339373258
63875.248668258435,126634.0,76922.0,4760.0,18.784664043298108
63875.258718908,126604.0,76911.0,4755.0,18.794714692863636
63875.26876955757,126605.0,76897.0,4773.0,18.80476534243644
63875.27882020714,126611.0,76905.0,4756.0,18.814815992001968
63875.288870856704,126619.0,76892.0,4782.0,18.824866641567496
63875.29892150628,126618.0,76905.0,4768.0,18.8349172911403
63875.30897215584,126596.0,76898.0,4761.0,18.84496794070583
63875.319022805415,126634.0,76919.0,4748.0,18.855018590278632
63875.32907345498,126625.0,76927.0,4761.0,18.86506923984416
63875.33912410455,126583.0,76879.0,4763.0,18.87511988940969
63875.34917475412,126608.0,76882.0,4759.0,18.885170538982493
63875.359225403685,126564.0,76918.0,4782.0,18.89522118854802
63875.36927605326,126624.0,76890.0,4759.0,18.905271838120825
63875.37932670282,126619.0,76907.0,4771.0,18.915322487686353
63875.38937735239,126608.0,76906.0,4760.0,18.92537313725188
63875.39942800196,126647.0,76898.0,4786.0,18.935423786824686
63875.40947865153,126602.0,76882.0,4766.0,18.945474436390214
63875.4195293011,126617.0,76891.0,4764.0,18.955525085963018
63875.429579950665,126616.0,76927.0,4765.0,18.965575735528546
63875.43963060023,126634.0,76912.0,4768.0,18.975626385094074
63875.449681249804,126610.0,76879.0,4756.0,18.985677034666878
63875.45973189937,126621.0,76905.0,4762.0,18.995727684232406
63875.46978254894,126646.0,76915.0,4784.0,19.00577833380521
63875.47983319851,126608.0,76883.0,4777.0,19.01582898337074
63875.48988384807,126601.0,76903.0,4738.0,19.025879632936267
63875.499934497646,126652.0,76897.0,4782.0,19.03593028250907
63875.50998514721,126618.0,76910.0,4778.0,19.0459809320746
63875.52003579678,126629.0,76877.0,4769.0,19.056031581640127
63875.53008644635,126627.0,76878.0,4747.0,19.06608223121293
63875.540137095915,126637.0,76942.0,4788.0,19.07613288077846
63875.55018774549,126618.0,76910.0,4767.0,19.086183530351263
63875.56023839505,126613.0,76905.0,4752.0,19.09623417991679
63875.57028904462,126624.0,76904.0,4777.0,19.10628482948232
63875.58033969419,126651.0,76905.0,4780.0,19.116335479055124
63875.59039034376,126635.0,76900.0,4773.0,19.126386128620652
63875.60044099333,126649.0,76942.0,4759.0,19.136436778193456
63875.610491642896,126645.0,76909.0,4745.0,19.146487427758984
63875.62054229246,126626.0,76877.0,4778.0,19.156538077324512
63875.630592942034,126609.0,76898.0,4775.0,19.166588726897317
63875.6406435916,126618.0,76895.0,4763.0,19.176639376462845
63875.65069424117,126652.0,76875.0,4792.0,19.18669002603565
63875.66074489074,126630.0,76894.0,4750.0,19.196740675601177
63875.6707955403,126641.0,76909.0,4767.0,19.206791325166705
63875.680846189876,126652.0,76915.0,4762.0,19.21684197473951
63875.69089683944,126654.0,76922.0,4797.0,19.226892624305037
63875.700947489015,126626.0,76871.0,4764.0,19.23694327387784
63875.71099813858,126642.0,76898.0,4772.0,19.24699392344337
63875.721048788146,126616.0,76911.0,4751.0,19.257044573008898
63875.73109943772,126654.0,76911.0,4822.0,19.267095222581702
63875.741150087284,126638.0,76883.0,4739.0,19.27714587214723
63875.75120073685,126644.0,76907.0,4774.0,19.287196521712758
63875.76125138642,126665.0,76892.0,4781.0,19.297247171285562
63875.77130203599,126643.0,76901.0,4789.0,19.30729782085109
63875.78135268556,126617.0,76898.0,4757.0,19.317348470423894
63875.791403335126,126653.0,76903.0,4777.0,19.327399119989423
63875.80145398469,126669.0,76916.0,4793.0,19.33744976955495
63875.811504634265,126646.0,76894.0,4779.0,19.347500419127755
63875.82155528383,126640.0,76879.0,4770.0,19.357551068693283
63875.8316059334,126647.0,76899.0,4768.0,19.367601718266087
63875.84165658297,126667.0,76911.0,4779.0,19.377652367831615
63875.851707232534,126595.0,76921.0,4762.0,19.387703017397143
63875.86175788211,126625.0,76925.0,4769.0,19.397753666969948
63875.87180853167,126618.0,76925.0,4804.0,19.407804316535476
63875.881859181245,126618.0,76884.0,4769.0,19.41785496610828
63875.89190983081,126565.0,76881.0,4763.0,19.427905615673808
63875.901960480376,126622.0,76917.0,4753.0,19.437956265239336
63875.91201112995,126599.0,76897.0,4782.0,19.44800691481214
63875.922061779514,126582.0,76892.0,4765.0,19.45805756437767
63875.93211242909,126607.0,76894.0,4766.0,19.468108213950472
63875.94216307865,126586.0,76884.0,4775.0,19.478158863516
63875.95221372822,126581.0,76898.0,4741.0,19.48820951308153
63875.96226437779,126601.0,76900.0,4746.0,19.498260162654333
63875.97231502736,126598.0,76899.0,4747.0,19.50831081221986
63875.98236567692,126610.0,76909.0,4774.0,19.51836146178539
63875.992416326495,126581.0,76872.0,4759.0,19.528412111358193
63876.00246697606,126571.0,76889.0,4745.0,19.53846276092372
63876.01251762563,126570.0,76917.0,4769.0,19.548513410496525
63876.0225682752,126614.0,76876.0,4778.0,19.558564060062054
63876.032618924764,126576.0,76900.0,4773.0,19.56861470962758
63876.04266957434,126602.0,76892.0,4764.0,19.578665359200386
63876.0527202239,126589.0,76921.0,4794.0,19.588716008765914
63876.062770873476,126577.0,76882.0,4764.0,19.598766658338718
63876.07282152304,126585.0,76894.0,4748.0,19.608817307904246
63876.08287217261,126588.0,76898.0,4760.0,19.618867957469774
63876.09292282218,126616.0,76894.0,4772.0,19.62891860704258
63876.102973471745,126573.0,76862.0,4765.0,19.638969256608107
63876.11302412132,126575.0,76875.0,4762.0,19.64901990618091
63876.12307477088,126602.0,76901.0,4762.0,19.65907055574644
63876.13312542045,126588.0,76878.0,4748.0,19.669121205311967
63876.14317607002,126559.0,76882.0,4738.0,19.67917185488477
63876.15322671959,126618.0,76921.0,4781.0,19.6892225044503
63876.16327736916,126588.0,76892.0,4767.0,19.699273154023103
63876.173328018725,126610.0,76877.0,4758.0,19.70932380358863
63876.18337866829,126586.0,76876.0,4766.0,19.71937445315416
63876.193429317864,126605.0,76903.0,4747.0,19.729425102726964
63876.20347996743,126594.0,76897.0,4761.0,19.739475752292492
63876.213530616995,126585.0,76888.0,4785.0,19.74952640185802
63876.22358126657,126574.0,76894.0,4754.0,19.759577051430824
63876.23363191613,126613.0,76893.0,4792.0,19.769627700996352
63876.243682565706,126597.0,76893.0,4765.0,19.779678350569156
63876.25373321527,126568.0,76867.0,4750.0,19.789729000134685
63876.26378386484,126619.0,76887.0,4764.0,19.799779649700213
63876.27383451441,126615.0,76920.0,4796.0,19.809830299273017
63876.283885163975,126580.0,76889.0,4769.0,19.819880948838545
63876.29393581355,126575.0,76886.0,4760.0,19.82993159841135
63876.303986463114,126613.0,76917.0,4785.0,19.839982247976877
63876.31403711268,126637.0,76889.0,4796.0,19.850032897542405
