timestamp,time_from_segment_start_sec,selected_channel_name,backup_channel_name,selected_channel_raw,selected_channel_clipped,selected_channel_detrended,selected_channel_filtered,selected_channel_filtered_z
63856.456138315894,0.0,PPG_1,PPG_3,110848.0,110848.0,40.153852386109065,-5.8994976116496725,-0.1010755562000553
63856.46613622927,0.0099979133738088,PPG_1,PPG_3,110849.0,110849.0,41.09374203956395,-3.9563202846861745,-0.06869451631649247
63856.47613414265,0.0199958267548936,PPG_1,PPG_3,110869.0,110869.0,61.033631693033385,-1.9810977444217412,-0.03577947610492231
63856.48613205603,0.0299937401359784,PPG_1,PPG_3,110882.0,110882.0,73.97352134650282,0.06180797683621825,-0.0017365657022036574
63856.49612996941,0.0399916535097872,PPG_1,PPG_3,110841.0,110841.0,32.913410999957705,2.208302980936656,0.03403255293312834
63856.506127882785,0.049989566890872,PPG_1,PPG_3,110853.0,110853.0,44.85330065342714,4.490096775153969,0.0720562859354458
63856.516125796166,0.0599874802719568,PPG_1,PPG_3,110879.0,110879.0,70.79319030688202,6.927571439254898,0.11267427957824049
63856.52612370954,0.0699853936457657,PPG_1,PPG_3,110860.0,110860.0,51.73307996035146,9.523654951269982,0.15593532558631767
63856.53612162292,0.0799833070268505,PPG_1,PPG_3,110893.0,110893.0,84.6729696138209,12.26056987781137,0.20154318142351166
63856.5461195363,0.0899812204079353,PPG_1,PPG_3,110847.0,110847.0,38.61285926727578,15.09874619657825,0.24883845360445364
63856.55611744968,0.0999791337890201,PPG_1,PPG_3,110876.0,110876.0,67.55274892074522,17.977531570721546,0.29681043368206106
63856.56611536306,0.1099770471628289,PPG_1,PPG_3,110888.0,110888.0,79.49263857421465,20.819391937077935,0.3441670967048338
63856.57611327644,0.1199749605439137,PPG_1,PPG_3,110910.0,110910.0,101.43252822766954,23.53934875867659,0.3894923632667822
63856.58611118982,0.1299728739249985,PPG_1,PPG_3,110874.0,110874.0,65.37241788113897,26.058391508293475,0.43146960467027684
63856.59610910319,0.1399707872988074,PPG_1,PPG_3,110925.0,110925.0,116.31230753459386,28.317260009268235,0.4691113113775523
63856.606107016574,0.1499687006798922,PPG_1,PPG_3,110914.0,110914.0,105.25219718806329,30.28767504843944,0.5019462395568957
63856.616104929955,0.159966614060977,PPG_1,PPG_3,110915.0,110915.0,106.19208684153273,31.978880889952546,0.5301284353068458
63856.62610284333,0.1699645274347858,PPG_1,PPG_3,110899.0,110899.0,90.13197649498761,33.437153795964335,0.5544290446621823
63856.63610075671,0.1799624408158706,PPG_1,PPG_3,110893.0,110893.0,84.07186614845705,34.73768963260076,0.5761011289397064
63856.64609867009,0.1899603541969554,PPG_1,PPG_3,110921.0,110921.0,112.01175580192648,35.97175908231309,0.5966656196404422
63856.656096583465,0.1999582675707643,PPG_1,PPG_3,110902.0,110902.0,92.95164545538137,37.233288306247914,0.6176876990707056
63856.666094496846,0.2099561809518491,PPG_1,PPG_3,110904.0,110904.0,94.8915351088508,38.60725870421488,0.6405834943427337
63856.67609241023,0.2199540943329339,PPG_1,PPG_3,110924.0,110924.0,114.83142476230569,40.16068146727613,0.6664696776306605
63856.6860903236,0.2299520077067427,PPG_1,PPG_3,110925.0,110925.0,115.77131441577512,41.936624750473754,0.6960639351830737
63856.69608823698,0.2399499210878275,PPG_1,PPG_3,110915.0,110915.0,105.71120406924456,43.95104501183889,0.7296321648656687
63856.70608615036,0.2499478344689123,PPG_1,PPG_3,110927.0,110927.0,117.65109372269944,46.19130392918219,0.766963762113851
63856.71608406374,0.2599457478427212,PPG_1,PPG_3,110904.0,110904.0,94.59098337616888,48.6161089950488,0.8073706300091178
63856.72608197712,0.269943661223806,PPG_1,PPG_3,110946.0,110946.0,136.53087302963831,51.15826127631099,0.8497329678500366
63856.7360798905,0.2799415746048908,PPG_1,PPG_3,110928.0,110928.0,118.4707626830932,53.731697852766544,0.8926166261058908
63856.74607780387,0.2899394879786996,PPG_1,PPG_3,110935.0,110935.0,125.41065233656263,56.24263941604056,0.9344588696198811
63856.756075717254,0.2999374013597844,PPG_1,PPG_3,110957.0,110957.0,147.35054199003207,58.603144640428496,0.9737942471768569
63856.766073630635,0.3099353147408692,PPG_1,PPG_3,110949.0,110949.0,139.29043164348695,60.74506229753406,1.0094870890599106
63856.77607154401,0.319933228114678,PPG_1,PPG_3,110961.0,110961.0,151.2303212969564,62.63213451447389,1.0409331953272052
63856.78606945739,0.3299311414957628,PPG_1,PPG_3,110956.0,110956.0,146.17021095041127,64.26773225639076,1.0681887396254897
63856.79606737077,0.3399290548768476,PPG_1,PPG_3,110974.0,110974.0,164.1101006038807,65.69633834797776,1.091994982209571
63856.806065284145,0.3499269682506565,PPG_1,PPG_3,110934.0,110934.0,124.04999025735015,66.99799419845839,1.1136857303591234
63856.816063197526,0.3599248816317413,PPG_1,PPG_3,110959.0,110959.0,148.98987991080503,68.27634757385925,1.134988166868522
63856.82606111091,0.3699227950128261,PPG_1,PPG_3,110964.0,110964.0,153.92976956427447,69.6428651369035,1.1577597683567251
63856.83605902428,0.3799207083866349,PPG_1,PPG_3,110954.0,110954.0,143.8696592177439,71.20037269665424,1.1837140205556482
63856.84605693766,0.3899186217677197,PPG_1,PPG_3,110975.0,110975.0,164.80954887119879,73.02750049945598,1.2141612151754735
63856.85605485104,0.3999165351488045,PPG_1,PPG_3,110948.0,110948.0,137.74943852466822,75.16424676321627,1.2497678811383763
63856.86605276442,0.4099144485226134,PPG_1,PPG_3,110981.0,110981.0,170.6893281781231,77.59917513882468,1.2903434435176486
63856.8760506778,0.4199123619036982,PPG_1,PPG_3,110959.0,110959.0,148.62921783159254,80.25945429626788,1.334674243544628
63856.88604859118,0.429910275284783,PPG_1,PPG_3,110985.0,110985.0,174.56910748506198,83.00487205645047,1.3804237903080376
63856.89604650455,0.4399081886585918,PPG_1,PPG_3,110954.0,110954.0,143.50899713851686,85.62645267391854,1.4241097192010335
63856.906044417934,0.4499061020396766,PPG_1,PPG_3,110968.0,110968.0,157.4488867919863,87.85048867959581,1.461170978409349
63856.916042331315,0.4599040154207614,PPG_1,PPG_3,110963.0,110963.0,152.38877644545573,89.3498833493473,1.486156839415814
63856.92604024469,0.4699019287945702,PPG_1,PPG_3,110981.0,110981.0,170.32866609891062,89.76513667469727,1.4930766064918077
63856.93603815807,0.479899842175655,PPG_1,PPG_3,110996.0,110996.0,185.26855575238005,88.73551083413221,1.4759189570349858
63856.94603607145,0.4898977555567398,PPG_1,PPG_3,110994.0,110994.0,183.20844540583494,85.9373730083988,1.4292908849195263
63856.956033984825,0.4998956689305487,PPG_1,PPG_3,111006.0,111006.0,195.14833505930437,81.12360043526951,1.349074344968189
63856.966031898206,0.5098935823116335,PPG_1,PPG_3,110978.0,110978.0,167.0882247127738,74.15703181101469,1.2329836859514527
63856.97602981159,0.5198914956927183,PPG_1,PPG_3,110952.0,110952.0,141.0281143662287,65.03273876882112,1.0809367817349056
63856.98602772496,0.5298894090665272,PPG_1,PPG_3,110989.0,110989.0,177.96800401969813,53.88749723175539,0.8952128615780057
63856.99602563834,0.539887322447612,PPG_1,PPG_3,110942.0,110942.0,130.90789367316756,40.99741774352985,0.680413022047783
63857.00602355172,0.5498852358286968,PPG_1,PPG_3,110934.0,110934.0,122.84778332662245,26.764232697666195,0.4432317178790879
63857.0160214651,0.5598831492025056,PPG_1,PPG_3,110924.0,110924.0,112.78767298009188,11.689914329269852,0.19203379706589638
63857.02601937848,0.5698810625835904,PPG_1,PPG_3,110894.0,110894.0,82.72756263354677,-3.6593083746699118,-0.06374512010304516
63857.03601729186,0.5798789759646752,PPG_1,PPG_3,110876.0,110876.0,64.6674522870162,-18.696668190882246,-0.3143271648787269
63857.04601520523,0.589876889338484,PPG_1,PPG_3,110858.0,110858.0,46.60734194048564,-32.86246975198484,-0.5503855929839435
63857.056013118614,0.5998748027195688,PPG_1,PPG_3,110819.0,110819.0,7.5472315939405235,-45.67068400842673,-0.7638212331183212
63857.066011031995,0.6098727161006536,PPG_1,PPG_3,110815.0,110815.0,3.4871212474099593,-56.74846999441529,-0.948421076301139
63857.07600894537,0.6198706294744625,PPG_1,PPG_3,110812.0,110812.0,0.4270109008793952,-65.8620860895513,-1.1002900602405667
63857.08600685875,0.6298685428555473,PPG_1,PPG_3,110820.0,110820.0,8.36690055433428,-72.92409392242116,-1.217971114934392
63857.09600477213,0.6398664562366321,PPG_1,PPG_3,110842.0,110842.0,30.306790207803715,-77.9809212111672,-1.3022379102747073
63857.106002685505,0.6498643696104409,PPG_1,PPG_3,110835.0,110835.0,23.24667986127315,-81.18516002007827,-1.355633235152208
63857.116000598886,0.6598622829915257,PPG_1,PPG_3,110838.0,110838.0,26.186569514728035,-82.76059203989129,-1.3818861799347228
63857.12599851227,0.6698601963726105,PPG_1,PPG_3,110826.0,110826.0,14.12645916819747,-82.96802144228286,-1.3853427763341677
63857.13599642564,0.6798581097464194,PPG_1,PPG_3,110818.0,110818.0,6.066348821652355,-82.07693943752462,-1.370493816573665
63857.14599433902,0.6898560231275042,PPG_1,PPG_3,110846.0,110846.0,34.00623847512179,-80.34429298652849,-1.3416210559381283
63857.1559922524,0.699853936508589,PPG_1,PPG_3,110839.0,110839.0,26.946128128591226,-77.99992557912165,-1.302554598406128
63857.165990165784,0.7098518498896738,PPG_1,PPG_3,110818.0,110818.0,5.88601778204611,-75.23898934208812,-1.2565464522802874
63857.17598807916,0.7198497632634826,PPG_1,PPG_3,110804.0,110804.0,-8.174092564484454,-72.22162558697131,-1.2062652068468955
63857.18598599254,0.7298476766445674,PPG_1,PPG_3,110842.0,110842.0,29.765797088984982,-69.07728782337168,-1.1538680709202342
63857.19598390592,0.7398455900256522,PPG_1,PPG_3,110853.0,110853.0,40.705686742439866,-65.90901247790464,-1.1010720399558382
63857.205981819294,0.749843503399461,PPG_1,PPG_3,110850.0,110850.0,37.6455763959093,-62.79583695427931,-1.0491941905201563
63857.215979732675,0.7598414167805458,PPG_1,PPG_3,110835.0,110835.0,22.585466049364186,-59.79599763311086,-0.9992049716490056
63857.225977646056,0.7698393301616306,PPG_1,PPG_3,110844.0,110844.0,31.52535570283362,-56.95359304009475,-0.951839239651966
63857.23597555943,0.7798372435354395,PPG_1,PPG_3,110836.0,110836.0,23.465245356303058,-54.30776721755298,-0.9077492894987472
63857.24597347281,0.7898351569165243,PPG_1,PPG_3,110841.0,110841.0,28.40513500975794,-51.900996278919074,-0.8676429416770137
63857.25597138619,0.7998330702976091,PPG_1,PPG_3,110854.0,110854.0,41.34502466322738,-49.78336982501547,-0.8323548875654043
63857.265969299566,0.8098309836714179,PPG_1,PPG_3,110835.0,110835.0,22.284914316696813,-48.011301229338876,-0.8028251976720584
63857.27596721295,0.8198288970525027,PPG_1,PPG_3,110881.0,110881.0,68.2248039701517,-46.64062908236444,-0.7799843643406896
63857.28596512633,0.8298268104335875,PPG_1,PPG_3,110870.0,110870.0,57.16469362362113,-45.71562982744124,-0.7645702086945144
63857.2959630397,0.8398247238073964,PPG_1,PPG_3,110853.0,110853.0,40.10458327707602,-45.25728084797194,-0.7569322971262592
63857.30596095308,0.8498226371884812,PPG_1,PPG_3,110859.0,110859.0,46.04447293054545,-45.25448802802217,-0.7568857576710453
63857.315958866464,0.859820550569566,PPG_1,PPG_3,110889.0,110889.0,75.98436258401489,-45.65977417684339,-0.7636394320615051
63857.32595677984,0.8698184639433748,PPG_1,PPG_3,110859.0,110859.0,45.92425223746977,-46.38937693179234,-0.7757975071786521
63857.33595469322,0.8798163773244596,PPG_1,PPG_3,110833.0,110833.0,19.86414189093921,-47.32852429675032,-0.7914474264419487
63857.3459526066,0.8898142907055444,PPG_1,PPG_3,110848.0,110848.0,34.804031544408645,-48.341745263930584,-0.8083317056551049
63857.355950519974,0.8998122040793533,PPG_1,PPG_3,110857.0,110857.0,43.74392119786353,-49.28459043895701,-0.8240432450977062
63857.365948433355,0.909810117460438,PPG_1,PPG_3,110863.0,110863.0,49.683810851332964,-50.01254756902964,-0.8361738975787335
63857.375946346736,0.9198080308415229,PPG_1,PPG_3,110859.0,110859.0,45.6237005048024,-50.38668984499648,-0.8424085915472664
63857.38594426011,0.9298059442153316,PPG_1,PPG_3,110848.0,110848.0,34.563590158257284,-50.27863564766781,-0.8406079801338173
63857.39594217349,0.9398038575964164,PPG_1,PPG_3,110852.0,110852.0,38.50347981172672,-49.576686340916126,-0.8289107211226264
63857.40594008687,0.9498017709775012,PPG_1,PPG_3,110839.0,110839.0,25.443369465181604,-48.19249037718344,-0.8058445273757411
63857.415938000246,0.95979968435131,PPG_1,PPG_3,110884.0,110884.0,70.38325911865104,-46.06618336444776,-0.7704118207314715
63857.42593591363,0.9697975977323948,PPG_1,PPG_3,110864.0,110864.0,50.323148772120476,-43.16904417525946,-0.7221339933136646
63857.43593382701,0.9797955111134796,PPG_1,PPG_3,110854.0,110854.0,40.26303842557536,-39.5051565247631,-0.6610790960104889
63857.44593174038,0.9897934244872886,PPG_1,PPG_3,110865.0,110865.0,51.202928079044796,-35.113991925148426,-0.5879048807382236
63857.45592965376,0.9997913378683734,PPG_1,PPG_3,110885.0,110885.0,71.14281773251423,-30.073420204930258,-0.5039089676305932
63857.465927567144,1.0097892512494582,PPG_1,PPG_3,110870.0,110870.0,56.082707385969115,-24.50128529990388,-0.4110551039648398
63857.47592548052,1.019787164623267,PPG_1,PPG_3,110858.0,110858.0,44.02259703943855,-18.55473403471057,-0.31196197900090655
63857.4859233939,1.0297850780043518,PPG_1,PPG_3,110863.0,110863.0,48.962486692893435,-12.426244477480612,-0.20983704062033973
63857.49592130728,1.0397829913854366,PPG_1,PPG_3,110904.0,110904.0,89.90237634636287,-6.33314147335317,-0.10830178253886588
63857.50591922065,1.0497809047592457,PPG_1,PPG_3,110921.0,110921.0,106.8422659998323,-0.4980188091588507,-0.011065499934634446
63857.515917134035,1.0597788181403305,PPG_1,PPG_3,110908.0,110908.0,93.78215565328719,4.8775253144392,0.0785123817371756
63857.525915047416,1.069776731521415,PPG_1,PPG_3,110940.0,110940.0,125.72204530675663,9.639178018662772,0.15786039799263427
63857.53591296079,1.079774644895224,PPG_1,PPG_3,110922.0,110922.0,107.66193496022606,13.699946038822235,0.2255288960726091
63857.54591087417,1.0897725582763087,PPG_1,PPG_3,110939.0,110939.0,124.60182461368095,17.05036776504828,0.28136020803692313
63857.55590878755,1.0997704716573935,PPG_1,PPG_3,110901.0,110901.0,86.54171426715038,19.757630027391475,0.3264739329017493
63857.565906700926,1.1097683850312023,PPG_1,PPG_3,110953.0,110953.0,138.48160392060527,21.954555649105274,0.36308342560774975
63857.57590461431,1.1197662984122871,PPG_1,PPG_3,110930.0,110930.0,115.4214935740747,23.820991196339325,0.394185643123599
63857.58590252769,1.129764211793372,PPG_1,PPG_3,110908.0,110908.0,93.36138322754414,25.55958337192621,0.42315748310842544
63857.59590044106,1.1397621251671808,PPG_1,PPG_3,110911.0,110911.0,96.30127288099902,27.367610403128527,0.45328638312981895
63857.60589835444,1.1497600385482656,PPG_1,PPG_3,110894.0,110894.0,79.24116253446846,29.40906211908478,0.4873050640383931
63857.615896267824,1.1597579519293504,PPG_1,PPG_3,110934.0,110934.0,119.1810521879379,31.793641095565537,0.5270416057690384
63857.6258941812,1.1697558653031592,PPG_1,PPG_3,110927.0,110927.0,112.12094184139278,34.56776920752494,0.5732695808431618
63857.63589209458,1.179753778684244,PPG_1,PPG_3,110927.0,110927.0,112.06083149486221,37.718111625782505,0.6257667781277174
63857.64589000796,1.1897516920653288,PPG_1,PPG_3,110959.0,110959.0,144.0007211483171,41.18463924641957,0.6835328747076563
63857.65588792133,1.1997496054391377,PPG_1,PPG_3,110950.0,110950.0,134.94061080178653,44.87931369078385,0.7451008020808577
63857.665885834715,1.2097475188202225,PPG_1,PPG_3,110967.0,110967.0,151.88050045525597,48.70624365852559,0.808872630929175
63857.675883748096,1.2197454322013073,PPG_1,PPG_3,110960.0,110960.0,144.82039010871085,52.57895583551166,0.8734073729315971
63857.68588166147,1.229743345575116,PPG_1,PPG_3,110943.0,110943.0,127.76027976218029,56.43162176018975,0.9376080648777049
63857.69587957485,1.239741258956201,PPG_1,PPG_3,110966.0,110966.0,150.70016941564973,60.223786152249524,1.0008005613732247
63857.70587748823,1.2497391723372857,PPG_1,PPG_3,110973.0,110973.0,157.6400590691046,63.94043491087589,1.0627346679605725
63857.71587540161,1.2597370857183705,PPG_1,PPG_3,110980.0,110980.0,164.57994872257404,67.58898670658215,1.123534009109034
63857.72587331499,1.2697349990921794,PPG_1,PPG_3,110976.0,110976.0,160.51983837604348,71.19258001200251,1.1835841635276731
63857.73587122837,1.2797329124732642,PPG_1,PPG_3,110981.0,110981.0,165.45972802949836,74.7780264818704,1.24333191970523
63857.74586914175,1.289730825854349,PPG_1,PPG_3,110961.0,110961.0,145.3996176829678,78.35827362861968,1.3029930345418579
63857.75586705512,1.2997287392281578,PPG_1,PPG_3,110952.0,110952.0,136.33950733642268,81.91183775437145,1.3622095044378795
63857.7658649685,1.3097266526092426,PPG_1,PPG_3,110988.0,110988.0,172.27939698989212,85.36404758006024,1.4197370097771576
63857.775862881885,1.3197245659903274,PPG_1,PPG_3,110970.0,110970.0,154.21928664336156,88.57527470114027,1.473248787647353
63857.78586079526,1.3297224793641362,PPG_1,PPG_3,110964.0,110964.0,148.15917629681644,91.3388655560159,1.519301170233257
63857.79585870864,1.339720392745221,PPG_1,PPG_3,110994.0,110994.0,178.09906595028588,93.38908148378253,1.5534658976648335
63857.80585662202,1.3497183061263058,PPG_1,PPG_3,110977.0,110977.0,161.0389556037553,94.41882444983347,1.570625498896708
63857.815854535394,1.359716219500115,PPG_1,PPG_3,110994.0,110994.0,177.9788452572102,94.10614603103143,1.5654150365217792
63857.825852448776,1.3697141328811997,PPG_1,PPG_3,111006.0,111006.0,189.91873491067963,92.14673169415781,1.5327634236656966
63857.83585036216,1.3797120462622845,PPG_1,PPG_3,110980.0,110980.0,163.85862456413452,88.28818408812889,1.4684647195846379
63857.84584827553,1.3897099596360931,PPG_1,PPG_3,111003.0,111003.0,186.79851421760395,82.36153018426997,1.369703163562976
63857.85584618891,1.399707873017178,PPG_1,PPG_3,110982.0,110982.0,165.7384038710734,74.30592878070047,1.2354648999132638
63857.86584410229,1.4097057863982627,PPG_1,PPG_3,110963.0,110963.0,146.67829352452827,64.18358930376391,1.0667865843681574
63857.87584201567,1.4197036997720716,PPG_1,PPG_3,110964.0,110964.0,147.6181831779977,52.18308675860145,0.8668106243023148
63857.88583992905,1.4297016131531564,PPG_1,PPG_3,110933.0,110933.0,116.55807283146714,38.6108745540983,0.640643748740345
63857.89583784243,1.4396995265342412,PPG_1,PPG_3,110919.0,110919.0,102.49796248492203,23.87228029912538,0.3950403229615439
63857.9058357558,1.44969743990805,PPG_1,PPG_3,110906.0,110906.0,89.43785213839146,8.444144219911774,0.13794639603171668
63857.91583366918,1.4596953532891348,PPG_1,PPG_3,110896.0,110896.0,79.37774179184635,-7.158263612190921,-0.12205158937109524
63857.925831582565,1.4696932666702196,PPG_1,PPG_3,110844.0,110844.0,27.317631445315783,-22.41752514533783,-0.37633139669607446
63857.93582949594,1.4796911800440284,PPG_1,PPG_3,110833.0,110833.0,16.25752109878522,-36.850717163841004,-0.6168456101511038
63857.94582740932,1.4896890934251132,PPG_1,PPG_3,110833.0,110833.0,16.197410752240103,-50.0417556512825,-0.8366606200529146
63857.9558253227,1.499687006806198,PPG_1,PPG_3,110820.0,110820.0,3.1373004057095386,-61.66396120429988,-1.0303326521032818
63857.965823236074,1.5096849201800069,PPG_1,PPG_3,110850.0,110850.0,33.077190059178974,-71.49026286645432,-1.1940778037242896
63857.975821149455,1.5196828335610917,PPG_1,PPG_3,110791.0,110791.0,-25.98292028736614,-79.39310461990958,-1.325770485838899
63857.98581906284,1.5296807469421765,PPG_1,PPG_3,110829.0,110829.0,11.956969366103294,-85.33844655968643,-1.4248434586458474
63857.99581697621,1.539678660315985,PPG_1,PPG_3,110788.0,110788.0,-29.10314098042727,-89.3770732178527,-1.4921429938340522
63858.00581488959,1.54967657369707,PPG_1,PPG_3,110779.0,110779.0,-38.163251326972386,-91.63392059058312,-1.5297510205300484
63858.01581280297,1.559674487078155,PPG_1,PPG_3,110821.0,110821.0,3.77663832649705,-92.29438656472874,-1.5407570027190056
63858.025810716346,1.5696724004519638,PPG_1,PPG_3,110807.0,110807.0,-10.283472020048066,-91.58665094440292,-1.528963320778202
63858.03580862973,1.5796703138330486,PPG_1,PPG_3,110793.0,110793.0,-24.34358236657863,-89.76141200776502,-1.498547602158913
63858.04580654311,1.5896682272141334,PPG_1,PPG_3,110828.0,110828.0,10.596307286890806,-87.07248408391165,-1.4537394000776434
63858.05580445648,1.5996661405879422,PPG_1,PPG_3,110817.0,110817.0,-0.46380305965431035,-83.76096653613332,-1.39855638599972
63858.06580236986,1.609664053969027,PPG_1,PPG_3,110808.0,110808.0,-9.523913406184874,-80.04455880453027,-1.3366262958783668
63858.075800283244,1.6196619673501118,PPG_1,PPG_3,110814.0,110814.0,-3.5840237527154386,-76.11312015030947,-1.2711129378869808
63858.08579819662,1.6296598807239209,PPG_1,PPG_3,110792.0,110792.0,-25.644134099260555,-72.1296646324207,-1.204732772675441
63858.09579611,1.6396577941050057,PPG_1,PPG_3,110806.0,110806.0,-11.704244445791119,-68.23329248983121,-1.139803761823122
63858.10579402338,1.6496557074860905,PPG_1,PPG_3,110836.0,110836.0,18.235645207663765,-64.53965182165098,-1.078253061260558
63858.115791936754,1.659653620859899,PPG_1,PPG_3,110856.0,110856.0,38.1755348611332,-61.13679852744314,-1.0215480314577237
63858.125789850135,1.669651534240984,PPG_1,PPG_3,110820.0,110820.0,2.115424514602637,-58.07894424024245,-0.9705920531957206
63858.13578776352,1.6796494476220687,PPG_1,PPG_3,110856.0,110856.0,38.05531416805752,-55.38326914830337,-0.9256714165384332
63858.14578567689,1.6896473609958775,PPG_1,PPG_3,110840.0,110840.0,21.995203821526957,-53.03305099478123,-0.8865074623751786
63858.15578359027,1.6996452743769623,PPG_1,PPG_3,110811.0,110811.0,-7.064906525003607,-50.98702106965581,-0.8524124903470836
63858.16578150365,1.7096431877580471,PPG_1,PPG_3,110812.0,110812.0,-6.125016871548723,-49.19244994809283,-0.8225078191393216
63858.175779417026,1.719641101131856,PPG_1,PPG_3,110851.0,110851.0,32.81487278192071,-47.59709651386169,-0.795922904594779
63858.18577733041,1.7296390145129408,PPG_1,PPG_3,110845.0,110845.0,26.754762435375596,-46.15513046516186,-0.7718940321466549
63858.19577524379,1.7396369278940256,PPG_1,PPG_3,110854.0,110854.0,35.69465208884503,-44.826607372133175,-0.7497555691949387
63858.20577315716,1.7496348412678344,PPG_1,PPG_3,110845.0,110845.0,26.634541742314468,-43.57451140151356,-0.7288906851722138
63858.21577107054,1.7596327546489192,PPG_1,PPG_3,110824.0,110824.0,5.574431395769352,-42.36311505272981,-0.7087040182425075
63858.22576898392,1.769630668030004,PPG_1,PPG_3,110847.0,110847.0,28.514321049238788,-41.15793642329929,-0.6886209631734215
63858.2357668973,1.7796285814038129,PPG_1,PPG_3,110848.0,110848.0,29.454210702708224,-39.92498488997864,-0.6680751013928379
63858.24576481068,1.7896264947848977,PPG_1,PPG_3,110856.0,110856.0,37.39410035616311,-38.62762794803565,-0.6464559901067262
63858.25576272406,1.7996244081659825,PPG_1,PPG_3,110864.0,110864.0,45.333990009632544,-37.22220275153884,-0.6230360331580507
63858.265760637434,1.8096223215397913,PPG_1,PPG_3,110847.0,110847.0,28.273879663087428,-35.655301225316016,-0.5969252402261868
63858.275758550815,1.819620234920876,PPG_1,PPG_3,110859.0,110859.0,40.21376931655686,-33.86504218647934,-0.5670924254160908
63858.28575646419,1.829618148301961,PPG_1,PPG_3,110860.0,110860.0,41.1536589700263,-31.78674277045019,-0.5324597157057591
63858.29575437757,1.8396160616757695,PPG_1,PPG_3,110828.0,110828.0,9.093548623481183,-29.361870389929205,-0.4920517260814159
63858.30575229095,1.8496139750568543,PPG_1,PPG_3,110870.0,110870.0,51.03343827695062,-26.54821020128051,-0.44516498984628394
63858.31575020433,1.8596118884379391,PPG_1,PPG_3,110853.0,110853.0,33.973327930420055,-23.328582412621316,-0.39151322354160273
63858.32574811771,1.869609801819024,PPG_1,PPG_3,110859.0,110859.0,39.91321758387494,-19.716189086635136,-0.33131642588409693
63858.33574603109,1.879607715192833,PPG_1,PPG_3,110854.0,110854.0,34.853107237344375,-15.75622072854984,-0.26532764989257074
63858.34574394447,1.8896056285739176,PPG_1,PPG_3,110874.0,110874.0,54.79299689081381,-11.52354167167537,-0.19479443223242665
63858.35574185785,1.8996035419550024,PPG_1,PPG_3,110873.0,110873.0,53.732886544268695,-7.115855470878855,-0.12134490156851593
63858.36573977122,1.9096014553288112,PPG_1,PPG_3,110884.0,110884.0,64.67277619773813,-2.6426899214902413,-0.046804225300501365
63858.37573768461,1.919599368709896,PPG_1,PPG_3,110915.0,110915.0,95.61266585119301,1.787789029937622,0.027025122972954608
63858.385735597985,1.929597282090981,PPG_1,PPG_3,110892.0,110892.0,72.55255550466245,6.080786723352183,0.0985634883097541
63858.39573351136,1.93959519546479,PPG_1,PPG_3,110871.0,110871.0,51.492445158131886,10.162117510039781,0.1665746436211739
63858.40573142474,1.949593108845875,PPG_1,PPG_3,110911.0,110911.0,91.43233481158677,13.979463418747402,0.23018676404065988
63858.41572933812,1.9595910222269597,PPG_1,PPG_3,110858.0,110858.0,38.372224465056206,17.50024364374131,0.2888569241463972
63858.425727251495,1.9695889356007683,PPG_1,PPG_3,110914.0,110914.0,94.31211411852564,20.710180257068128,0.34234719703995115
63858.43572516488,1.979586848981853,PPG_1,PPG_3,110927.0,110927.0,107.25200377198053,23.615101358719073,0.3907547019783461
63858.44572307826,1.989584762362938,PPG_1,PPG_3,110916.0,110916.0,96.19189342544996,26.24511912896291,0.4345812272938838
63858.45572099163,1.9995826757367468,PPG_1,PPG_3,110915.0,110915.0,95.13178307890485,28.656891937731945,0.47477092610684735
63858.46571890501,2.0095805891178316,PPG_1,PPG_3,110904.0,110904.0,84.07167273237428,30.929874468727927,0.512647828523075
63858.47571681839,2.0195785024989164,PPG_1,PPG_3,110906.0,110906.0,86.01156238584372,33.15647157905938,0.5497517658909192
63858.48571473177,2.029576415872725,PPG_1,PPG_3,110909.0,110909.0,88.9514520392986,35.42938907435013,0.5876275845544003
63858.49571264515,2.03957432925381,PPG_1,PPG_3,110904.0,110904.0,83.89134169276804,37.8299187878066,0.6276299288152707
63858.50571055853,2.049572242634895,PPG_1,PPG_3,110920.0,110920.0,99.83123134623747,40.41970093836811,0.6707859691536555
63858.5157084719,2.0595701560087036,PPG_1,PPG_3,110907.0,110907.0,86.77112099969236,43.23715481974735,0.7177359233534628
63858.52570638528,2.0695680693897884,PPG_1,PPG_3,110952.0,110952.0,131.7110106531618,46.2985625904222,0.7687511167413865
63858.535704298665,2.0795659827708732,PPG_1,PPG_3,110924.0,110924.0,103.65090030661668,49.60231379353479,0.8238047127199521
63858.54570221204,2.089563896144682,PPG_1,PPG_3,110921.0,110921.0,100.59078996008611,53.13356439417388,0.8826493508039254
63858.55570012542,2.099561809525767,PPG_1,PPG_3,110939.0,110939.0,118.53067961355555,56.867352891747394,0.9448690734092969
63858.5656980388,2.1095597229068517,PPG_1,PPG_3,110921.0,110921.0,100.47056926701043,60.77075022026415,1.0099151517173461
63858.575695952175,2.1195576362806605,PPG_1,PPG_3,110964.0,110964.0,143.41045892047987,64.80576427246653,1.077154486564503
63858.58569386555,2.1295555496617453,PPG_1,PPG_3,110941.0,110941.0,120.3503485739493,68.93333111239839,1.1459361178707723
63858.59569177894,2.13955346304283,PPG_1,PPG_3,110948.0,110948.0,127.29023822740419,73.11691434563247,1.2156512044209264
63858.60568969231,2.149551376416639,PPG_1,PPG_3,110980.0,110980.0,159.23012788087362,77.32393977735978,1.2857569309573726
63858.61568760569,2.159549289797724,PPG_1,PPG_3,110939.0,110939.0,118.17001753434306,81.52406695192524,1.3557477051746527
63858.62568551907,2.169547203178809,PPG_1,PPG_3,110965.0,110965.0,144.10990718779794,85.68397122096177,1.4250682062829931
63858.63568343245,2.1795451165526174,PPG_1,PPG_3,110965.0,110965.0,144.04979684126738,89.75938458118448,1.4929807538041158
63858.64568134583,2.189543029933702,PPG_1,PPG_3,110970.0,110970.0,148.98968649472226,93.68627116942396,1.5584182563251603
63858.65567925921,2.199540943314787,PPG_1,PPG_3,110965.0,110965.0,143.9295761481917,97.37259291509133,1.6198469946156737
63858.66567717258,2.209538856688596,PPG_1,PPG_3,110971.0,110971.0,149.86946580166114,100.69124340590967,1.6751488718101337
63858.67567508597,2.2195367700696806,PPG_1,PPG_3,110961.0,110961.0,139.80935545511602,103.47511147143221,1.7215391531341373
63858.685672999345,2.2295346834507654,PPG_1,PPG_3,110949.0,110949.0,127.74924510858546,105.51623605477764,1.7555523827161796
63858.69567091272,2.2395325968245743,PPG_1,PPG_3,110987.0,110987.0,165.6891347620549,106.5716794620306,1.7731402552128743
63858.7056688261,2.249530510205659,PPG_1,PPG_3,110973.0,110973.0,151.62902441550978,106.37804154971934,1.7699134797279426
63858.71566673948,2.259528423586744,PPG_1,PPG_3,110976.0,110976.0,154.5689140689792,104.67375452090076,1.741513299524394
63858.725664652855,2.2695263369605527,PPG_1,PPG_3,110975.0,110975.0,153.5088037224341,101.22565827196242,1.6840543426860544
63858.73566256624,2.2795242503416375,PPG_1,PPG_3,110967.0,110967.0,145.44869337590353,95.85623046210942,1.594578383055311
63858.74566047962,2.2895221637227223,PPG_1,PPG_3,110963.0,110963.0,141.38858302937297,88.46898432978176,1.4714775685689703
63858.75565839299,2.299520077096531,PPG_1,PPG_3,110968.0,110968.0,146.32847268282785,79.0700130081724,1.3148534349881789
63858.76565630637,2.309517990477616,PPG_1,PPG_3,110975.0,110975.0,153.2683623362973,67.78308947389601,1.1267685309216786
63858.77565421975,2.3195159038587008,PPG_1,PPG_3,110941.0,110941.0,119.20825198976672,54.85434711020541,0.9113244145696366
63858.78565213313,2.3295138172325096,PPG_1,PPG_3,110914.0,110914.0,92.1481416432216,40.642144206908156,0.6744927561002082
63858.79565004651,2.3395117306135944,PPG_1,PPG_3,110877.0,110877.0,55.08803129669104,25.590735367147232,0.42367659888118964
63858.80564795989,2.349509643994679,PPG_1,PPG_3,110862.0,110862.0,40.027920950145926,10.191886502156986,0.16707071307796764
63858.81564587326,2.359507557368488,PPG_1,PPG_3,110855.0,110855.0,32.96781060361536,-5.057617185243352,-0.08704648984240422
63858.82564378664,2.369505470749573,PPG_1,PPG_3,110812.0,110812.0,-10.092299742915202,-19.694886363340512,-0.33096143803864403
63858.835641700025,2.3795033841306577,PPG_1,PPG_3,110827.0,110827.0,4.847589910539682,-33.32108011779493,-0.5580278602851566
63858.8456396134,2.3895012975044665,PPG_1,PPG_3,110841.0,110841.0,18.787479564009118,-45.62004389338689,-0.7629773679897713
63858.85563752678,2.3994992108855513,PPG_1,PPG_3,110767.0,110767.0,-55.272630782521446,-56.36545532517384,-0.9420385330774191
63858.86563544016,2.409497124266636,PPG_1,PPG_3,110814.0,110814.0,-8.332741129066562,-65.41879881054064,-1.092903136328712
63858.87563335354,2.419495037647721,PPG_1,PPG_3,110794.0,110794.0,-28.392851475597126,-72.72009707317638,-1.2145717184820675
63858.88563126691,2.4294929510215297,PPG_1,PPG_3,110794.0,110794.0,-28.452961822142242,-78.27261452159692,-1.3070986775282822
63858.8956291803,2.4394908644026145,PPG_1,PPG_3,110828.0,110828.0,5.486927831327193,-82.12464678814419,-1.3712888102171765
63858.90562709368,2.4494887777836993,PPG_1,PPG_3,110761.0,110761.0,-61.57318251520337,-84.35360859032407,-1.408432152728336
63858.91562500705,2.459486691157508,PPG_1,PPG_3,110791.0,110791.0,-31.633292861748487,-85.05682618032509,-1.4201505463678035
63858.92562292043,2.469484604538593,PPG_1,PPG_3,110800.0,110800.0,-22.69340320827905,-84.35001561423418,-1.4083722794988305
63858.935620833814,2.4794825179196778,PPG_1,PPG_3,110745.0,110745.0,-77.75351355480962,-82.37151687401204,-1.375402644804284
63858.94561874719,2.4894804312934866,PPG_1,PPG_3,110776.0,110776.0,-46.81362390135473,-79.28950111817328,-1.32404404066313
63858.95561666057,2.4994783446745714,PPG_1,PPG_3,110786.0,110786.0,-36.873734247885295,-75.30842034224038,-1.2577034480695495
63858.96561457395,2.509476258055656,PPG_1,PPG_3,110779.0,110779.0,-43.93384459441586,-70.67059626480126,-1.1804189077753402
63858.97561248733,2.519474171429465,PPG_1,PPG_3,110756.0,110756.0,-66.99395494096098,-65.65099563847697,-1.096772456252279
63858.985610400705,2.52947208481055,PPG_1,PPG_3,110808.0,110808.0,-15.05406528749154,-60.54470439521512,-1.0116813952817763
63858.995608314086,2.5394699981916347,PPG_1,PPG_3,110807.0,110807.0,-16.114175634036656,-55.64628702169486,-0.9300543372992927
63859.00560622746,2.5494679115654435,PPG_1,PPG_3,110837.0,110837.0,13.82571401943278,-51.222327443770936,-0.856333627640809
63859.01560414084,2.5594658249465283,PPG_1,PPG_3,110850.0,110850.0,26.765603672902216,-47.48304483177478,-0.7940223513023963
63859.02560205422,2.569463738327613,PPG_1,PPG_3,110803.0,110803.0,-20.2945066736429,-44.56118083864621,-0.7453325106054131
63859.0355999676,2.579461651701422,PPG_1,PPG_3,110808.0,110808.0,-15.354617020173464,-42.50369873624007,-0.7110466998905264
63859.04559788098,2.5894595650825067,PPG_1,PPG_3,110832.0,110832.0,8.585272633295972,-41.27580159549614,-0.690585064333326
63859.05559579436,2.5994574784635915,PPG_1,PPG_3,110809.0,110809.0,-14.474837713249144,-40.77260950039937,-0.682199888634573
63859.06559370773,2.6094553918374004,PPG_1,PPG_3,110820.0,110820.0,-3.5349480597797083,-40.834787814002354,-0.6832360259055946
63859.07559162111,2.619453305218485,PPG_1,PPG_3,110804.0,110804.0,-19.595058406324824,-41.26679738752595,-0.6904350185226031
63859.085589534494,2.62945121859957,PPG_1,PPG_3,110820.0,110820.0,-3.6551687528553884,-41.85651764633475,-0.7002620965538566
63859.09558744787,2.639449131973379,PPG_1,PPG_3,110786.0,110786.0,-37.71527909938595,-42.39422479931769,-0.7092224299855078
63859.10558536125,2.6494470453544636,PPG_1,PPG_3,110838.0,110838.0,14.224610554068931,-42.68892575672675,-0.7141333165645
63859.11558327463,2.6594449587355484,PPG_1,PPG_3,110820.0,110820.0,-3.8354997924616328,-42.58101075846838,-0.7123350247595521
63859.125581188,2.6694428721093573,PPG_1,PPG_3,110791.0,110791.0,-32.8956101389922,-41.95210744469958,-0.7018550016533361
63859.135579101385,2.679440785490442,PPG_1,PPG_3,110810.0,110810.0,-13.955720485537313,-40.73357953303997,-0.6815494946061013
63859.145577014766,2.689438698871527,PPG_1,PPG_3,110789.0,110789.0,-35.01583083206788,-38.91249083007644,-0.6512029353374651
63859.15557492814,2.6994366122453357,PPG_1,PPG_3,110811.0,110811.0,-13.075941178612993,-36.531349215084695,-0.6115236736799894
63859.16557284152,2.7094345256264205,PPG_1,PPG_3,110833.0,110833.0,8.863948474856443,-33.67893642666241,-0.5639911654602587
63859.1755707549,2.7194324390075053,PPG_1,PPG_3,110842.0,110842.0,17.80383812832588,-30.47313944123023,-0.5105698751830102
63859.18556866827,2.729430352381314,PPG_1,PPG_3,110833.0,110833.0,8.743727781780763,-27.040493884986695,-0.4533683881542638
63859.19556658166,2.739428265762399,PPG_1,PPG_3,110846.0,110846.0,21.6836174352502,-23.498495937226092,-0.39434465664893614
63859.20556449504,2.749426179143484,PPG_1,PPG_3,110818.0,110818.0,-6.376492911280366,-19.944545873455922,-0.3351217554951011
63859.21556240841,2.7594240925172926,PPG_1,PPG_3,110825.0,110825.0,0.5633967421745183,-16.451619873415396,-0.2769157572322516
63859.22556032179,2.7694220058983774,PPG_1,PPG_3,110859.0,110859.0,34.503286395643954,-13.06795476320689,-0.220530478665063
63859.235558235174,2.779419919279462,PPG_1,PPG_3,110844.0,110844.0,19.44317604911339,-9.818032349683596,-0.16637388377764262
63859.24555614855,2.789417832653271,PPG_1,PPG_3,110851.0,110851.0,26.383065702568274,-6.704882593657544,-0.11449646373234523
63859.25555406193,2.799415746034356,PPG_1,PPG_3,110827.0,110827.0,2.32295535603771,-3.7154426380139047,-0.06468053952923652
63859.26555197531,2.8094136594154406,PPG_1,PPG_3,110830.0,110830.0,5.262845009492594,-0.8286649172010545,-0.016575375262682955
63859.27554988868,2.8194115727892495,PPG_1,PPG_3,110859.0,110859.0,34.20273466296203,1.977124038489713,0.030180195018211724
63859.285547802065,2.8294094861703343,PPG_1,PPG_3,110862.0,110862.0,37.142624316431466,4.721181625942488,0.07590707591021519
63859.295545715446,2.839407399551419,PPG_1,PPG_3,110873.0,110873.0,48.08251396988635,7.421564696464785,0.12090616616005882
63859.30554362882,2.849405312925228,PPG_1,PPG_3,110851.0,110851.0,26.022403623355785,10.097050415218801,0.1654903677996779
63859.3155415422,2.8594032263063127,PPG_1,PPG_3,110882.0,110882.0,56.96229327682522,12.766339950997716,0.2099713164601383
63859.32553945558,2.8694011396873975,PPG_1,PPG_3,110841.0,110841.0,15.902182930280105,15.443720231571744,0.25458708901251165
63859.33553736896,2.8793990530612064,PPG_1,PPG_3,110850.0,110850.0,24.84207258374954,18.132692449486502,0.2993960292084909
63859.34553528234,2.889396966442291,PPG_1,PPG_3,110891.0,110891.0,65.78196223720443,20.820537149691607,0.3441861804882868
63859.35553319572,2.899394879823376,PPG_1,PPG_3,110838.0,110838.0,12.721851890673861,23.476640262762288,0.3884473910560307
63859.36553110909,2.909392793197185,PPG_1,PPG_3,110878.0,110878.0,52.6617415441433,26.05543037857519,0.4314202605068916
63859.37552902247,2.9193907065782696,PPG_1,PPG_3,110879.0,110879.0,53.60163119759818,28.50352830155358,0.47221527976882627
63859.385526935854,2.9293886199593544,PPG_1,PPG_3,110882.0,110882.0,56.54152085106762,30.770536100019232,0.5099926194484607
63859.39552484923,2.9393865333331632,PPG_1,PPG_3,110886.0,110886.0,60.48141050453705,32.821651237387286,0.5441723312777879
63859.40552276261,2.949384446714248,PPG_1,PPG_3,110888.0,110888.0,62.421300157991936,34.649143407516654,0.5746255977021802
63859.41552067599,2.959382360095333,PPG_1,PPG_3,110899.0,110899.0,73.36118981146137,36.280264052957406,0.6018065358193693
63859.42551858936,2.9693802734691417,PPG_1,PPG_3,110910.0,110910.0,84.30107946491626,37.77978843254626,0.6267945583060858
63859.435516502745,2.9793781868502265,PPG_1,PPG_3,110861.0,110861.0,35.24096911838569,39.24536741374648,0.6512169158461021
63859.445514416126,2.9893761002313113,PPG_1,PPG_3,110883.0,110883.0,57.18085877185513,40.795241099830854,0.6770439574378267
63859.4555123295,2.99937401360512,PPG_1,PPG_3,110888.0,110888.0,62.12074842531001,42.551264783317706,0.7063062754684327
63859.46551024288,3.009371926986205,PPG_1,PPG_3,110880.0,110880.0,54.06063807877945,44.622081178400045,0.7408142883760764
63859.47550815626,3.0193698403672897,PPG_1,PPG_3,110921.0,110921.0,95.00052773224888,47.089270900277924,0.7819274527156811
63859.48550606964,3.0293677537483745,PPG_1,PPG_3,110895.0,110895.0,68.94041738570377,49.99596163318649,0.8303644467282522
63859.49550398302,3.0393656671221834,PPG_1,PPG_3,110882.0,110882.0,55.8803070391732,53.33578609074075,0.8860191661733162
63859.5055018964,3.049363580503268,PPG_1,PPG_3,110874.0,110874.0,47.82019669262809,57.041697157016834,0.9477743402260841
63859.51549980978,3.059361493884353,PPG_1,PPG_3,110916.0,110916.0,89.76008634609752,60.97796280094014,1.013368135007209
63859.52549772315,3.069359407258162,PPG_1,PPG_3,110911.0,110911.0,84.69997599956696,64.93988980547135,1.0793895498154829
63859.53549563653,3.0793573206392466,PPG_1,PPG_3,110898.0,110898.0,71.63986565302184,68.66228992785763,1.1414194969299458
63859.545493549915,3.0893552340203314,PPG_1,PPG_3,110937.0,110937.0,110.57975530649128,71.83417779167097,1.1942757267753334
63859.55549146329,3.0993531473941403,PPG_1,PPG_3,110893.0,110893.0,66.51964495996071,74.11721104091801,1.2323201140134712
63859.56548937667,3.109351060775225,PPG_1,PPG_3,110925.0,110925.0,98.4595346134156,75.16676143995126,1.2498097856246628
63859.57548729005,3.11934897415631,PPG_1,PPG_3,110908.0,110908.0,81.39942426688503,74.65533853388033,1.2412874519760253
63859.585485203424,3.1293468875301187,PPG_1,PPG_3,110895.0,110895.0,68.33931392035447,72.29853298424877,1.2020137256714496
63859.595483116806,3.1393448009112035,PPG_1,PPG_3,110944.0,110944.0,117.27920357380935,67.8834236246613,1.1284404957457492
63859.60548103019,3.1493427142922883,PPG_1,PPG_3,110931.0,110931.0,104.21909322727879,61.29769840905262,1.0186961981411404
63859.61547894356,3.159340627666097,PPG_1,PPG_3,110908.0,110908.0,81.15898288073367,52.55446261393699,0.8729992187329653
63859.62547685694,3.169338541047182,PPG_1,PPG_3,110888.0,110888.0,61.09887253420311,41.80600854935675,0.6938873513175042
63859.63547477032,3.1793364544282667,PPG_1,PPG_3,110901.0,110901.0,74.03876218767255,29.34282834619602,0.486201346733858
63859.6454726837,3.1893343678020756,PPG_1,PPG_3,110871.0,110871.0,43.97865184112743,15.578368092614287,0.2568308563198774
63859.65547059708,3.1993322811831604,PPG_1,PPG_3,110823.0,110823.0,-4.081458505403134,1.0211926474898523,0.0142505873244628
63859.66546851046,3.209330194564245,PPG_1,PPG_3,110851.0,110851.0,23.858431148066302,-13.763253651716354,-0.2321169153362875
63859.67546642383,3.219328107938054,PPG_1,PPG_3,110784.0,110784.0,-43.201679198478814,-28.197048749418318,-0.4726411784822628
63859.68546433721,3.229326021319139,PPG_1,PPG_3,110796.0,110796.0,-31.26178954500938,-41.734929536102825,-0.6982359564830791
63859.695462250595,3.2393239347002236,PPG_1,PPG_3,110770.0,110770.0,-57.321899891554494,-53.90511904320944,-0.9010395742239009
63859.70546016397,3.2493218480740325,PPG_1,PPG_3,110744.0,110744.0,-83.38201023808506,-64.3412198595031,-1.0749463978946754
63859.71545807735,3.2593197614551173,PPG_1,PPG_3,110778.0,110778.0,-49.44212058461562,-72.80122692885386,-1.2159236635958703
63859.72545599073,3.269317674836202,PPG_1,PPG_3,110792.0,110792.0,-35.50223093116074,-79.17190812088474,-1.3220844750165
63859.735453904104,3.279315588210011,PPG_1,PPG_3,110745.0,110745.0,-82.5623412776913,-83.46102415166918,-1.3935581564612551
63859.745451817485,3.2893135015910957,PPG_1,PPG_3,110721.0,110721.0,-106.62245162422187,-85.78281016940396,-1.4322483184954382
63859.75544973087,3.2993114149721805,PPG_1,PPG_3,110786.0,110786.0,-41.68256197076698,-86.33945737649569,-1.4415242683348064
63859.76544764424,3.3093093283459893,PPG_1,PPG_3,110771.0,110771.0,-56.74267231729755,-85.39738502228617,-1.4258256071516147
63859.77544555762,3.319307241727074,PPG_1,PPG_3,110767.0,110767.0,-60.80278266384266,-83.25920464282085,-1.3901950431341195
63859.785443471,3.329305155108159,PPG_1,PPG_3,110765.0,110765.0,-62.86289301037323,-80.23659019198348,-1.3398263002885331
63859.795441384376,3.339303068481968,PPG_1,PPG_3,110772.0,110772.0,-55.92300335690379,-76.62838179911529,-1.2796992402120104
63859.80543929776,3.3493009818630526,PPG_1,PPG_3,110773.0,110773.0,-54.98311370344891,-72.7044454306479,-1.2143109000513843
63859.81543721114,3.3592988952441374,PPG_1,PPG_3,110777.0,110777.0,-51.04322404997947,-68.69432414126516,-1.1474863773443704
63859.82543512451,3.3692968086179462,PPG_1,PPG_3,110760.0,110760.0,-68.10333439651004,-64.7800103721425,-1.0822583878469811
63859.83543303789,3.379294721999031,PPG_1,PPG_3,110809.0,110809.0,-19.16344474305515,-61.09198943828049,-1.0208013343430609
63859.845430951274,3.389292635380116,PPG_1,PPG_3,110800.0,110800.0,-28.223555089585716,-57.707917320100925,-0.9644092734090955
63859.85542886465,3.3992905487539247,PPG_1,PPG_3,110773.0,110773.0,-55.28366543611628,-54.65508067373006,-0.9135369089406343
63859.86542677803,3.4092884621350095,PPG_1,PPG_3,110798.0,110798.0,-30.343775782661396,-51.918485131581015,-0.8679343753139268
63859.87542469141,3.4192863755160943,PPG_1,PPG_3,110783.0,110783.0,-45.40388612919196,-49.45387356202504,-0.8268641732155974
63859.885422604784,3.429284288889903,PPG_1,PPG_3,110791.0,110791.0,-37.463996475737076,-47.202470554541264,-0.7893468712340912
63859.895420518165,3.439282202270988,PPG_1,PPG_3,110802.0,110802.0,-26.52410682226764,-45.104577437911345,-0.7543876527734688
63859.90541843155,3.4492801156520727,PPG_1,PPG_3,110785.0,110785.0,-43.584217168798205,-43.11059896416956,-0.7211600643340266
63859.91541634492,3.4592780290258816,PPG_1,PPG_3,110782.0,110782.0,-46.64432751534332,-41.18871640151357,-0.6891338796676301
63859.9254142583,3.4692759424069664,PPG_1,PPG_3,110816.0,110816.0,-12.704437861873885,-39.32800586677013,-0.6581270635622543
63859.93541217168,3.479273855788051,PPG_1,PPG_3,110810.0,110810.0,-18.76454820840445,-37.535895927452295,-0.6282634054104472
63859.945410085056,3.48927176916186,PPG_1,PPG_3,110800.0,110800.0,-28.824658554949565,-35.83096709890477,-0.5998525302783752
63859.95540799844,3.499269682542945,PPG_1,PPG_3,110813.0,110813.0,-15.884768901480129,-34.23390983813478,-0.5732392232272179
63859.96540591182,3.5092675959240296,PPG_1,PPG_3,110793.0,110793.0,-35.944879248025245,-32.75839361669118,-0.5486512718588934
63859.97540382519,3.5192655092978384,PPG_1,PPG_3,110813.0,110813.0,-16.00498959455581,-31.401513014274364,-0.5260402603498461
63859.98540173857,3.5292634226789232,PPG_1,PPG_3,110859.0,110859.0,29.934900058913627,-30.13329802993941,-0.5049067696391172
63859.995399651954,3.539261336060008,PPG_1,PPG_3,110828.0,110828.0,-1.1252102876314893,-28.88740049797121,-0.48414517618406305
63860.00539756533,3.549259249433817,PPG_1,PPG_3,110822.0,110822.0,-7.1853206341620535,-27.558341149170584,-0.4619977770846789
63860.01539547871,3.5592571628149017,PPG_1,PPG_3,110816.0,110816.0,-13.245430980692618,-26.009897702487493,-0.43619456895295466
63860.02539339209,3.5692550761959865,PPG_1,PPG_3,110806.0,110806.0,-23.305541327237734,-24.09385750339492,-0.4042657412312571
63860.035391305464,3.5792529895697953,PPG_1,PPG_3,110811.0,110811.0,-18.365651673768298,-21.673847690884596,-0.36393878127235146
63860.045389218845,3.58925090295088,PPG_1,PPG_3,110804.0,110804.0,-25.425762020313414,-18.648197115865578,-0.3135194445582318
63860.055387132226,3.599248816331965,PPG_1,PPG_3,110848.0,110848.0,18.514127633156022,-14.967275295142496,-0.2521806904305443
63860.0653850456,3.6092467297057738,PPG_1,PPG_3,110795.0,110795.0,-34.54598271337454,-10.643226205862765,-0.18012488570517315
63860.07538295898,3.6192446430868586,PPG_1,PPG_3,110835.0,110835.0,5.393906940080342,-5.752067336954367,-0.09861878319292408
63860.08538087236,3.6292425564679434,PPG_1,PPG_3,110846.0,110846.0,16.333796593549778,-0.42817604643076135,-0.00990164254802602
63860.09537878574,3.639240469849028,PPG_1,PPG_3,110857.0,110857.0,27.273686247019214,5.148851460801319,0.08303375127195416
63860.10537669912,3.649238383222837,PPG_1,PPG_3,110861.0,110861.0,31.213575900474098,10.772749516301026,0.17675019428994557
63860.1153746125,3.659236296603922,PPG_1,PPG_3,110866.0,110866.0,36.15346555394353,16.23025273234907,0.26769383944850383
63860.12537252588,3.6692342099850066,PPG_1,PPG_3,110840.0,110840.0,10.093355207398417,21.318551639951263,0.3524850767588036
63860.13537043925,3.679232123358815,PPG_1,PPG_3,110862.0,110862.0,32.03324486086785,25.860216157097287,0.428167217460433
63860.145368352634,3.6892300367399,PPG_1,PPG_3,110900.0,110900.0,69.97313451433729,29.717602960498063,0.4924465779665757
63860.155366266015,3.699227950120985,PPG_1,PPG_3,110887.0,110887.0,56.91302416779217,32.80759492761441,0.5439380974170612
63860.16536417939,3.709225863494794,PPG_1,PPG_3,110878.0,110878.0,47.85291382126161,35.11358956776135,0.5823651124803565
63860.17536209277,3.7192237768758782,PPG_1,PPG_3,110875.0,110875.0,44.792803474731045,36.69040820471929,0.6086411638030979
63860.18536000615,3.729221690256963,PPG_1,PPG_3,110911.0,110911.0,80.73269312818593,37.6609703449588,0.6248145777970138
63860.195357919525,3.739219603630772,PPG_1,PPG_3,110885.0,110885.0,54.672582781655365,38.20590036996602,0.6338952729186902
63860.205355832906,3.749217517011857,PPG_1,PPG_3,110866.0,110866.0,35.6124724351248,38.546289950476165,0.6395675131355273
63860.21535374629,3.759215430392942,PPG_1,PPG_3,110899.0,110899.0,68.55236208857968,38.91981156071872,0.6457918643518608
63860.22535165966,3.7692133437667503,PPG_1,PPG_3,110841.0,110841.0,10.49225174204912,39.552906687792216,0.6563417396902536
63860.23534957304,3.779211257147835,PPG_1,PPG_3,110858.0,110858.0,27.432141395504004,40.63387930178773,0.6743550300066474
63860.24534748642,3.78920917052892,PPG_1,PPG_3,110864.0,110864.0,33.37203104897344,42.29264268960185,0.7019966058283129
63860.2553453998,3.799207083902729,PPG_1,PPG_3,110922.0,110922.0,91.31192070244288,44.5922191924363,0.740316669273035
63860.26534331318,3.809204997283814,PPG_1,PPG_3,110880.0,110880.0,49.25181035589776,47.53252409764803,0.7893138086922542
63860.27534122656,3.819202910664899,PPG_1,PPG_3,110888.0,110888.0,57.191700009367196,51.0612787830803,0.8481168549313985
63860.28533913993,3.829200824038708,PPG_1,PPG_3,110889.0,110889.0,58.13158966283663,55.08664267934534,0.9151953799132109
63860.295337053314,3.839198737419793,PPG_1,PPG_3,110915.0,110915.0,84.07147931629152,59.490399135104404,0.9885794254415016
63860.305334966695,3.8491966508008777,PPG_1,PPG_3,110901.0,110901.0,70.01136896976095,64.1424472754563,1.0661009950289688
63860.31533288007,3.859194564174686,PPG_1,PPG_3,110946.0,110946.0,114.95125862321584,68.9154277830008,1.145637777407847
63860.32533079345,3.869192477555771,PPG_1,PPG_3,110893.0,110893.0,61.89114827668527,73.69642100588574,1.2253080833985
63860.33532870683,3.879190390936856,PPG_1,PPG_3,110926.0,110926.0,94.83103793015471,78.3932308779675,1.303575560938005
63860.345326620205,3.889188304310665,PPG_1,PPG_3,110931.0,110931.0,99.77092758360959,82.93528016190992,1.3792641133802446
63860.355324533586,3.89918621769175,PPG_1,PPG_3,110932.0,110932.0,100.71081723707903,87.27086583254538,1.4515121632989991
63860.36532244697,3.909184131072834,PPG_1,PPG_3,110967.0,110967.0,135.65070689054846,91.36138831136381,1.5196764886507212
63860.37532036034,3.919182044446643,PPG_1,PPG_3,110941.0,110941.0,109.59059654400335,95.17088395683729,1.583157792554723
63860.38531827372,3.929179957827728,PPG_1,PPG_3,110907.0,110907.0,75.53048619747278,98.64889334268862,1.6411152208737565
63860.3953161871,3.939177871208813,PPG_1,PPG_3,110902.0,110902.0,70.47037585092767,101.70824379518916,1.6920961311826574
63860.40531410048,3.9491757845826214,PPG_1,PPG_3,110908.0,110908.0,76.4102655043971,104.20527450659272,1.7337065647413847
63860.41531201386,3.959173697963706,PPG_1,PPG_3,110961.0,110961.0,129.35015515786654,105.93246153410747,1.7624883497325279
63860.42530992724,3.969171611344791,PPG_1,PPG_3,110940.0,110940.0,108.29004481132142,106.62834103299696,1.774084461675078
63860.43530784061,3.9791695247186,PPG_1,PPG_3,110936.0,110936.0,104.22993446479086,106.00153202087873,1.7636393379392563
63860.445305753994,3.9891674380996847,PPG_1,PPG_3,110938.0,110938.0,106.1698241182603,103.76224206893426,1.7263238874970241
63860.455303667375,3.9991653514807695,PPG_1,PPG_3,110966.0,110966.0,134.10971377171518,99.65670008014474,1.6579092775497293
63860.46530158075,4.009163264854578,PPG_1,PPG_3,110937.0,110937.0,105.04960342518461,93.50148601612537,1.5553390029107526
63860.47529949413,4.019161178235663,PPG_1,PPG_3,110957.0,110957.0,124.98949307865405,85.2132348425771,1.4172238715269174
63860.48529740751,4.029159091616748,PPG_1,PPG_3,110901.0,110901.0,68.92938273210893,74.82841554793426,1.2441716013623123
63860.495295320885,4.039157004990557,PPG_1,PPG_3,110916.0,110916.0,83.86927238557837,62.51018736139188,1.0389010721787708
63860.505293234266,4.0491549183716415,PPG_1,PPG_3,110918.0,110918.0,85.80916203903325,48.54252316810637,0.8061443983296802
63860.51529114765,4.059152831752726,PPG_1,PPG_3,110856.0,110856.0,23.74905169250269,33.31280419056385,0.5523568871312634
63860.52528906102,4.069150745126535,PPG_1,PPG_3,110839.0,110839.0,6.688941345972125,17.2837871025139,0.2852498998170759
63860.5352869744,4.07914865850762,PPG_1,PPG_3,110813.0,110813.0,-19.37116900057299,0.9580107836165151,0.01319772692638612
63860.54528488778,4.089146571888705,PPG_1,PPG_3,110815.0,110815.0,-17.431279347103555,-15.158623936321186,-0.25536931758036546
63860.55528280116,4.099144485262514,PPG_1,PPG_3,110830.0,110830.0,-2.491389693634119,-30.58760186839212,-0.5124772731171403
63860.56528071454,4.109142398643598,PPG_1,PPG_3,110773.0,110773.0,-59.551500040179235,-44.90121394499202,-0.7509988105490839
63860.57527862792,4.119140312024683,PPG_1,PPG_3,110753.0,110753.0,-79.6116103867098,-57.740874002708445,-0.964958462430157
63860.58527654129,4.129138225398492,PPG_1,PPG_3,110765.0,110765.0,-67.67172073325492,-68.83116540043447,-1.1497666953623882
63860.595274454674,4.139136138779577,PPG_1,PPG_3,110769.0,110769.0,-63.73183107978548,-77.9871777139102,-1.3023421684203955
63860.605272368055,4.149134052160662,PPG_1,PPG_3,110750.0,110750.0,-82.79194142631604,-85.11369779190102,-1.421098252939473
63860.61527028143,4.1591319655344705,PPG_1,PPG_3,110743.0,110743.0,-89.85205177286116,-90.19870506868281,-1.5058346386274333
63860.62526819481,4.169129878915555,PPG_1,PPG_3,110755.0,110755.0,-77.91216211939172,-93.3046599811751,-1.5575921640485035
63860.63526610819,4.17912779229664,PPG_1,PPG_3,110729.0,110729.0,-103.97227246592229,-94.55928206010269,-1.5784991430528525
63860.64526402157,4.189125705677725,PPG_1,PPG_3,110727.0,110727.0,-106.0323828124674,-94.1460802174557,-1.5716135618137888
63860.655261934946,4.199123619051534,PPG_1,PPG_3,110750.0,110750.0,-83.09249315899797,-92.29392949136886,-1.5407493860643182
63860.66525984833,4.2091215324326186,PPG_1,PPG_3,110753.0,110753.0,-80.15260350554308,-89.26456088875507,-1.4902680922667333
63860.67525776171,4.219119445813703,PPG_1,PPG_3,110744.0,110744.0,-89.21271385207365,-85.3383603675039,-1.4248420223422935
63860.68525567508,4.229117359187512,PPG_1,PPG_3,110768.0,110768.0,-65.27282419860421,-80.80078360726976,-1.3492279998807042
63860.69525358846,4.239115272568597,PPG_1,PPG_3,110726.0,110726.0,-107.33293454514933,-75.93130072001027,-1.268083105178236
63860.70525150184,4.249113185949682,PPG_1,PPG_3,110763.0,110763.0,-70.39304489167989,-70.99460317607003,-1.1858181477575906
63860.71524941522,4.259111099323491,PPG_1,PPG_3,110759.0,110759.0,-74.45315523821046,-66.23193067151936,-1.1064531375846924
63860.7252473286,4.269109012704575,PPG_1,PPG_3,110796.0,110796.0,-37.51326558475557,-61.850732069709096,-1.0334449953557392
63860.73524524198,4.27910692608566,PPG_1,PPG_3,110762.0,110762.0,-71.57337593128614,-58.01374844395626,-0.9695056326974522
63860.745243155354,4.289104839459469,PPG_1,PPG_3,110782.0,110782.0,-51.6334862778167,-54.83079544623316,-0.9164650138426431
63860.755241068735,4.299102752840554,PPG_1,PPG_3,110778.0,110778.0,-55.69359662436182,-52.355340138899315,-0.8752141120723897
63860.76523898211,4.309100666221639,PPG_1,PPG_3,110799.0,110799.0,-34.75370697089238,-50.585682798707,-0.8457246032571794
63860.77523689549,4.3190985795954475,PPG_1,PPG_3,110776.0,110776.0,-57.8138173174375,-49.4703912108981,-0.8271394227461057
63860.78523480887,4.329096492976532,PPG_1,PPG_3,110760.0,110760.0,-73.87392766396806,-48.9183244206882,-0.8179398008155062
63860.79523272225,4.339094406357617,PPG_1,PPG_3,110757.0,110757.0,-76.93403801049863,-48.811963356097436,-0.8161674037075419
63860.805230635626,4.349092319731426,PPG_1,PPG_3,110789.0,110789.0,-44.99414835704374,-49.01981591228376,-0.8196310515272123
63860.81522854901,4.359090233112511,PPG_1,PPG_3,110806.0,110806.0,-28.054258703574305,-49.40400063639789,-0.8260330925049314
63860.82522646239,4.369088146493596,PPG_1,PPG_3,110784.0,110784.0,-50.11436905010487,-49.82397334347179,-0.8330315031950246
63860.83522437576,4.379086059867404,PPG_1,PPG_3,110747.0,110747.0,-87.17447939664999,-50.1412333236227,-0.8383183125500814
63860.84522228914,4.389083973248489,PPG_1,PPG_3,110796.0,110796.0,-38.23458974318055,-50.227562537399294,-0.8397568995877269
63860.85522020253,4.399081886629574,PPG_1,PPG_3,110749.0,110749.0,-85.29470008972567,-49.97428252486577,-0.8355362502039811
63860.8652181159,4.409079800003383,PPG_1,PPG_3,110784.0,110784.0,-50.35481043625623,-49.298691333519194,-0.8242782219178225
63860.87521602928,4.419077713384468,PPG_1,PPG_3,110768.0,110768.0,-66.4149207827868,-48.145917780031695,-0.8050684432248374
63860.88521394266,4.429075626765552,PPG_1,PPG_3,110808.0,110808.0,-26.47503112933191,-46.48633149634915,-0.777413154694833
63860.895211856034,4.439073540139361,PPG_1,PPG_3,110768.0,110768.0,-66.53514147586247,-44.31025483162824,-0.7411510882883008
63860.905209769415,4.449071453520446,PPG_1,PPG_3,110800.0,110800.0,-34.59525182239304,-41.62286900746781,-0.6963685837030694
63860.9152076828,4.459069366901531,PPG_1,PPG_3,110768.0,110768.0,-66.65536216893815,-38.44123782978599,-0.6433499916117892
63860.92520559617,4.46906728027534,PPG_1,PPG_3,110811.0,110811.0,-23.71547251546872,-34.79319368738076,-0.582559109980408
63860.93520350955,4.4790651936564245,PPG_1,PPG_3,110785.0,110785.0,-49.775582862013835,-30.71699263306454,-0.5146334363521083
63860.94520142293,4.489063107037509,PPG_1,PPG_3,110792.0,110792.0,-42.8356932085444,-26.261326482920943,-0.44038436946890314
63860.955199336306,4.499061020411318,PPG_1,PPG_3,110811.0,110811.0,-23.895803555074963,-21.485560275672768,-0.3608011662863458
63860.96519724969,4.509058933792403,PPG_1,PPG_3,110801.0,110801.0,-33.95591390162008,-16.45957454983171,-0.2770483136853984
63860.97519516307,4.519056847173488,PPG_1,PPG_3,110804.0,110804.0,-31.016024248150643,-11.262654397140079,-0.19044701569734274
63860.98519307644,4.529054760547297,PPG_1,PPG_3,110825.0,110825.0,-10.076134594681207,-5.981217759403535,-0.10243733792063739
63860.99519098982,4.539052673928381,PPG_1,PPG_3,110811.0,110811.0,-24.136244941226323,-0.705077480228873,-0.0145159184801375
63861.0051889032,4.549050587309466,PPG_1,PPG_3,110839.0,110839.0,3.8036447122431127,4.477814399295552,0.07185161284822025
63861.01518681658,4.559048500683275,PPG_1,PPG_3,110850.0,110850.0,14.743534365697997,9.487296754275173,0.155329453846952
63861.02518472996,4.56904641406436,PPG_1,PPG_3,110840.0,110840.0,4.683424019167433,14.255673013601319,0.23478951119249272
63861.03518264334,4.579044327445445,PPG_1,PPG_3,110818.0,110818.0,-17.37668632736313,18.72886186692674,0.3093305757965056
63861.04518055671,4.5890422408192535,PPG_1,PPG_3,110839.0,110839.0,3.5632033260917524,22.86391004711153,0.378236875898438
63861.055178470095,4.599040154200338,PPG_1,PPG_3,110863.0,110863.0,27.50309297956119,26.62596162750086,0.4409275735400001
63861.06517638347,4.609038067581423,PPG_1,PPG_3,110851.0,110851.0,15.442982633030624,29.987549925796873,0.4969449648757349
63861.07517429685,4.619035980955232,PPG_1,PPG_3,110833.0,110833.0,-2.617127713514492,32.92977215830925,0.5459740545708919
63861.08517221023,4.629033894336317,PPG_1,PPG_3,110880.0,110880.0,44.322761939954944,35.443759610453874,0.5878670546718553
63861.09517012361,4.6390318077174015,PPG_1,PPG_3,110841.0,110841.0,5.26265159342438,37.532410365656986,0.6226722587407766
63861.105168036986,4.64902972109121,PPG_1,PPG_3,110856.0,110856.0,20.202541246879264,39.21282587181949,0.6506746447150071
63861.11516595037,4.659027634472295,PPG_1,PPG_3,110868.0,110868.0,32.1424309003487,40.51938802752243,0.6724471513653822
63861.12516386375,4.66902554785338,PPG_1,PPG_3,110850.0,110850.0,14.082320553803584,41.50760040356881,0.6889146882793662
63861.13516177712,4.679023461227189,PPG_1,PPG_3,110887.0,110887.0,51.02221020727302,42.25851261791975,0.7014278634922267
63861.1451596905,4.689021374608274,PPG_1,PPG_3,110873.0,110873.0,36.962099860742455,42.88223743275398,0.7118215922709974
63861.15515760389,4.699019287989358,PPG_1,PPG_3,110857.0,110857.0,20.90198951419734,43.51802246550994,0.7224162921048071
63861.16515551726,4.709017201363167,PPG_1,PPG_3,110884.0,110884.0,47.841879167666775,44.3287908289758,0.7359269081198385
63861.17515343064,4.719015114744252,PPG_1,PPG_3,110865.0,110865.0,28.78176882113621,45.489926252420915,0.7552760287250834
63861.18515134402,4.729013028125337,PPG_1,PPG_3,110881.0,110881.0,44.721658474591095,47.17324167364543,0.7833267387837806
63861.19514925739,4.739010941499146,PPG_1,PPG_3,110847.0,110847.0,10.66154812806053,49.52702858836994,0.8225501626604911
63861.205147170775,4.7490088548802305,PPG_1,PPG_3,110845.0,110845.0,8.601437781515415,52.65417555206695,0.8746608316911295
63861.21514508416,4.759006768261315,PPG_1,PPG_3,110848.0,110848.0,11.54132743498485,56.59313641100184,0.9402995394421486
63861.22514299753,4.769004681635124,PPG_1,PPG_3,110907.0,110907.0,70.48121708845429,61.30793284525716,1.018866744432684
63861.23514091091,4.779002595016209,PPG_1,PPG_3,110905.0,110905.0,68.42110674190917,66.68995353924204,1.1085525514498005
63861.24513882429,4.789000508397294,PPG_1,PPG_3,110889.0,110889.0,52.360996395378606,72.56767680256367,1.2064987289669995
63861.25513673767,4.7989984217783785,PPG_1,PPG_3,110912.0,110912.0,75.30088604884804,78.71732077616181,1.3089761838115177
63861.26513465105,4.808996335152187,PPG_1,PPG_3,110878.0,110878.0,41.240775702302926,84.87069418481887,1.4115157858330898
63861.27513256443,4.818994248533272,PPG_1,PPG_3,110916.0,110916.0,79.18066535577236,90.72147142736253,1.5090129357904218
63861.28513047781,4.828992161914357,PPG_1,PPG_3,110915.0,110915.0,78.12055500922725,95.93307312663865,1.595858886563845
63861.29512839118,4.838990075288166,PPG_1,PPG_3,110883.0,110883.0,46.06044466269668,100.15032564788297,1.666135036966887
63861.30512630456,4.848987988669251,PPG_1,PPG_3,110923.0,110923.0,86.00033431616612,103.0158448884597,1.713885950652787
63861.315124217945,4.858985902050335,PPG_1,PPG_3,110956.0,110956.0,118.940223969621,104.19185627319877,1.7334829637634053
63861.32512213132,4.868983815424144,PPG_1,PPG_3,110911.0,110911.0,73.88011362309044,103.38625113345718,1.7200583875302422
63861.3351200447,4.878981728805229,PPG_1,PPG_3,110909.0,110909.0,71.82000327655987,100.37836224296176,1.6699350309137582
63861.34511795808,4.888979642186314,PPG_1,PPG_3,110946.0,110946.0,108.75989293001476,95.04035111740792,1.5809825978254382
63861.355115871454,4.898977555560123,PPG_1,PPG_3,110923.0,110923.0,85.6997825834842,87.35295808907055,1.4528801458272982
63861.365113784836,4.9089754689412075,PPG_1,PPG_3,110886.0,110886.0,48.63967223695363,77.41404198541787,1.287258391041453
63861.37511169822,4.918973382322292,PPG_1,PPG_3,110882.0,110882.0,44.57956189040851,65.43745892589567,1.087681024458441
63861.38510961159,4.928971295696101,PPG_1,PPG_3,110863.0,110863.0,25.51945154387795,51.74290566864294,0.8594754618175766
63861.39510752497,4.938969209077186,PPG_1,PPG_3,110875.0,110875.0,37.45934119733283,36.740485176510425,0.6094756447319952
63861.40510543835,4.948967122458271,PPG_1,PPG_3,110883.0,110883.0,45.39923085080227,20.912192530071092,0.34571352258230403
63861.41510335173,4.95896503583208,PPG_1,PPG_3,110813.0,110813.0,-24.660879495728295,4.788288253900135,0.07702533844148071
63861.42510126511,4.968962949213164,PPG_1,PPG_3,110815.0,110815.0,-22.72098984227341,-11.084937584677355,-0.18748554887057217
63861.43509917849,4.978960862594249,PPG_1,PPG_3,110774.0,110774.0,-63.781100188803975,-26.185708588199184,-0.43912427548215277
63861.44509709186,4.988958775968058,PPG_1,PPG_3,110743.0,110743.0,-94.84121053533454,-40.05986104848102,-0.6703226730411918
63861.45509500524,4.998956689349143,PPG_1,PPG_3,110746.0,110746.0,-91.90132088187966,-52.35816139154503,-0.8752611253290674
63861.465092918625,5.008954602730228,PPG_1,PPG_3,110730.0,110730.0,-107.96143122841022,-62.86006223614771,-1.0502644383996762
63861.475090832,5.0189525161040365,PPG_1,PPG_3,110746.0,110746.0,-92.02154157495534,-71.47897118726506,-1.1938896395721526
63861.48508874538,5.028950429485121,PPG_1,PPG_3,110750.0,110750.0,-88.0816519214859,-78.24872403459217,-1.3067005672777126
63861.49508665876,5.038948342866206,PPG_1,PPG_3,110755.0,110755.0,-83.14176226801646,-83.29561124743208,-1.3908017215363337
63861.505084572134,5.048946256240015,PPG_1,PPG_3,110762.0,110762.0,-76.20187261456158,-86.80335500308824,-1.4492546423671429
63861.515082485515,5.0589441696211,PPG_1,PPG_3,110737.0,110737.0,-101.26198296109214,-88.97908081996493,-1.485510862257313
63861.5250803989,5.0689420830021845,PPG_1,PPG_3,110748.0,110748.0,-90.32209330762271,-90.02637409160876,-1.5029629211756201
63861.53507831227,5.078939996375993,PPG_1,PPG_3,110719.0,110719.0,-119.38220365416782,-90.12786568089953,-1.504654173515316
63861.54507622565,5.088937909757078,PPG_1,PPG_3,110746.0,110746.0,-92.44231400069839,-89.43637494791074,-1.493131195816202
63861.55507413903,5.098935823138163,PPG_1,PPG_3,110729.0,110729.0,-109.5024243472435,-88.07210502378875,-1.4703970489053941
63861.565072052406,5.108933736511972,PPG_1,PPG_3,110756.0,110756.0,-82.56253469377407,-86.1239711349226,-1.4379334130454229
63861.57506996579,5.118931649893057,PPG_1,PPG_3,110766.0,110766.0,-72.62264504030463,-83.6549286333895,-1.3967893740496153
63861.58506787917,5.128929563274141,PPG_1,PPG_3,110703.0,110703.0,-135.68275538684975,-80.71260661254756,-1.34775862148518
63861.59506579254,5.13892747664795,PPG_1,PPG_3,110738.0,110738.0,-100.74286573338031,-77.34529882286475,-1.291645920742455
63861.60506370592,5.148925390029035,PPG_1,PPG_3,110734.0,110734.0,-104.80297607991088,-73.61918115492718,-1.2295540245772827
63861.615061619304,5.15892330341012,PPG_1,PPG_3,110742.0,110742.0,-96.863086426456,-69.6302477537185,-1.1630825761072379
63861.62505953268,5.168921216783929,PPG_1,PPG_3,110734.0,110734.0,-104.92319677298656,-65.50683156539266,-1.0943701111160198
63861.63505744606,5.1789191301650135,PPG_1,PPG_3,110776.0,110776.0,-62.98330711953167,-61.40197145988495,-1.025966864048189
63861.64505535944,5.188917043546098,PPG_1,PPG_3,110789.0,110789.0,-50.04341746606224,-57.47698092403545,-0.9605609572787052
63861.655053272814,5.198914956919907,PPG_1,PPG_3,110775.0,110775.0,-64.1035278125928,-53.88025774281498,-0.900625286372525
63861.665051186195,5.208912870300992,PPG_1,PPG_3,110814.0,110814.0,-25.163638159137918,-50.727715861478956,-0.8480914373111719
63861.67504909958,5.218910783682077,PPG_1,PPG_3,110776.0,110776.0,-63.22374850566848,-48.09057505364444,-0.8041462139431634
63861.68504701295,5.228908697055886,PPG_1,PPG_3,110757.0,110757.0,-82.28385885219905,-45.99318886867175,-0.7691954429741739
63861.69504492633,5.23890661043697,PPG_1,PPG_3,110793.0,110793.0,-46.34396919874416,-44.41948705209849,-0.742971330238707
63861.70504283971,5.248904523818055,PPG_1,PPG_3,110775.0,110775.0,-64.40407954527473,-43.323292179441715,-0.7247043767295676
63861.715040753086,5.258902437191864,PPG_1,PPG_3,110768.0,110768.0,-71.46418989180529,-42.63808623152195,-0.7132861284718464
63861.72503866647,5.268900350572949,PPG_1,PPG_3,110807.0,110807.0,-32.524300238350406,-42.28443766462811,-0.7073929409637103
63861.73503657985,5.278898263954034,PPG_1,PPG_3,110770.0,110770.0,-69.58441058488097,-42.17491944994769,-0.7055679332156604
63861.74503449322,5.2888961773278425,PPG_1,PPG_3,110786.0,110786.0,-53.64452093142609,-42.21709831432363,-0.7062708003552924
63861.7550324066,5.298894090708927,PPG_1,PPG_3,110783.0,110783.0,-56.70463127795665,-42.3152554662833,-0.7079064877464323
63861.765030319984,5.308892004090012,PPG_1,PPG_3,110797.0,110797.0,-42.764741624487215,-42.37070341628527,-0.7088304704707888
63861.77502823336,5.318889917463821,PPG_1,PPG_3,110804.0,110804.0,-35.82485197103233,-42.28086371144302,-0.7073333847312334
63861.78502614674,5.328887830844906,PPG_1,PPG_3,110799.0,110799.0,-40.884962317562895,-41.93908004874693,-0.7016379135769839
63861.79502406012,5.3388857442259905,PPG_1,PPG_3,110788.0,110788.0,-51.94507266409346,-41.23802029226778,-0.6899554780008206
63861.8050219735,5.348883657607075,PPG_1,PPG_3,110766.0,110766.0,-74.00518301063858,-40.07779589493463,-0.6706215387032503
63861.815019886875,5.358881570980884,PPG_1,PPG_3,110806.0,110806.0,-34.06529335716914,-38.376557884193005,-0.6422721672316613
63861.825017800256,5.368879484361969,PPG_1,PPG_3,110794.0,110794.0,-46.125403703714255,-36.079572410815544,-0.603995280612349
63861.83501571364,5.378877397743054,PPG_1,PPG_3,110811.0,110811.0,-29.18551405024482,-33.164749999669816,-0.5554227805944
63861.84501362701,5.388875311116863,PPG_1,PPG_3,110800.0,110800.0,-40.24562439677538,-29.645762992445558,-0.49678250260766094
63861.85501154039,5.398873224497947,PPG_1,PPG_3,110791.0,110791.0,-49.3057347433205,-25.574404927714625,-0.42893753239059434
63861.86500945377,5.408871137879032,PPG_1,PPG_3,110820.0,110820.0,-20.365845089851064,-21.04179527274829,-0.35340628159968596
63861.87500736715,5.418869051252841,PPG_1,PPG_3,110792.0,110792.0,-48.42595543638163,-16.176301307024666,-0.27232785814796434
63861.88500528053,5.428866964633926,PPG_1,PPG_3,110820.0,110820.0,-20.486065782926744,-11.13612928324406,-0.18833860556796894
63861.89500319391,5.438864878015011,PPG_1,PPG_3,110846.0,110846.0,5.453823870542692,-6.095651433266228,-0.10434425671078243
63861.90500110728,5.4488627913888195,PPG_1,PPG_3,110839.0,110839.0,-1.606286476002424,-1.2264350690685033,-0.023203803339413315
63861.914999020664,5.458860704769904,PPG_1,PPG_3,110869.0,110869.0,28.333603177467012,3.323333107281913,0.0526133764593994
63861.924996934045,5.468858618150989,PPG_1,PPG_3,110842.0,110842.0,1.2734928309364477,7.4458622652421225,0.12131106000723131
63861.93499484742,5.478856531524798,PPG_1,PPG_3,110861.0,110861.0,20.21338248439133,11.083410891136285,0.18192704471385543
63861.9449927608,5.488854444905883,PPG_1,PPG_3,110838.0,110838.0,-2.8467278621392325,14.229766187253578,0.2343578007327306
63861.95499067418,5.4988523582869675,PPG_1,PPG_3,110874.0,110874.0,33.0931617913302,16.925343498772982,0.2792768079804806
63861.964988587555,5.508850271660776,PPG_1,PPG_3,110858.0,110858.0,17.033051444785087,19.24839188911372,0.31798800614818284
63861.974986500936,5.518848185041861,PPG_1,PPG_3,110840.0,110840.0,-1.0270589017454768,21.303761147712454,0.35223860850681404
63861.98498441432,5.528846098422946,PPG_1,PPG_3,110884.0,110884.0,42.91283075172396,23.21023724359973,0.3840080603429226
63861.99498232769,5.538844011796755,PPG_1,PPG_3,110852.0,110852.0,10.852720405178843,25.08810931870973,0.41530085576442255
63862.00498024107,5.54884192517784,PPG_1,PPG_3,110869.0,110869.0,27.79261005864828,27.048342800454062,0.4479661188223477
63862.01497815445,5.558839838558924,PPG_1,PPG_3,110874.0,110874.0,32.73249971210316,29.183739963904255,0.48355030342426414
63862.02497606783,5.568837751932733,PPG_1,PPG_3,110861.0,110861.0,19.6723893655726,31.562422946915976,0.523188594523315
63862.03497398121,5.578835665313818,PPG_1,PPG_3,110859.0,110859.0,17.612279019042035,34.224455665636796,0.5675486158348788
63862.04497189459,5.588833578694903,PPG_1,PPG_3,110889.0,110889.0,47.55216867249692,37.18294167068554,0.616848724474035
63862.05496980796,5.598831492068712,PPG_1,PPG_3,110920.0,110920.0,78.49205832596635,40.43052645879433,0.6709663652522605
63862.064967721344,5.6088294054497965,PPG_1,PPG_3,110887.0,110887.0,45.43194797943579,43.94919041025839,0.729601259848966
63862.074965634725,5.618827318830881,PPG_1,PPG_3,110894.0,110894.0,52.371837632890674,47.71824327154446,0.792408626593655
63862.0849635481,5.62882523220469,PPG_1,PPG_3,110897.0,110897.0,55.31172728636011,51.717159327957056,0.8590464256853425
63862.09496146148,5.638823145585775,PPG_1,PPG_3,110894.0,110894.0,52.251616939814994,55.9244250606864,0.9291561565893895
63862.10495937486,5.64882105896686,PPG_1,PPG_3,110929.0,110929.0,87.19150659328443,60.31543060063998,1.0023277212969541
63862.114957288235,5.6588189723406686,PPG_1,PPG_3,110902.0,110902.0,60.131396246753866,64.86084420039728,1.0780723365817717
63862.124955201616,5.668816885721753,PPG_1,PPG_3,110910.0,110910.0,68.07128590020875,69.5250893905288,1.1557971573856334
63862.134953115,5.678814799102838,PPG_1,PPG_3,110940.0,110940.0,98.01117555367819,74.26473652707948,1.234778473621187
63862.14495102837,5.688812712476647,PPG_1,PPG_3,110933.0,110933.0,90.95106520714762,79.0274572222585,1.3141442868410524
63862.15494894175,5.698810625857732,PPG_1,PPG_3,110939.0,110939.0,96.8909548606025,83.7512865537771,1.3928620157197
63862.16494685513,5.708808539238817,PPG_1,PPG_3,110939.0,110939.0,96.83084451407194,88.36273738767082,1.4697070731940693
63862.17494476851,5.718806452612625,PPG_1,PPG_3,110930.0,110930.0,87.77073416752683,92.77332851422064,1.5432050114404334
63862.18494268189,5.72880436599371,PPG_1,PPG_3,110950.0,110950.0,107.71062382099626,96.87618871929675,1.6115749322365236
63862.19494059527,5.738802279374795,PPG_1,PPG_3,110952.0,110952.0,109.6505134744657,100.54521238967153,1.6727154159976199
63862.20493850864,5.748800192748604,PPG_1,PPG_3,110960.0,110960.0,117.59040312792058,103.63813997432821,1.724255854477438
63862.214936422024,5.758798106129689,PPG_1,PPG_3,110983.0,110983.0,140.53029278139002,106.00287663199354,1.7636617444924476
63862.224934335405,5.7687960195107735,PPG_1,PPG_3,110943.0,110943.0,100.47018243485945,107.48486404171031,1.7883575315187226
63862.23493224878,5.778793932884582,PPG_1,PPG_3,110967.0,110967.0,124.41007208831434,107.9335814466083,1.795834942860875
63862.24493016216,5.788791846265667,PPG_1,PPG_3,110968.0,110968.0,125.34996174178377,107.2081928006249,1.7837470915100275
63862.25492807554,5.798789759646752,PPG_1,PPG_3,110961.0,110961.0,118.28985139523866,105.18362912674718,1.750009832351549
63862.264925988915,5.808787673020561,PPG_1,PPG_3,110941.0,110941.0,98.22974104870809,101.75761495407673,1.6929188504696997
63862.274923902296,5.818785586401646,PPG_1,PPG_3,110959.0,110959.0,116.16963070217753,96.85865669819552,1.6112827792422286
63862.28492181568,5.82878349978273,PPG_1,PPG_3,110960.0,110960.0,117.10952035563241,90.45565052844087,1.5045833055089088
63862.29491972905,5.838781413156539,PPG_1,PPG_3,110944.0,110944.0,101.04941000910185,82.5689374338212,1.3731593908082544
63862.30491764243,5.848779326537624,PPG_1,PPG_3,110968.0,110968.0,124.98929966257128,73.2802728495825,1.2183734048903974
63862.31491555581,5.858777239918709,PPG_1,PPG_3,110904.0,110904.0,60.92918931602617,62.73806965748487,1.04269849489267
63862.32491346919,5.868775153292518,PPG_1,PPG_3,110921.0,110921.0,77.8690789694956,51.15560576453814,0.8496887164935419
63862.33491138257,5.878773066673602,PPG_1,PPG_3,110905.0,110905.0,61.80896862296504,38.80271361839509,0.643840548284073
63862.34490929595,5.888770980054687,PPG_1,PPG_3,110907.0,110907.0,63.748858276419924,25.99316456403487,0.4303826651232715
63862.35490720932,5.898768893428496,PPG_1,PPG_3,110866.0,110866.0,22.68874792988936,13.068847009296517,0.21501228363483235
63862.364905122704,5.908766806809581,PPG_1,PPG_3,110876.0,110876.0,32.62863758334424,0.38050380883274804,0.0035741706384322925
63862.374903036085,5.918764720190666,PPG_1,PPG_3,110826.0,110826.0,-17.43147276318632,-11.734138760214043,-0.19830381484445478
63862.38490094946,5.9287626335644745,PPG_1,PPG_3,110838.0,110838.0,-5.491583109716885,-22.971940412133968,-0.3855701535594202
63862.39489886284,5.938760546945559,PPG_1,PPG_3,110824.0,110824.0,-19.551693456262,-33.081724409525094,-0.5540392450268902
63862.40489677622,5.948758460326644,PPG_1,PPG_3,110830.0,110830.0,-13.611803802792565,-41.87447757656073,-0.7005613802110316
63862.4148946896,5.958756373707729,PPG_1,PPG_3,110821.0,110821.0,-22.67191414932313,-49.225945762580594,-0.8230659922354207
63862.424892602976,5.968754287081538,PPG_1,PPG_3,110841.0,110841.0,-2.732024495868245,-55.07382383930538,-0.920514830593648
63862.43489051636,5.978752200462623,PPG_1,PPG_3,110809.0,110809.0,-34.79213484239881,-59.41312999893788,-0.9928248786125901
63862.44488842974,5.988750113843707,PPG_1,PPG_3,110804.0,110804.0,-39.852245188943925,-62.293117278674885,-1.0408168872035122
63862.45488634311,5.998748027217516,PPG_1,PPG_3,110796.0,110796.0,-47.91235553547449,-63.81671930161853,-1.0662061387077533
63862.46488425649,6.008745940598601,PPG_1,PPG_3,110794.0,110794.0,-49.972465882005054,-64.1401994765466,-1.0715966011738094
63862.474882169874,6.018743853979686,PPG_1,PPG_3,110803.0,110803.0,-41.03257622855017,-63.46919419245827,-1.0604149922878623
63862.48488008325,6.028741767353495,PPG_1,PPG_3,110814.0,110814.0,-30.092686575080734,-62.04862298523778,-1.0367426427394406
63862.49487799663,6.0387396807345795,PPG_1,PPG_3,110818.0,110818.0,-26.152796921611298,-60.146576187285234,-1.005047000571184
63862.50487591001,6.048737594115664,PPG_1,PPG_3,110833.0,110833.0,-11.212907268156414,-58.03473087177895,-0.9698552831502196
63862.514873823384,6.058735507489473,PPG_1,PPG_3,110821.0,110821.0,-23.273017614686978,-55.96906594748001,-0.9354331141738434
63862.524871736765,6.068733420870558,PPG_1,PPG_3,110785.0,110785.0,-59.333127961232094,-54.17388472395616,-0.9055182762480708
63862.534869650146,6.078731334251643,PPG_1,PPG_3,110843.0,110843.0,-1.3932383077626582,-52.82923093928862,-0.8831110120078366
63862.54486756352,6.0887292476254515,PPG_1,PPG_3,110864.0,110864.0,19.546651345706778,-52.0595782745058,-0.8702855465760392
63862.5548654769,6.098727161006536,PPG_1,PPG_3,110815.0,110815.0,-29.51345900083834,-51.92420420997886,-0.8680296778388833
63862.56486339028,6.108725074387621,PPG_1,PPG_3,110836.0,110836.0,-8.573569347368903,-52.4136978647807,-0.8761865832015338
63862.574861303656,6.11872298776143,PPG_1,PPG_3,110829.0,110829.0,-15.633679693899467,-53.455729449720835,-0.8935509615542833
63862.58485921704,6.128720901142515,PPG_1,PPG_3,110810.0,110810.0,-34.69379004044458,-54.92853172007873,-0.9180936877354214
63862.59485713042,6.1387188145236,PPG_1,PPG_3,110814.0,110814.0,-30.753900386975147,-56.67842118278793,-0.9472537853227876
63862.60485504379,6.148716727897408,PPG_1,PPG_3,110801.0,110801.0,-43.81401073350571,-58.53756526614067,-0.9782344981362743
63862.61485295717,6.158714641278493,PPG_1,PPG_3,110825.0,110825.0,-19.874121080050827,-60.33819121942336,-1.0082400668507554
63862.624850870554,6.168712554659578,PPG_1,PPG_3,110839.0,110839.0,-5.934231426581391,-61.92095298893769,-1.0346151543292155
63862.63484878393,6.178710468033387,PPG_1,PPG_3,110844.0,110844.0,-0.9943417731265072,-63.138818762073804,-1.0549096275229566
63862.64484669731,6.188708381414472,PPG_1,PPG_3,110807.0,110807.0,-38.05445211965707,-63.861096485148956,-1.0669456385618736
63862.65484461069,6.1987062947955565,PPG_1,PPG_3,110806.0,110806.0,-39.114562466187635,-63.9814569986938,-1.0689513220038431
63862.664842524064,6.208704208169365,PPG_1,PPG_3,110818.0,110818.0,-27.17467281273275,-63.429004400311804,-1.0597452709791848
63862.674840437445,6.21870212155045,PPG_1,PPG_3,110814.0,110814.0,-31.234783159263316,-62.17769302663699,-1.0388934614528578
63862.684838350826,6.228700034931535,PPG_1,PPG_3,110813.0,110813.0,-32.29489350579388,-60.250202316468176,-1.0067738228099428
63862.6948362642,6.238697948305344,PPG_1,PPG_3,110834.0,110834.0,-11.355003852338996,-57.71512865966477,-0.9645294429225982
63862.70483417758,6.2486958616864285,PPG_1,PPG_3,110829.0,110829.0,-16.41511419886956,-54.67799788604647,-0.9139188005754021
63862.71483209096,6.258693775067513,PPG_1,PPG_3,110856.0,110856.0,10.524775454585324,-51.26773345571859,-0.8570902718561509
63862.724830004336,6.268691688441322,PPG_1,PPG_3,110843.0,110843.0,-2.53533489194524,-47.62149384581058,-0.7963294608919976
63862.73482791772,6.278689601822407,PPG_1,PPG_3,110845.0,110845.0,-0.5954452384758042,-43.871161686819526,-0.7338340552839746
63862.7448258311,6.288687515203492,PPG_1,PPG_3,110849.0,110849.0,3.3444444149790797,-40.13344685197326,-0.6715489043298564
63862.75482374447,6.298685428577301,PPG_1,PPG_3,110867.0,110867.0,21.284334068448516,-36.50354987852281,-0.6110604264953623
63862.76482165785,6.308683341958385,PPG_1,PPG_3,110859.0,110859.0,13.224223721917951,-33.051701101612764,-0.5535389376604674
63862.774819571234,6.31868125533947,PPG_1,PPG_3,110872.0,110872.0,26.164113375372835,-29.822844912412368,-0.4997333896078008
63862.78481748461,6.328679168713279,PPG_1,PPG_3,110859.0,110859.0,13.104003028842271,-26.840214830533696,-0.45003094490598394
63862.79481539799,6.338677082094364,PPG_1,PPG_3,110845.0,110845.0,-0.9561073177028447,-24.112395228511197,-0.4045746532425344
63862.80481331137,6.348674995475449,PPG_1,PPG_3,110858.0,110858.0,11.983782335766591,-21.641296832124286,-0.3633963548858678
63862.81481122474,6.3586729088492575,PPG_1,PPG_3,110878.0,110878.0,31.923671989236027,-19.42695991305925,-0.326496720921974
63862.824809138125,6.368670822230342,PPG_1,PPG_3,110884.0,110884.0,37.86356164269091,-17.466447566721442,-0.2938268108740917
63862.834807051506,6.378668735611427,PPG_1,PPG_3,110903.0,110903.0,56.80345129616035,-15.748096941875913,-0.2651922753919301
63862.84480496488,6.388666648985236,PPG_1,PPG_3,110860.0,110860.0,13.743340949629783,-14.245456324777637,-0.2401523240309523
63862.85480287826,6.398664562366321,PPG_1,PPG_3,110884.0,110884.0,37.68323060308467,-12.914366795362268,-0.21797109407190102
63862.86480079164,6.4086624757474056,PPG_1,PPG_3,110868.0,110868.0,21.623120256554103,-11.692875646304712,-0.19761620773897975
63862.874798705016,6.418660389121214,PPG_1,PPG_3,110912.0,110912.0,65.56300991000899,-10.501167086484022,-0.17775761744478483
63862.8847966184,6.428658302502299,PPG_1,PPG_3,110920.0,110920.0,73.50289956347842,-9.24044732948145,-0.15674902694353163
63862.89479453178,6.438656215883384,PPG_1,PPG_3,110899.0,110899.0,52.44278921694786,-7.794019167403895,-0.13264579799214646
63862.90479244515,6.448654129257193,PPG_1,PPG_3,110869.0,110869.0,22.382678870402742,-6.03549005589183,-0.10334172959543438
63862.91479035853,6.458652042638278,PPG_1,PPG_3,110888.0,110888.0,41.32256852387218,-3.845026200810575,-0.06683991554549032
63862.924788271914,6.468649956019362,PPG_1,PPG_3,110878.0,110878.0,31.262458177341614,-1.1284437568410253,-0.0215708794958447
63862.93478618529,6.478647869393171,PPG_1,PPG_3,110897.0,110897.0,50.2023478307965,2.167907065505316,0.033359396793148414
63862.94478409867,6.488645782774256,PPG_1,PPG_3,110888.0,110888.0,41.142237484265934,6.050633607415874,0.09806101782690164
63862.95478201205,6.498643696155341,PPG_1,PPG_3,110941.0,110941.0,94.08212713773537,10.481820945339141,0.17190217062845822
63862.96477992543,6.508641609536426,PPG_1,PPG_3,110910.0,110910.0,63.022016791190254,15.388568071731369,0.25366803532519505
63862.974777838805,6.5186395229102345,PPG_1,PPG_3,110938.0,110938.0,90.96190644465969,20.67550492823968,0.34176936855760454
63862.984775752186,6.528637436291319,PPG_1,PPG_3,110946.0,110946.0,98.90179609811457,26.236069119104805,0.4344304182420821
63862.99477366557,6.538635349672404,PPG_1,PPG_3,110938.0,110938.0,90.84168575158401,31.959820405434872,0.5298108120509533
63863.00477157894,6.548633263046213,PPG_1,PPG_3,110930.0,110930.0,82.78157540505345,37.73460423844157,0.6260416104556202
63863.01476949232,6.558631176427298,PPG_1,PPG_3,110946.0,110946.0,98.72146505850833,43.44425667325623,0.721187061489636
63863.0247674057,6.568629089808383,PPG_1,PPG_3,110944.0,110944.0,96.66135471197776,48.9647467202843,0.8131803170248709
63863.03476531908,6.578627003182191,PPG_1,PPG_3,110961.0,110961.0,113.6012443654472,54.16201798979367,0.899787466011454
63863.04476323246,6.588624916563276,PPG_1,PPG_3,110961.0,110961.0,113.54113401890208,58.89307314131428,0.978625605705126
63863.05476114584,6.598622829944361,PPG_1,PPG_3,110971.0,110971.0,123.48102367237152,63.01008889237988,1.04723141403083
63863.06475905921,6.60862074331817,PPG_1,PPG_3,110963.0,110963.0,115.4209133258264,66.36666449320548,1.1031652739489934
63863.07475697259,6.618618656699255,PPG_1,PPG_3,111002.0,111002.0,154.36080297929584,68.82535203354728,1.1441367582290396
63863.084754885975,6.628616570080339,PPG_1,PPG_3,110943.0,110943.0,95.30069263276528,70.26558850425347,1.1681368090491957
63863.09475279935,6.638614483454148,PPG_1,PPG_3,110992.0,110992.0,144.24058228622016,70.59128068153812,1.173564132246147
63863.10475071273,6.648612396835233,PPG_1,PPG_3,110995.0,110995.0,147.1804719396896,69.73811225768164,1.1593469630887319
63863.11474862611,6.658610310216318,PPG_1,PPG_3,110966.0,110966.0,118.12036159315903,67.68044041615234,1.125057990567648
63863.124746539484,6.668608223590127,PPG_1,PPG_3,110969.0,110969.0,121.06025124661392,64.4361939050015,1.070995978721388
63863.134744452866,6.6786061369712115,PPG_1,PPG_3,110976.0,110976.0,128.00014090008335,60.06868405470086,0.9982159453749536
63863.14474236625,6.688604050352296,PPG_1,PPG_3,110975.0,110975.0,126.94003055353824,54.6861055266463,0.9085208426301604
63863.15474027962,6.698601963726105,PPG_1,PPG_3,110977.0,110977.0,128.87992020700767,48.43891484214808,0.8044178727632424
63863.164738193,6.70859987710719,PPG_1,PPG_3,110940.0,110940.0,91.81980986047711,41.51326385613903,0.6890090638574518
63863.17473610638,6.718597790488275,PPG_1,PPG_3,110917.0,110917.0,68.75969951393199,34.11927813297,0.5657959410620312
63863.18473401976,6.728595703862084,PPG_1,PPG_3,110928.0,110928.0,79.69958916740143,26.476694216820693,0.4384401865622488
63863.19473193314,6.738593617243168,PPG_1,PPG_3,110954.0,110954.0,105.63947882087086,18.803048623109973,0.3105668213400635
63863.20472984652,6.748591530624253,PPG_1,PPG_3,110934.0,110934.0,85.57936847432575,11.307050664746159,0.18565377017957937
63863.21472775989,6.758589443998062,PPG_1,PPG_3,110920.0,110920.0,71.51925812779518,4.1842335498727845,0.06695939171003719
63863.22472567327,6.768587357379147,PPG_1,PPG_3,110900.0,110900.0,51.45914778126462,-2.389789927694168,-0.04258990853587535
63863.234723586655,6.778585270760232,PPG_1,PPG_3,110887.0,110887.0,38.3990374347195,-8.269447651790559,-0.14056832184063286
63863.24472150003,6.7885831841340405,PPG_1,PPG_3,110923.0,110923.0,74.33892708818894,-13.349584766859913,-0.22522355132197125
63863.25471941341,6.798581097515125,PPG_1,PPG_3,110862.0,110862.0,13.278816741643823,-17.5727454493495,-0.2955981551200109
63863.26471732679,6.80857901089621,PPG_1,PPG_3,110899.0,110899.0,50.21870639511326,-20.932214086676076,-0.3515802244985375
63863.27471524016,6.818576924270019,PPG_1,PPG_3,110865.0,110865.0,16.158596048582694,-23.470437189562173,-0.39387708664666155
63863.284713153545,6.828574837651104,PPG_1,PPG_3,110903.0,110903.0,54.09848570203758,-25.271792911779677,-0.4238948162054754
63863.29471106693,6.8385727510321885,PPG_1,PPG_3,110890.0,110890.0,41.038375355507014,-26.4495324300811,-0.4435206268741087
63863.3047089803,6.848570664405997,PPG_1,PPG_3,110915.0,110915.0,65.97826500897645,-27.129332636266927,-0.4548487940382221
63863.31470689368,6.858568577787082,PPG_1,PPG_3,110869.0,110869.0,19.918154662431334,-27.433837657475994,-0.45992305519786825
63863.32470480706,6.868566491168167,PPG_1,PPG_3,110886.0,110886.0,36.85804431590077,-27.47167261246446,-0.4605535355814515
63863.33470272043,6.878564404541976,PPG_1,PPG_3,110901.0,110901.0,51.797933969355654,-27.331135331098594,-0.4582116271771646
63863.34470063382,6.888562317923061,PPG_1,PPG_3,110885.0,110885.0,35.73782362282509,-27.076809836773435,-0.45397355592094085
63863.3546985472,6.898560231304145,PPG_1,PPG_3,110887.0,110887.0,37.677713276294526,-26.74850511287766,-0.44850269733746634
63863.36469646057,6.908558144677954,PPG_1,PPG_3,110888.0,110888.0,38.61760292974941,-26.363042347451284,-0.44207935912344737
63863.37469437395,6.918556058059039,PPG_1,PPG_3,110874.0,110874.0,24.557492583218846,-25.918436930018405,-0.434670469798437
63863.384692287334,6.928553971440124,PPG_1,PPG_3,110905.0,110905.0,55.49738223668828,-25.398924133300927,-0.42601332649138873
63863.39469020071,6.938551884813933,PPG_1,PPG_3,110877.0,110877.0,27.437271890143165,-24.779621088651915,-0.4156932819383121
63863.40468811409,6.9485497981950175,PPG_1,PPG_3,110884.0,110884.0,34.3771615436126,-24.03060780351431,-0.4032117504162974
63863.41468602747,6.958547711576102,PPG_1,PPG_3,110932.0,110932.0,82.31705119706749,-23.120660573624562,-0.38804842119557165
63863.42468394085,6.968545624949911,PPG_1,PPG_3,110906.0,110906.0,56.25694085053692,-22.021689258255535,-0.36973520114093866
63863.434681854225,6.978543538330996,PPG_1,PPG_3,110844.0,110844.0,-5.803169495993643,-20.716529465484452,-0.3479860634180401
63863.44467976761,6.988541451712081,PPG_1,PPG_3,110860.0,110860.0,10.13672015746124,-19.21070103026262,-0.3228929903659186
63863.45467768098,6.99853936508589,PPG_1,PPG_3,110907.0,110907.0,57.07660981093068,-17.542138717045404,-0.2950881255896678
63863.46467559436,7.008537278466974,PPG_1,PPG_3,110897.0,110897.0,47.01649946440011,-15.78082199833944,-0.26573760460292556
63863.47467350774,7.018535191848059,PPG_1,PPG_3,110922.0,110922.0,71.956389117855,-14.017131340144527,-0.23634752437050552
63863.48467142112,7.028533105221868,PPG_1,PPG_3,110916.0,110916.0,65.89627877132443,-12.345155365543025,-0.208485774458812
63863.4946693345,7.038531018602953,PPG_1,PPG_3,110888.0,110888.0,37.836168424779316,-10.84802390047874,-0.18353762741711172
63863.50466724788,7.048528931984038,PPG_1,PPG_3,110902.0,110902.0,51.77605807824875,-9.588520505826793,-0.16254930633607143
63863.51466516125,7.0585268453578465,PPG_1,PPG_3,110892.0,110892.0,41.71594773171819,-8.603762827342004,-0.14613933838297186
63863.52466307463,7.068524758738931,PPG_1,PPG_3,110931.0,110931.0,80.65583738517307,-7.9008138769177245,-0.134425421344136
63863.534660988014,7.078522672120016,PPG_1,PPG_3,110928.0,110928.0,77.59572703864251,-7.45227086279828,-0.1269509160438958
63863.54465890139,7.088520585493825,PPG_1,PPG_3,110906.0,110906.0,55.535616692111944,-7.194802090897228,-0.12266046531867666
63863.55465681477,7.09851849887491,PPG_1,PPG_3,110898.0,110898.0,47.47550634556683,-7.034610918783255,-0.11999104515756201
63863.56465472815,7.1085164122559945,PPG_1,PPG_3,110895.0,110895.0,44.415395999036264,-6.860224384338006,-0.11708507396868864
63863.57465264153,7.118514325637079,PPG_1,PPG_3,110893.0,110893.0,42.3552856525057,-6.558563948890361,-0.11205821488795452
63863.584650554905,7.128512239010888,PPG_1,PPG_3,110895.0,110895.0,44.29517530596058,-6.029114703383453,-0.10323549094135943
63863.594648468286,7.138510152391973,PPG_1,PPG_3,110909.0,110909.0,58.23506495943002,-5.192824214289751,-0.08929957510607957
63863.60464638167,7.148508065773058,PPG_1,PPG_3,110943.0,110943.0,92.1749546128849,-3.995192020333198,-0.06934227357717258
63863.61464429504,7.158505979146867,PPG_1,PPG_3,110889.0,110889.0,38.11484426635434,-2.406135154240866,-0.04286228482669054
63863.62464220842,7.168503892527951,PPG_1,PPG_3,110916.0,110916.0,65.05473391982378,-0.42058975095587725,-0.009775224782167986
63863.6346401218,7.178501805909036,PPG_1,PPG_3,110900.0,110900.0,48.99462357327866,1.938698477595844,0.029539872798212897
63863.64463803518,7.188499719282845,PPG_1,PPG_3,110901.0,110901.0,49.934513226748095,4.618497251215177,0.07419594703518884
63863.65463594856,7.19849763266393,PPG_1,PPG_3,110911.0,110911.0,59.87440288021753,7.5358941317092105,0.12281134792146815
63863.66463386194,7.208495546045015,PPG_1,PPG_3,110919.0,110919.0,67.81429253367241,10.584689991823513,0.17361637686726802
63863.67463177531,7.218493459418824,PPG_1,PPG_3,110946.0,110946.0,94.75418218714185,13.647391443859576,0.22465312811672747
63863.684629688694,7.228491372799908,PPG_1,PPG_3,110937.0,110937.0,85.69407184059673,16.6100829634532,0.2740233173050539
63863.694627602075,7.238489286180993,PPG_1,PPG_3,110916.0,110916.0,64.63396149406617,19.375611000841705,0.32010798103346655
63863.70462551545,7.248487199554802,PPG_1,PPG_3,110922.0,110922.0,70.5738511475356,21.871971573206974,0.361707247418398
63863.71462342883,7.258485112935887,PPG_1,PPG_3,110944.0,110944.0,92.51374080099049,24.05665491270178,0.39811273515619594
63863.72462134221,7.2684830263169715,PPG_1,PPG_3,110948.0,110948.0,96.45363045445993,25.919342707459816,0.42915250025418517
63863.734619255585,7.27848093969078,PPG_1,PPG_3,110933.0,110933.0,81.39352010792936,27.482985215108126,0.455208985013049
63863.744617168966,7.288478853071865,PPG_1,PPG_3,110942.0,110942.0,90.33340976138425,28.801048637023957,0.4771731483664863
63863.75461508235,7.29847676645295,PPG_1,PPG_3,110926.0,110926.0,74.27329941485368,29.949872971471397,0.4963171174097443
63863.76461299572,7.308474679826759,PPG_1,PPG_3,110909.0,110909.0,57.213189068308566,31.017818705670802,0.5141133282510009
63863.7746109091,7.318472593207844,PPG_1,PPG_3,110959.0,110959.0,107.153078721778,32.09466668500446,0.5320578857978028
63863.78460882248,7.328470506588928,PPG_1,PPG_3,110945.0,110945.0,93.09296837524744,33.26419187935518,0.5515468132557413
63863.79460673586,7.338468419962737,PPG_1,PPG_3,110935.0,110935.0,83.03285802870232,34.599648171426715,0.5738008107969217
63863.80460464924,7.348466333343822,PPG_1,PPG_3,110914.0,110914.0,61.97274768217176,36.159642289228486,0.5997964989133524
63863.81460256262,7.358464246724907,PPG_1,PPG_3,110948.0,110948.0,95.9126373356412,37.984038375012574,0.6301981722951149
63863.82460047599,7.368462160098716,PPG_1,PPG_3,110950.0,110950.0,97.85252698909608,40.092500090684865,0.6653335055252727
63863.834598389374,7.3784600734798,PPG_1,PPG_3,110952.0,110952.0,99.79241664256551,42.486955593060046,0.7052346293424114
63863.844596302755,7.388457986860885,PPG_1,PPG_3,110943.0,110943.0,90.73230629603495,45.15583640327019,0.7497087670141062
63863.85459421613,7.398455900234694,PPG_1,PPG_3,110954.0,110954.0,101.67219594948983,48.0773560587755,0.7983928696808243
63863.86459212951,7.408453813615779,PPG_1,PPG_3,110962.0,110962.0,109.61208560295927,51.221041924872715,0.8507791424100136
63863.87459004289,7.418451726996864,PPG_1,PPG_3,110954.0,110954.0,101.55197525641415,54.54773884983034,0.9062151051051476
63863.884587956265,7.428449640370673,PPG_1,PPG_3,110965.0,110965.0,112.49186490988359,58.00785513103901,0.963874363346219
63863.894585869646,7.438447553751757,PPG_1,PPG_3,110961.0,110961.0,108.43175456335302,61.537569272111845,1.0226933979210302
63863.90458378303,7.448445467132842,PPG_1,PPG_3,110963.0,110963.0,110.37164421680791,65.05339274059665,1.081280958807444
63863.9145816964,7.458443380506651,PPG_1,PPG_3,110970.0,110970.0,117.31153387027734,68.44600769181503,1.1378153772162058
63863.92457960978,7.468441293887736,PPG_1,PPG_3,110941.0,110941.0,88.25142352374678,71.57464102617257,1.1899508150762108
63863.93457752316,7.478439207268821,PPG_1,PPG_3,110966.0,110966.0,113.19131317720166,74.26399831391115,1.2347661720624385
63863.94457543654,7.488437120642629,PPG_1,PPG_3,110966.0,110966.0,113.1312028306711,76.30660513786681,1.268804101650832
63863.95457334992,7.498435034023714,PPG_1,PPG_3,110983.0,110983.0,130.07109248412598,77.4725365648016,1.288233142692635
63863.9645712633,7.508432947404799,PPG_1,PPG_3,110983.0,110983.0,130.01098213759542,77.52550440975506,1.2891157970320948
63863.97456917667,7.518430860778608,PPG_1,PPG_3,110971.0,110971.0,117.95087179106486,76.24158693033618,1.2677206404854544
63863.984567090054,7.528428774159693,PPG_1,PPG_3,110950.0,110950.0,96.89076144451974,73.4269669422757,1.220817910186064
63863.994565003435,7.5384266875407775,PPG_1,PPG_3,110961.0,110961.0,107.83065109798918,68.93369033695943,1.1459421039764544
63864.00456291681,7.548424600914586,PPG_1,PPG_3,110988.0,110988.0,134.7705407514586,62.674712509681086,1.0416427135692283
63864.01456083019,7.558422514295671,PPG_1,PPG_3,110950.0,110950.0,96.7104304049135,54.63815306738735,0.9077217645047453
63864.02455874357,7.568420427676756,PPG_1,PPG_3,110922.0,110922.0,68.65032005838293,44.89750213100098,0.7454038936206354
63864.034556656945,7.578418341050565,PPG_1,PPG_3,110951.0,110951.0,97.59020971183782,33.614798534298245,0.557389310448159
63864.044554570326,7.58841625443165,PPG_1,PPG_3,110919.0,110919.0,65.53009936530725,21.03691044333796,0.34779181758279165
63864.05455248371,7.598414167812734,PPG_1,PPG_3,110923.0,110923.0,69.46998901877669,7.485497310705056,0.12197153703632861
63864.06455039708,7.608412081186543,PPG_1,PPG_3,110863.0,110863.0,9.40987867223157,-6.660548363082735,-0.11375767964479452
63864.07454831046,7.618409994567628,PPG_1,PPG_3,110855.0,110855.0,1.3497683257010067,-20.99033712964548,-0.3525487848797392
63864.08454622384,7.628407907948713,PPG_1,PPG_3,110853.0,110853.0,-0.7103420208295574,-35.09013516850817,-0.5875073325692832
63864.09454413722,7.638405821322522,PPG_1,PPG_3,110792.0,110792.0,-61.77045236737467,-48.570355667655335,-0.81214126152944
63864.1045420506,7.6484037347036065,PPG_1,PPG_3,110866.0,110866.0,12.169437286094762,-61.085416294109564,-1.0206917996955505
63864.11453996398,7.658401648084691,PPG_1,PPG_3,110799.0,110799.0,-54.8906730604358,-72.34455704167904,-1.2083137323636355
63864.12453787736,7.668399561465776,PPG_1,PPG_3,110828.0,110828.0,-25.950783406980918,-82.11547568780017,-1.3711359833176986
63864.134535790734,7.678397474839585,PPG_1,PPG_3,110797.0,110797.0,-57.01089375351148,-90.22502989176272,-1.5062733145703078
63864.144533704115,7.68839538822067,PPG_1,PPG_3,110786.0,110786.0,-68.0710041000566,-96.5603600125953,-1.6118450369610715
63864.154531617496,7.698393301601755,PPG_1,PPG_3,110796.0,110796.0,-58.13111444658716,-101.07124351138347,-1.6870142438355757
63864.16452953087,7.708391214975563,PPG_1,PPG_3,110750.0,110750.0,-104.19122479311773,-103.77265605545627,-1.7320304891971199
63864.17452744425,7.718389128356648,PPG_1,PPG_3,110783.0,110783.0,-71.25133513966284,-104.7454586065593,-1.7482412373203098
63864.18452535763,7.728387041737733,PPG_1,PPG_3,110788.0,110788.0,-66.3114454861934,-104.13274116444305,-1.738030935020455
63864.194523271006,7.738384955111542,PPG_1,PPG_3,110791.0,110791.0,-63.37155583272397,-102.13084483002788,-1.7046714036241353
63864.20452118439,7.748382868492627,PPG_1,PPG_3,110784.0,110784.0,-70.43166617926909,-98.97712224511814,-1.6521178793591964
63864.21451909777,7.758380781873711,PPG_1,PPG_3,110766.0,110766.0,-88.49177652579965,-94.93754482026486,-1.5848025006277466
63864.22451701114,7.76837869524752,PPG_1,PPG_3,110792.0,110792.0,-62.55188687234477,-90.29473175278034,-1.5074348239756779
63864.23451492452,7.778376608628605,PPG_1,PPG_3,110798.0,110798.0,-56.61199721887533,-85.33432758671482,-1.4247748202224662
63864.244512837904,7.78837452200969,PPG_1,PPG_3,110799.0,110799.0,-55.672107565405895,-80.32830893317404,-1.3413546982249185
63864.25451075128,7.798372435383499,PPG_1,PPG_3,110829.0,110829.0,-25.73221791195101,-75.51658310432727,-1.261172265149636
63864.26450866466,7.808370348764584,PPG_1,PPG_3,110809.0,110809.0,-45.792328258481575,-71.09011962443162,-1.1874098305551488
63864.27450657804,7.818368262145668,PPG_1,PPG_3,110814.0,110814.0,-40.85243860501214,-67.1788748061684,-1.122232981948918
63864.284504491414,7.828366175519477,PPG_1,PPG_3,110843.0,110843.0,-11.912548951557255,-63.84640858321313,-1.0667008798711506
63864.294502404795,7.838364088900562,PPG_1,PPG_3,110802.0,110802.0,-52.97265929808782,-61.091572480778204,-1.0207943861776392
63864.304500318176,7.848362002281647,PPG_1,PPG_3,110811.0,110811.0,-44.032769644632936,-58.85680002236591,-0.9835542150916498
63864.31449823155,7.858359915655456,PPG_1,PPG_3,110830.0,110830.0,-25.0928799911635,-57.04120272893566,-0.9532991644818718
63864.32449614493,7.86835782903654,PPG_1,PPG_3,110821.0,110821.0,-34.152990337694064,-55.515427669582586,-0.9278737015739335
63864.33449405831,7.878355742417625,PPG_1,PPG_3,110804.0,110804.0,-51.21310068423918,-54.136206107245414,-0.9048904010801495
63864.344491971686,7.888353655791434,PPG_1,PPG_3,110843.0,110843.0,-12.273211030769744,-52.75995856086052,-0.8819566594855092
63864.35448988507,7.898351569172519,PPG_1,PPG_3,110828.0,110828.0,-27.333321377300308,-51.25488526725772,-0.8568761700872541
63864.36448779845,7.908349482553604,PPG_1,PPG_3,110808.0,110808.0,-47.393431723845424,-49.511470287751585,-0.8278239630644365
63864.37448571182,7.918347395927412,PPG_1,PPG_3,110834.0,110834.0,-21.45354207037599,-47.451802540061756,-0.7935017308320071
63864.3844836252,7.928345309308497,PPG_1,PPG_3,110801.0,110801.0,-54.513652416921104,-45.036646679526676,-0.7532556569612224
63864.394481538584,7.938343222689582,PPG_1,PPG_3,110840.0,110840.0,-15.573762763451668,-42.267723646599244,-0.7071144191443697
63864.40447945196,7.948341136063391,PPG_1,PPG_3,110845.0,110845.0,-10.633873109982233,-39.18348217397611,-0.6557187257355692
63864.41447736534,7.958339049444476,PPG_1,PPG_3,110822.0,110822.0,-33.69398345652735,-35.84907078243068,-0.600154209435577
63864.42447527872,7.96833696282556,PPG_1,PPG_3,110857.0,110857.0,1.2459061969420873,-32.3430469172087,-0.5417299487995796
63864.434473192094,7.978334876199369,PPG_1,PPG_3,110862.0,110862.0,6.185795850411523,-28.743273996935912,-0.48174345714713135
63864.444471105475,7.988332789580454,PPG_1,PPG_3,110844.0,110844.0,-11.874314496133593,-25.114107348008147,-0.421267149415267
63864.454469018856,7.998330702961539,PPG_1,PPG_3,110858.0,110858.0,2.065575157335843,-21.49723141687132,-0.3609956537803037
63864.46446693223,8.008328616335348,PPG_1,PPG_3,110888.0,110888.0,32.00546481080528,-17.907681163205098,-0.30117951229122464
63864.47446484561,8.018326529716433,PPG_1,PPG_3,110861.0,110861.0,4.945354464260163,-14.335686279363689,-0.24165591287876406
63864.48446275899,8.028324443097517,PPG_1,PPG_3,110828.0,110828.0,-28.1147558822704,-10.755199192362388,-0.18199079968606124
63864.494460672366,8.038322356471326,PPG_1,PPG_3,110841.0,110841.0,-15.174866228815517,-7.13783742877812,-0.12171120815596834
63864.50445858575,8.048320269852411,PPG_1,PPG_3,110855.0,110855.0,-1.2349765753460815,-3.4661546962529184,-0.06052641387500825
63864.51445649913,8.058318183233496,PPG_1,PPG_3,110899.0,110899.0,42.704913078123354,0.2608168766463891,0.0015797117329633052
63864.5244544125,8.068316096607305,PPG_1,PPG_3,110879.0,110879.0,22.64480273157824,4.031117360358587,0.06440786881468409
63864.53445232588,8.07831400998839,PPG_1,PPG_3,110882.0,110882.0,25.584692385047674,7.827517392796481,0.12767094787521902
63864.544450239264,8.088311923369474,PPG_1,PPG_3,110900.0,110900.0,43.52458203851711,11.63345518532085,0.19109296384052044
63864.55444815264,8.098309836743283,PPG_1,PPG_3,110871.0,110871.0,14.464471691971994,15.434795329240819,0.25443836474822323
63864.56444606602,8.108307750124368,PPG_1,PPG_3,110887.0,110887.0,30.40436134544143,19.217965813012015,0.31748098706655886
63864.5744439794,8.118305663505453,PPG_1,PPG_3,110898.0,110898.0,41.344250998896314,22.966488731171847,0.3799462435478388
63864.58444189277,8.128303576879262,PPG_1,PPG_3,110890.0,110890.0,33.28414065236575,26.65814186212492,0.44146382385867405
63864.594439806155,8.138301490260346,PPG_1,PPG_3,110900.0,110900.0,43.224030305835186,30.26381205328177,0.5015485874295166
63864.604437719536,8.148299403641431,PPG_1,PPG_3,110900.0,110900.0,43.16391995929007,33.747989290924714,0.5596087966178453
63864.61443563291,8.15829731701524,PPG_1,PPG_3,110902.0,110902.0,45.103809612759505,37.07090125874626,0.6149816869179486
63864.62443354629,8.168295230396325,PPG_1,PPG_3,110913.0,110913.0,56.04369926622894,40.19248120209556,0.6669995873137277
63864.63443145967,8.17829314377741,PPG_1,PPG_3,110933.0,110933.0,75.98358891968383,43.07783391961656,0.7150810053746276
63864.644429373046,8.188291057151218,PPG_1,PPG_3,110913.0,110913.0,55.92347857315326,45.70263463180569,0.7588205938148734
63864.65442728643,8.198288970532303,PPG_1,PPG_3,110894.0,110894.0,36.863368226608145,48.05626305877299,0.7980413766570701
63864.66442519981,8.208286883913388,PPG_1,PPG_3,110936.0,110936.0,78.80325788007758,50.142273359620944,0.8328025802857851
63864.67442311318,8.218284797287197,PPG_1,PPG_3,110901.0,110901.0,43.74314753354702,51.978345354739304,0.8633988206175546
63864.68442102656,8.228282710668282,PPG_1,PPG_3,110927.0,110927.0,69.6830371870019,53.59776708712447,0.8903848084515189
63864.694418939944,8.238280624049366,PPG_1,PPG_3,110940.0,110940.0,82.62292684047134,55.052581862914955,0.914627791644248
63864.70441685332,8.248278537423175,PPG_1,PPG_3,110923.0,110923.0,65.56281649394077,56.41706363542928,0.9373654687893513
63864.7144147667,8.25827645080426,PPG_1,PPG_3,110950.0,110950.0,92.50270614739566,57.78919840721487,0.9602306752500724
63864.72441268008,8.268274364185345,PPG_1,PPG_3,110943.0,110943.0,85.44259580086509,59.28758009239107,0.9851996559165508
63864.73441059346,8.27827227756643,PPG_1,PPG_3,110926.0,110926.0,68.38248545433453,61.04183063495318,1.014432426388009
63864.744408506835,8.288270190940239,PPG_1,PPG_3,110911.0,110911.0,53.32237510778941,63.17630979972311,1.0500013134916135
63864.754406420216,8.298268104321323,PPG_1,PPG_3,110932.0,110932.0,74.26226476125885,65.78994852337237,1.0935548989402262
63864.7644043336,8.308266017702408,PPG_1,PPG_3,110924.0,110924.0,66.20215441471373,68.93755872185118,1.146006566608725
63864.77440224697,8.318263931076217,PPG_1,PPG_3,110924.0,110924.0,66.14204406818317,72.61724565389807,1.2073247425941498
63864.78440016035,8.328261844457302,PPG_1,PPG_3,110981.0,110981.0,123.0819337216526,76.76577513250201,1.2764556945874643
63864.79439807373,8.338259757838387,PPG_1,PPG_3,110932.0,110932.0,74.02182337510749,81.26097164431594,1.3513634940526613
63864.80439598711,8.348257671212195,PPG_1,PPG_3,110948.0,110948.0,89.96171302857692,85.92826099325549,1.429139042613793
63864.81439390049,8.35825558459328,PPG_1,PPG_3,110975.0,110975.0,116.90160268204636,90.54908486915447,1.5061402921365108
63864.82439181387,8.368253497974365,PPG_1,PPG_3,110944.0,110944.0,85.84149233550124,94.87122016616756,1.5781642054936291
63864.83438972724,8.378251411348174,PPG_1,PPG_3,110994.0,110994.0,135.78138198897068,98.62140597188498,1.6406571722757535
63864.84438764062,8.388249324729259,PPG_1,PPG_3,110977.0,110977.0,118.72127164242556,101.51918549803912,1.68894567024665
63864.854385554005,8.398247238110343,PPG_1,PPG_3,110939.0,110939.0,80.661161295895,103.28999323205012,1.7184543491847348
63864.86438346738,8.408245151484152,PPG_1,PPG_3,110983.0,110983.0,124.60105094936443,103.67666878375032,1.7248978972273463
63864.87438138076,8.418243064865237,PPG_1,PPG_3,110969.0,110969.0,110.54094060281932,102.45107284285378,1.7044746087849483
63864.88437929414,8.428240978246322,PPG_1,PPG_3,110979.0,110979.0,120.48083025628875,99.42762988030177,1.6540920596487556
63864.894377207514,8.43823889162013,PPG_1,PPG_3,110966.0,110966.0,107.42071990975819,94.47764658203532,1.5716057088767414
63864.904375120896,8.448236805001216,PPG_1,PPG_3,110954.0,110954.0,95.36060956321307,87.54150250078982,1.4560220433942304
63864.91437303428,8.4582347183823,PPG_1,PPG_3,110930.0,110930.0,71.30049921668251,78.63718980692244,1.3076408841068305
63864.92437094765,8.46823263175611,PPG_1,PPG_3,110948.0,110948.0,89.2403888701374,67.86599222181158,1.1281500194505232
63864.93436886103,8.478230545137194,PPG_1,PPG_3,110969.0,110969.0,110.18027852360683,55.4165189011766,0.9206924258840224
63864.94436677441,8.488228458518279,PPG_1,PPG_3,110903.0,110903.0,44.120168177076266,41.565462269347,0.6898788964128714
63864.95436468779,8.498226371892088,PPG_1,PPG_3,110914.0,110914.0,55.06005783053115,26.670572868538358,0.4416709737203366
63864.96436260117,8.508224285273172,PPG_1,PPG_3,110875.0,110875.0,15.999947484000586,11.15312387165711,0.18308873941424303
63864.97436051455,8.518222198654257,PPG_1,PPG_3,110868.0,110868.0,8.939837137470022,-4.528329952274968,-0.07822646566715724
63864.98435842792,8.528220112028066,PPG_1,PPG_3,110840.0,110840.0,-19.120273209075094,-19.90882303426788,-0.33452647133629004
63864.9943563413,8.53821802540915,PPG_1,PPG_3,110812.0,110812.0,-47.18038355560566,-34.54840389688776,-0.5784799413635998
63865.004354254685,8.548215938790236,PPG_1,PPG_3,110816.0,110816.0,-43.240493902150774,-48.05994501377017,-0.8036357960162757
63865.01435216806,8.558213852164045,PPG_1,PPG_3,110820.0,110820.0,-39.30060424868134,-60.12943961774893,-1.004761437368113
63865.02435008144,8.56821176554513,PPG_1,PPG_3,110780.0,110780.0,-79.3607145952119,-70.52707580464156,-1.1780272877826343
63865.03434799482,8.578209678926214,PPG_1,PPG_3,110798.0,110798.0,-61.42082494175702,-79.11008598569745,-1.3210542730902997
63865.044345908194,8.588207592300023,PPG_1,PPG_3,110793.0,110793.0,-66.48093528828758,-85.81905150275107,-1.4328522428230135
63865.054343821575,8.598205505681108,PPG_1,PPG_3,110784.0,110784.0,-75.54104563481815,-90.6691052233313,-1.513673370562778
63865.06434173496,8.608203419062193,PPG_1,PPG_3,110781.0,110781.0,-78.60115598136326,-93.73815293603886,-1.5648158756809472
63865.07433964833,8.618201332436001,PPG_1,PPG_3,110797.0,110797.0,-62.66126632789383,-95.15453237906668,-1.588418373815593
63865.08433756171,8.628199245817086,PPG_1,PPG_3,110782.0,110782.0,-77.72137667442439,-95.08596435094134,-1.5872757585623916
63865.09433547509,8.638197159198171,PPG_1,PPG_3,110746.0,110746.0,-113.78148702096951,-93.73107855783745,-1.564697988486859
63865.104333388466,8.64819507257198,PPG_1,PPG_3,110804.0,110804.0,-55.84159736750007,-91.3131308900953,-1.5244053920371696
63865.11433130185,8.658192985953065,PPG_1,PPG_3,110777.0,110777.0,-82.90170771404519,-88.07344137889876,-1.4704193178808063
63865.12432921523,8.66819089933415,PPG_1,PPG_3,110800.0,110800.0,-59.96181806057575,-84.2629394933461,-1.4069212460268679
63865.1343271286,8.678188812707958,PPG_1,PPG_3,110795.0,110795.0,-65.02192840710632,-80.13302160263721,-1.338100436891626
63865.14432504198,8.688186726089043,PPG_1,PPG_3,110784.0,110784.0,-76.08203875365143,-75.9275975237069,-1.2680213952428985
63865.15432295536,8.698184639470128,PPG_1,PPG_3,110790.0,110790.0,-70.142149100182,-71.87641269873305,-1.2005125911966135
63865.16432086874,8.708182552843937,PPG_1,PPG_3,110812.0,110812.0,-48.20225944671256,-68.18785097458957,-1.139046525982115
63865.17431878212,8.718180466225022,PPG_1,PPG_3,110805.0,110805.0,-55.262369793257676,-65.03939939684194,-1.086580837598531
63865.1843166955,8.728178379606106,PPG_1,PPG_3,110817.0,110817.0,-43.32248013978824,-62.56599307512214,-1.045364080053804
63865.194314608874,8.738176292979915,PPG_1,PPG_3,110828.0,110828.0,-32.382590486333356,-60.848367154925086,-1.0167416210248825
63865.204312522255,8.748174206361,PPG_1,PPG_3,110826.0,110826.0,-34.44270083286392,-59.90404349901939,-1.0010054442279572
63865.21431043564,8.758172119742085,PPG_1,PPG_3,110818.0,110818.0,-42.502811179394484,-59.683483385504495,-0.9973300381117232
63865.22430834901,8.768170033115894,PPG_1,PPG_3,110831.0,110831.0,-29.5629215259396,-60.073227701982404,-1.0038247239446338
63865.23430626239,8.778167946496978,PPG_1,PPG_3,110790.0,110790.0,-70.62303187247016,-60.906170014895736,-1.017704845887648
63865.24430417577,8.788165859878063,PPG_1,PPG_3,110815.0,110815.0,-45.68314221900073,-61.97708755887181,-1.035550578864414
63865.254302089146,8.798163773251872,PPG_1,PPG_3,110823.0,110823.0,-37.743252565545845,-63.06011677474007,-1.053598140323406
63865.26430000253,8.808161686632957,PPG_1,PPG_3,110810.0,110810.0,-50.80336291207641,-63.92545017043844,-1.0680180261515688
63865.27429791591,8.818159600014042,PPG_1,PPG_3,110812.0,110812.0,-48.863473258621525,-64.35491062980473,-1.0751745404182744
63865.28429582928,8.82815751338785,PPG_1,PPG_3,110816.0,110816.0,-44.92358360515209,-64.1571634122721,-1.0718792876130177
63865.29429374266,8.838155426768935,PPG_1,PPG_3,110796.0,110796.0,-64.98369395168265,-63.182225333489406,-1.0556329531303081
63865.304291656044,8.84815334015002,PPG_1,PPG_3,110809.0,110809.0,-52.04380429822777,-61.333622331602065,-1.024827896534404
63865.314289569425,8.858151253531105,PPG_1,PPG_3,110824.0,110824.0,-37.10391464475833,-58.57600288720891,-0.9788750213266024
63865.3242874828,8.868149166904914,PPG_1,PPG_3,110799.0,110799.0,-62.1640249912889,-54.93654065549242,-0.9182271483586271
63865.33428539618,8.878147080285999,PPG_1,PPG_3,110839.0,110839.0,-22.224135337834014,-50.49982390273077,-0.8442938535791201
63865.34428330956,8.888144993667083,PPG_1,PPG_3,110857.0,110857.0,-4.284245684364578,-45.39711782416854,-0.7592625356693853
63865.354281222935,8.898142907040892,PPG_1,PPG_3,110830.0,110830.0,-31.344356030895142,-39.792381624999564,-0.6658654051636791
63865.36427913632,8.908140820421977,PPG_1,PPG_3,110844.0,110844.0,-17.404466377440258,-33.86869892178506,-0.5671533611269676
63865.3742770497,8.918138733803062,PPG_1,PPG_3,110856.0,110856.0,-5.464576723970822,-27.817266018407793,-0.4663124921656324
63865.38427496307,8.92813664717687,PPG_1,PPG_3,110853.0,110853.0,-8.524687070515938,-21.828228853029064,-0.3665113836279391
63865.39427287645,8.938134560557955,PPG_1,PPG_3,110848.0,110848.0,-13.584797417046502,-16.082012336699773,-0.270756630002028
63865.40427078983,8.94813247393904,PPG_1,PPG_3,110864.0,110864.0,2.3550922364229336,-10.740248989921657,-0.18174167002878125
63865.41426870321,8.958130387312849,PPG_1,PPG_3,110884.0,110884.0,22.294981889877818,-5.935240577162039,-0.10167117574323994
63865.42426661659,8.968128300693934,PPG_1,PPG_3,110925.0,110925.0,63.23487154334725,-1.7581492286077436,-0.032064269735241464
63865.43426452997,8.978126214075019,PPG_1,PPG_3,110866.0,110866.0,4.174761196816689,1.7503817347790853,0.026401769098011243
63865.44426244334,8.988124127448827,PPG_1,PPG_3,110881.0,110881.0,19.114650850271573,4.601996365211755,0.07392097684056131
63865.45426035672,8.998122040829912,PPG_1,PPG_3,110882.0,110882.0,20.05454050374101,6.853543964732457,0.11144068829877841
63865.464258270105,9.008119954210995,PPG_1,PPG_3,110899.0,110899.0,36.99443015719589,8.594993247251015,0.14046013901486562
63865.47425618348,9.018117867584806,PPG_1,PPG_3,110861.0,110861.0,-1.065680189334671,9.936587868797487,0.1628164254664756
63865.48425409686,9.02811578096589,PPG_1,PPG_3,110888.0,110888.0,25.874209464134765,10.99731068640946,0.18049227387510805
63865.49425201024,9.038113694346976,PPG_1,PPG_3,110898.0,110898.0,35.81409911758965,11.896342448383947,0.19547370811537723
63865.504249923615,9.048111607720784,PPG_1,PPG_3,110891.0,110891.0,28.753988771059085,12.748920386545752,0.2096810374395639
63865.51424783699,9.05810952110187,PPG_1,PPG_3,110908.0,110908.0,45.69387842452852,13.665733179088871,0.2249587741592951
63865.52424575038,9.068107434482954,PPG_1,PPG_3,110897.0,110897.0,34.633768077983405,14.753185193392632,0.24308003697870853
63865.53424366375,9.078105347856765,PPG_1,PPG_3,110906.0,110906.0,43.57365773145284,16.112186561870693,0.2657263888601759
63865.54424157713,9.088103261237848,PPG_1,PPG_3,110922.0,110922.0,59.513547384907724,17.83411812708826,0.2944205970090564
63865.55423949051,9.098101174618932,PPG_1,PPG_3,110872.0,110872.0,9.45343703837716,19.993234331650132,0.3304000348930999
63865.56423740389,9.10809908799274,PPG_1,PPG_3,110892.0,110892.0,29.393326691846596,22.63607030968672,0.374440162380716
63865.57423531727,9.118097001373826,PPG_1,PPG_3,110902.0,110902.0,39.33321634530148,25.771154904916827,0.4266831038291557
63865.58423323065,9.12809491475491,PPG_1,PPG_3,110897.0,110897.0,34.273105998770916,29.363791170448224,0.4865506705134039
63865.59423114402,9.13809282812872,PPG_1,PPG_3,110931.0,110931.0,68.21299565224035,33.33839990263202,0.5527834131934127
63865.60422905741,9.148090741509805,PPG_1,PPG_3,110933.0,110933.0,70.15288530569524,37.58713118982409,0.6235841246653268
63865.614226970785,9.15808865489089,PPG_1,PPG_3,110923.0,110923.0,60.09277495916467,41.98098472703754,0.6968031483008958
63865.62422488416,9.168086568264698,PPG_1,PPG_3,110910.0,110910.0,47.032664612619556,46.37967306798856,0.7701027389390145
63865.63422279754,9.178084481645785,PPG_1,PPG_3,110949.0,110949.0,85.97255426608899,50.63919296590834,0.8410832314475918
63865.64422071092,9.188082395026868,PPG_1,PPG_3,110933.0,110933.0,69.91244391955843,54.61868581320876,0.9073973628532679
63865.654218624295,9.198080308400677,PPG_1,PPG_3,110931.0,110931.0,67.85233357301331,58.18762177509965,0.9668699884959618
63865.66421653768,9.20807822178176,PPG_1,PPG_3,110926.0,110926.0,62.79222322648275,61.23302200614402,1.0176184327961826
63865.67421445106,9.218076135162846,PPG_1,PPG_3,110944.0,110944.0,80.73211287995218,63.66739041854524,1.0581846639679044
63865.68421236443,9.228074048536657,PPG_1,PPG_3,110987.0,110987.0,123.67200253340707,65.43872757861692,1.0877021652435845
63865.69421027781,9.23807196191774,PPG_1,PPG_3,110954.0,110954.0,90.6118921868765,66.54115750732862,1.1060730195115427
63865.70420819119,9.248069875298825,PPG_1,PPG_3,110932.0,110932.0,68.55178184034594,67.02119896554152,1.1140724137965954
63865.71420610457,9.258067788672632,PPG_1,PPG_3,110942.0,110942.0,78.49167149380082,66.97624305983264,1.1133232701360753
63865.72420401795,9.268065702053718,PPG_1,PPG_3,110969.0,110969.0,105.43156114727026,66.54713415500426,1.1061726141620511
63865.73420193133,9.278063615434805,PPG_1,PPG_3,110958.0,110958.0,94.37145080072514,65.90840505869916,1.0955288545549096
63865.7441998447,9.288061528808612,PPG_1,PPG_3,110949.0,110949.0,85.31134045419458,65.25618853401802,1.0846603409069961
63865.75419775808,9.298059442189697,PPG_1,PPG_3,110933.0,110933.0,69.25123010766401,64.79169103691905,1.0769199706532528
63865.764195671465,9.308057355570782,PPG_1,PPG_3,110931.0,110931.0,67.1911197611189,64.70072995164409,1.0754041982688851
63865.77419358484,9.31805526894459,PPG_1,PPG_3,110926.0,110926.0,62.131009414588334,65.13353548342803,1.0826164547068617
63865.78419149822,9.328053182325675,PPG_1,PPG_3,110944.0,110944.0,80.07089906805777,66.18998754918235,1.1002211354539964
63865.7941894116,9.33805109570676,PPG_1,PPG_3,110987.0,110987.0,123.01078872151265,67.91314098430581,1.1289357048008006
63865.804187324975,9.348049009080569,PPG_1,PPG_3,110954.0,110954.0,89.95067837498209,70.28932402487872,1.1685323369453677
63865.81418523835,9.358046922461654,PPG_1,PPG_3,110932.0,110932.0,67.89056802843697,73.2495747170627,1.2178618522700155
63865.82418315174,9.368044835842738,PPG_1,PPG_3,110942.0,110942.0,77.83045768190641,76.66916333258229,1.274845758889361
63865.83418106511,9.378042749216547,PPG_1,PPG_3,110969.0,110969.0,104.77034733537585,80.36772718939321,1.3364784992972816
63865.84417897849,9.388040662597632,PPG_1,PPG_3,110958.0,110958.0,93.71023698883073,84.11454344952068,1.398915316088037
63865.85417689187,9.398038575978717,PPG_1,PPG_3,110965.0,110965.0,100.65012664230017,87.6399686968852,1.4576628806861773
63865.86417480525,9.408036489352526,PPG_1,PPG_3,110981.0,110981.0,116.5900162957696,90.65093221408002,1.507837472775821
63865.87417271863,9.41803440273361,PPG_1,PPG_3,110979.0,110979.0,114.52990594922449,92.84815239969988,1.5444518740845818
63865.88417063201,9.428032316114695,PPG_1,PPG_3,110984.0,110984.0,119.46979560269392,93.94289326604171,1.562694598082692
63865.89416854539,9.43803022949578,PPG_1,PPG_3,110963.0,110963.0,98.4096852561488,93.67096193666877,1.5581631437991168
63865.90416645877,9.448028142869587,PPG_1,PPG_3,110951.0,110951.0,86.34957490961824,91.80300744265706,1.5270356146066097
63865.914164372145,9.458026056250674,PPG_1,PPG_3,110961.0,110961.0,96.28946456308768,88.15288544962621,1.4662101077441463
63865.924162285526,9.46802396963176,PPG_1,PPG_3,110941.0,110941.0,76.22935421654256,82.58751780926981,1.373469013543197
63865.9341601989,9.478021883005567,PPG_1,PPG_3,110973.0,110973.0,108.169243870012,75.04057780589288,1.247707065903513
63865.94415811228,9.488019796386652,PPG_1,PPG_3,110991.0,110991.0,126.10913352348143,65.52884811089618,1.0892039306818542
63865.95415602566,9.498017709767735,PPG_1,PPG_3,110907.0,110907.0,42.049023176936316,54.165953064420144,0.8998530399591615
63865.96415393904,9.508015623141546,PPG_1,PPG_3,110931.0,110931.0,65.98891283040575,41.167065715086906,0.683240029988298
63865.97415185242,9.51801353652263,PPG_1,PPG_3,110913.0,110913.0,47.92880248387519,26.84243527954327,0.44453488300335176
63865.9841497658,9.528011449903715,PPG_1,PPG_3,110872.0,110872.0,6.868692137330072,11.582348236058259,0.19024131940260125
63865.99414767917,9.538009363277524,PPG_1,PPG_3,110894.0,110894.0,28.808581790799508,-4.163415984694368,-0.0721455519109427
63866.00414559255,9.548007276658607,PPG_1,PPG_3,110860.0,110860.0,-5.251528555745608,-19.91010697135545,-0.33454786681958626
63866.014143505934,9.558005190039694,PPG_1,PPG_3,110835.0,110835.0,-30.311638902276172,-35.165902774266215,-0.5887699213355732
63866.02414141931,9.568003103413504,PPG_1,PPG_3,110792.0,110792.0,-73.37174924880674,-49.46240351874721,-0.8270063161198979
63866.03413933269,9.578001016794587,PPG_1,PPG_3,110829.0,110829.0,-36.43185959535185,-62.384735026400385,-1.0423436021882828
63866.04413724607,9.587998930175672,PPG_1,PPG_3,110777.0,110777.0,-88.49196994188242,-73.59649971080022,-1.2291760617754834
63866.05413515944,9.59799684354948,PPG_1,PPG_3,110799.0,110799.0,-66.55208028841298,-82.85657844985761,-1.3834856941562355
63866.064133072825,9.607994756930566,PPG_1,PPG_3,110780.0,110780.0,-85.6121906349581,-90.02776909695771,-1.5029861674965892
63866.074130986206,9.61799267031165,PPG_1,PPG_3,110778.0,110778.0,-87.67230098148866,-95.07842830741018,-1.5871501781931887
63866.08412889958,9.62799058368546,PPG_1,PPG_3,110751.0,110751.0,-114.73241132803378,-98.07815728323101,-1.6371375582732763
63866.09412681296,9.637988497066544,PPG_1,PPG_3,110785.0,110785.0,-80.79252167456434,-99.18775512162564,-1.6556278583407014
63866.10412472634,9.64798641044763,PPG_1,PPG_3,110773.0,110773.0,-92.8526320210949,-98.6430119285605,-1.6465502765800568
63866.11412263971,9.657984323821438,PPG_1,PPG_3,110772.0,110772.0,-93.91274236764002,-96.73306016938189,-1.6147229064108672
63866.1241205531,9.667982237202525,PPG_1,PPG_3,110799.0,110799.0,-66.97285271417059,-93.77584501881098,-1.5654439752468503
63866.13411846648,9.677980150583608,PPG_1,PPG_3,110784.0,110784.0,-82.03296306070115,-90.09380554655719,-1.5040865966126449
63866.14411637985,9.687978063957416,PPG_1,PPG_3,110788.0,110788.0,-78.09307340724627,-85.99259204660373,-1.435744116453862
63866.15411429323,9.6979759773385,PPG_1,PPG_3,110808.0,110808.0,-58.15318375377683,-81.74500128978042,-1.3649624107406333
63866.164112206614,9.707973890719586,PPG_1,PPG_3,110775.0,110775.0,-91.21329410032195,-77.58104614329183,-1.2955744059502983
