timestamp,time_from_segment_start_sec,selected_channel_name,backup_channel_name,selected_channel_raw,selected_channel_clipped,selected_channel_detrended,selected_channel_filtered,selected_channel_filtered_z
62858.88241683868,0.0,PPG_1,PPG_3,172392.0,172392.0,148.67736139081535,3.8769235545198355,0.11689750744656019
62858.89252600278,0.0101091641045059,PPG_1,PPG_3,172376.0,172376.0,132.70825279390556,1.693877965755821,0.05117432601186434
62858.902635166894,0.0202183282162877,PPG_1,PPG_3,172398.0,172398.0,154.73914419696666,-0.3523976440177684,-0.010431232689585436
62858.912744331,0.0303274923207936,PPG_1,PPG_3,172366.0,172366.0,122.77003560005687,-2.1659361223180698,-0.06502996350015736
62858.9228534951,0.0404366564252995,PPG_1,PPG_3,172388.0,172388.0,144.80092700311798,-3.6715291686837586,-0.11035763116885361
62858.932962659215,0.0505458205370814,PPG_1,PPG_3,172396.0,172396.0,152.83181840620819,-4.819799454032216,-0.14492767253145963
62858.94307182332,0.0606549846415873,PPG_1,PPG_3,172391.0,172391.0,147.8627098092693,-5.589106689841949,-0.16808858098815108
62858.953180987424,0.0707641487460932,PPG_1,PPG_3,172349.0,172349.0,105.8936012123595,-5.986029463993053,-0.18003841274400811
62858.963290151536,0.0808733128578751,PPG_1,PPG_3,172385.0,172385.0,141.9244926154206,-6.045181317733875,-0.18181924958755186
62858.97339931564,0.090982476962381,PPG_1,PPG_3,172394.0,172394.0,150.9553840185108,-5.826133422551527,-0.17522455242132884
62858.983508479745,0.1010916410668869,PPG_1,PPG_3,172369.0,172369.0,125.98627542157192,-5.405236709780542,-0.16255295675649603
62858.99361764385,0.1112008051713928,PPG_1,PPG_3,172399.0,172399.0,156.01716682466213,-4.863420491174632,-0.14624093568695049
62859.00372680796,0.1213099692831747,PPG_1,PPG_3,172393.0,172393.0,150.04805822772323,-4.272707171553866,-0.12845680928979722
62859.013835972066,0.1314191333876806,PPG_1,PPG_3,172414.0,172414.0,171.07894963081344,-3.6839853533553413,-0.11073263940934483
62859.02394513617,0.1415282974921865,PPG_1,PPG_3,172391.0,172391.0,148.10984103387455,-3.1191968273120563,-0.09372900972775237
62859.03405430028,0.1516374616039684,PPG_1,PPG_3,172391.0,172391.0,148.14073243696475,-2.5711592140767543,-0.07722968618037088
62859.04416346439,0.1617466257084743,PPG_1,PPG_3,172357.0,172357.0,114.17162384002586,-2.0115076873393534,-0.06038071196687687
62859.05427262849,0.1718557898129802,PPG_1,PPG_3,172392.0,172392.0,149.20251524311607,-1.4030101507982615,-0.042061170587395946
62859.0643817926,0.181964953924762,PPG_1,PPG_3,172410.0,172410.0,167.23340664617717,-0.7106178826766594,-0.021215878626497823
62859.07449095671,0.192074118029268,PPG_1,PPG_3,172395.0,172395.0,152.26429804926738,0.09139326216748814,0.0029296198718104616
62859.08460012081,0.2021832821337739,PPG_1,PPG_3,172368.0,172368.0,125.29518945232849,1.0141967310135882,0.030711714814627113
62859.09470928493,0.2122924462455557,PPG_1,PPG_3,172413.0,172413.0,170.3260808554187,2.048880103450483,0.0618620871953681
62859.10481844903,0.2224016103500616,PPG_1,PPG_3,172369.0,172369.0,126.3569722584798,3.161773082595215,0.09536705271793423
62859.11492761313,0.2325107744545675,PPG_1,PPG_3,172388.0,172388.0,145.38786366157,4.293257188597598,0.12943172620529494
62859.125036777245,0.2426199385663494,PPG_1,PPG_3,172395.0,172395.0,152.4187550646311,5.361876836319434,0.16160379047797335
62859.13514594135,0.2527291026708553,PPG_1,PPG_3,172411.0,172411.0,168.44964646772132,6.274635878589053,0.18908348602350245
62859.14525510545,0.2628382667753612,PPG_1,PPG_3,172415.0,172415.0,172.48053787078243,6.942182866442441,0.20918078129973755
62859.155364269565,0.2729474308871431,PPG_1,PPG_3,172404.0,172404.0,161.51142927387264,7.294684258832078,0.21979325457434465
62859.16547343367,0.283056594991649,PPG_1,PPG_3,172401.0,172401.0,158.54232067693374,7.293811730509163,0.2197669860724091
62859.175582597774,0.2931657590961549,PPG_1,PPG_3,172427.0,172427.0,184.57321207999485,6.938673441883442,0.20907512590334565
62859.185691761886,0.3032749232079368,PPG_1,PPG_3,172381.0,172381.0,138.60410348308505,6.265594631638931,0.18881128854088586
62859.19580092599,0.3133840873124427,PPG_1,PPG_3,172400.0,172400.0,157.63499488614616,5.342321559245222,0.1610150556252661
62859.205910090095,0.3234932514169486,PPG_1,PPG_3,172378.0,172378.0,135.66588628923637,4.258504411456338,0.1283854525547718
62859.21601925421,0.3336024155287305,PPG_1,PPG_3,172420.0,172420.0,177.69677769229747,3.1159183687052816,0.09398654206981238
62859.22612841831,0.3437115796332364,PPG_1,PPG_3,172397.0,172397.0,154.72766909538768,2.0207930671388254,0.06101649359302877
62859.236237582416,0.3538207437377423,PPG_1,PPG_3,172395.0,172395.0,152.7585604984488,1.0773438156694117,0.03261283283216542
62859.24634674653,0.3639299078495241,PPG_1,PPG_3,172362.0,172362.0,119.789451901539,0.38057120516864557,0.011635665459038783
62859.25645591063,0.3740390719540301,PPG_1,PPG_3,172424.0,172424.0,181.8203433046001,0.009103097198969195,0.0004521766748595877
62859.26656507474,0.384148236058536,PPG_1,PPG_3,172404.0,172404.0,161.8512347076903,0.020619752010623882,0.0007988992525294786
62859.27667423885,0.3942574001703178,PPG_1,PPG_3,172407.0,172407.0,164.88212611075141,0.44951225648101745,0.013711217727403021
62859.28678340295,0.4043665642748237,PPG_1,PPG_3,172369.0,172369.0,126.91301751384162,1.303265969739652,0.03941448773048683
62859.29689256706,0.4144757283793296,PPG_1,PPG_3,172383.0,172383.0,140.94390891690273,2.5564052484358877,0.07714173474749801
62859.30700173116,0.4245848924838356,PPG_1,PPG_3,172392.0,172392.0,149.97480031999294,4.146025893960148,0.12499915313392777
62859.317110895274,0.4346940565956174,PPG_1,PPG_3,172406.0,172406.0,164.00569172305404,5.974151682616025,0.18003705225599909
62859.32722005938,0.4448032207001233,PPG_1,PPG_3,172390.0,172390.0,148.03658312614425,7.918390946730555,0.23857068552758162
62859.33732922348,0.4549123848046292,PPG_1,PPG_3,172439.0,172439.0,197.06747452920536,9.848384162850083,0.29667542459653184
62859.347438387595,0.4650215489164111,PPG_1,PPG_3,172433.0,172433.0,191.09836593229556,11.643730302249796,0.35072645342761294
62859.3575475517,0.475130713020917,PPG_1,PPG_3,172417.0,172417.0,175.12925733535667,13.207887913676984,0.39781727691632124
62859.3676567158,0.4852398771254229,PPG_1,PPG_3,172397.0,172397.0,155.16014873844688,14.472894062997245,0.43590179017417463
62859.377765879915,0.4953490412372048,PPG_1,PPG_3,172393.0,172393.0,151.19104014150798,15.394264725284012,0.4636407487730026
62859.38787504402,0.5054582053417107,PPG_1,PPG_3,172409.0,172409.0,167.2219315445982,15.9412814852768,0.48010933832049824
62859.397984208124,0.5155673694462166,PPG_1,PPG_3,172410.0,172410.0,168.2528229476593,16.089287764149827,0.48456524321314565
62859.40809337224,0.5256765335579985,PPG_1,PPG_3,172401.0,172401.0,159.2837143507495,15.817225509115055,0.476374485749713
62859.41820253634,0.5357856976625044,PPG_1,PPG_3,172418.0,172418.0,176.3146057538106,15.110028514336033,0.4550834799012054
62859.428311700445,0.5458948617670103,PPG_1,PPG_3,172430.0,172430.0,188.34549715690082,13.9641411504468,0.420585179220615
62859.43842086456,0.5560040258787922,PPG_1,PPG_3,172408.0,172408.0,166.37638855996192,12.393671984014507,0.3733043388688276
62859.44853002866,0.5661131899832981,PPG_1,PPG_3,172401.0,172401.0,159.40727996302303,10.434078289068982,0.3143084422123089
62859.458639192766,0.576222354087804,PPG_1,PPG_3,172387.0,172387.0,145.43817136611324,8.14204549132436,0.2453040713481477
62859.46874835688,0.5863315181995858,PPG_1,PPG_3,172433.0,172433.0,191.46906276917434,5.593445684211825,0.1685754458034455
62859.47885752098,0.5964406823040918,PPG_1,PPG_3,172422.0,172422.0,180.49995417226455,2.8812775012826757,0.08692239994608261
62859.48896668509,0.6065498464085977,PPG_1,PPG_3,172381.0,172381.0,139.53084557532566,0.11169710841704991,0.0035408912890224306
62859.4990758492,0.6166590105203795,PPG_1,PPG_3,172350.0,172350.0,108.56173697841587,-2.6049154852609084,-0.07824595883496581
62859.5091850133,0.6267681746248854,PPG_1,PPG_3,172420.0,172420.0,178.59262838147697,-5.1657802762607155,-0.15534383629335485
62859.51929417741,0.6368773387293913,PPG_1,PPG_3,172392.0,172392.0,150.62351978456718,-7.484278378058869,-0.2251449765832153
62859.52940334152,0.6469865028411732,PPG_1,PPG_3,172390.0,172390.0,148.65441118762828,-9.492998212596957,-0.28561987404587663
62859.539512505624,0.6570956669456791,PPG_1,PPG_3,172382.0,172382.0,140.6853025907185,-11.144690531445724,-0.3353460339138672
62859.54962166973,0.667204831050185,PPG_1,PPG_3,172373.0,172373.0,131.7161939937796,-12.41398036566442,-0.37355951259563935
62859.55973083384,0.6773139951619669,PPG_1,PPG_3,172400.0,172400.0,158.7470853968698,-13.298949657042128,-0.4002025646696374
62859.569839997945,0.6874231592664728,PPG_1,PPG_3,172378.0,172378.0,136.7779767999309,-13.820916562000402,-0.41591699856604636
62859.57994916205,0.6975323233709787,PPG_1,PPG_3,172359.0,172359.0,117.80886820302112,-14.02236148800736,-0.42198173742866907
62859.59005832616,0.7076414874827606,PPG_1,PPG_3,172405.0,172405.0,163.83975960608223,-13.963208945834019,-0.42020087985904625
62859.600167490265,0.7177506515872665,PPG_1,PPG_3,172402.0,172402.0,160.87065100917243,-13.714966872089171,-0.41272725725747017
62859.61027665437,0.7278598156917724,PPG_1,PPG_3,172382.0,172382.0,140.90154241223354,-13.35397226896992,-0.4018590857818642
62859.620385818474,0.7379689797962783,PPG_1,PPG_3,172347.0,172347.0,105.93243381532375,-12.95697787610411,-0.3899070978595006
62859.630494982586,0.7480781439080602,PPG_1,PPG_3,172387.0,172387.0,145.96332521838485,-12.599347828417446,-0.3791402203230964
62859.64060414669,0.7581873080125661,PPG_1,PPG_3,172389.0,172389.0,147.99421662147506,-12.351516132421628,-0.3716789526312826
62859.650713310795,0.768296472117072,PPG_1,PPG_3,172385.0,172385.0,144.02510802453617,-12.270400236550259,-0.36923686220081653
62859.66082247491,0.7784056362288538,PPG_1,PPG_3,172405.0,172405.0,164.05599942762638,-12.387608490525974,-0.3727655559584449
62859.67093163901,0.7885148003333597,PPG_1,PPG_3,172382.0,172382.0,141.08689083068748,-12.698939694459792,-0.3821385517894708
62859.68104080312,0.7986239644378657,PPG_1,PPG_3,172409.0,172409.0,168.1177822337777,-13.158800886042307,-0.3959832193881282
62859.69114996723,0.8087331285496475,PPG_1,PPG_3,172403.0,172403.0,162.1486736368388,-13.681768792172038,-0.41172778961423484
62859.70125913133,0.8188422926541534,PPG_1,PPG_3,172349.0,172349.0,108.179565039929,-14.152618632782502,-0.42590328354904533
62859.71136829544,0.8289514567586593,PPG_1,PPG_3,172400.0,172400.0,159.2104564429901,-14.44411410285441,-0.43467910104252
62859.72147745955,0.8390606208704412,PPG_1,PPG_3,172353.0,172353.0,112.24134784608032,-14.438502360526517,-0.43451015287163475
62859.73158662365,0.8491697849749471,PPG_1,PPG_3,172390.0,172390.0,149.27223924914142,-14.047291222061082,-0.42273227669489627
62859.74169578776,0.859278949079453,PPG_1,PPG_3,172356.0,172356.0,115.30313065220253,-13.225613529641366,-0.3979946934132212
62859.75180495187,0.8693881131912349,PPG_1,PPG_3,172386.0,172386.0,145.33402205529273,-11.979322723806751,-0.3604736278093475
62859.761914115974,0.8794972772957408,PPG_1,PPG_3,172402.0,172402.0,161.36491345835384,-10.364007616468248,-0.31184264711877896
62859.77202328008,0.8896064414002467,PPG_1,PPG_3,172380.0,172380.0,139.39580486144405,-8.477045208894575,-0.2550334016720861
62859.78213244419,0.8997156055120286,PPG_1,PPG_3,172377.0,172377.0,136.42669626450515,-6.445739778315985,-0.19387853800348712
62859.792241608295,0.9098247696165344,PPG_1,PPG_3,172381.0,172381.0,140.45758766759536,-4.413601342467782,-0.13269859572143522
62859.8023507724,0.9199339337210404,PPG_1,PPG_3,172412.0,172412.0,171.48847907065647,-2.524058970616248,-0.07581167738453723
62859.81245993651,0.9300430978328222,PPG_1,PPG_3,172428.0,172428.0,187.51937047374668,-0.9013376062924033,-0.026957722527004464
62859.822569100616,0.940152261937328,PPG_1,PPG_3,172391.0,172391.0,150.55026187680778,0.36764856923807193,0.011246614149138988
62859.83267826472,0.950261426041834,PPG_1,PPG_3,172416.0,172416.0,175.581153279898,1.244362786402481,0.03764113740492543
62859.84278742883,0.960370590153616,PPG_1,PPG_3,172408.0,172408.0,167.6120446829591,1.7394612300438912,0.05254666434717447
62859.852896592936,0.9704797542581218,PPG_1,PPG_3,172368.0,172368.0,127.6429360860493,1.9042122914226975,0.05750669081400081
62859.86300575704,0.9805889183626276,PPG_1,PPG_3,172396.0,172396.0,155.6738274891104,1.8157771079180878,0.05484424453225603
62859.87311492115,0.9906980824744096,PPG_1,PPG_3,172379.0,172379.0,138.70471889220062,1.561323085735007,0.047183603841653154
62859.88322408526,1.0008072465789155,PPG_1,PPG_3,172400.0,172400.0,159.73561029526172,1.226049173540929,0.037089784328737024
62859.89333324936,1.0109164106834214,PPG_1,PPG_3,172425.0,172425.0,184.76650169835193,0.8871393673495217,0.026886501906711855
62859.90344241347,1.0210255747952033,PPG_1,PPG_3,172392.0,172392.0,151.79739310141304,0.6113831731289279,0.018584534014798784
62859.91355157758,1.0311347388997092,PPG_1,PPG_3,172364.0,172364.0,123.82828450450324,0.4523609537843394,0.01379698114465935
62859.92366074168,1.041243903004215,PPG_1,PPG_3,172418.0,172418.0,177.85917590756435,0.4458778762996338,0.01360180039352179
62859.93376990579,1.051353067108721,PPG_1,PPG_3,172390.0,172390.0,149.89006731065456,0.6063188419798703,0.018432066307908914
62859.9438790699,1.0614622312205029,PPG_1,PPG_3,172399.0,172399.0,158.92095871371566,0.9260276457416695,0.028057279736366413
62859.953988234,1.0715713953250088,PPG_1,PPG_3,172376.0,172376.0,135.95185011680587,1.3767967168759634,0.04162821824529696
62859.96409739811,1.081680559429515,PPG_1,PPG_3,172390.0,172390.0,149.98274151986698,1.9128768860128642,0.057767548729767026
62859.97420656222,1.0917897235412966,PPG_1,PPG_3,172422.0,172422.0,182.01363292295719,2.477000913865118,0.07475117290373427
62859.98431572632,1.1018988876458025,PPG_1,PPG_3,172408.0,172408.0,168.0445243260183,3.009737682435235,0.09078984634137463
62859.99442489043,1.1120080517503084,PPG_1,PPG_3,172381.0,172381.0,141.0754157291085,3.45896676940903,0.10431442179728057
62860.00453405454,1.1221172158620902,PPG_1,PPG_3,172404.0,172404.0,164.1063071321696,3.785898728066004,0.11415709688670835
62860.014643218645,1.132226379966596,PPG_1,PPG_3,172426.0,172426.0,186.1371985352307,3.9674093788734646,0.11962169070772086
62860.02475238275,1.142335544071102,PPG_1,PPG_3,172384.0,172384.0,144.16808993832092,3.9957274731897208,0.12047424058584132
62860.03486154686,1.152444708182884,PPG_1,PPG_3,172362.0,172362.0,122.19898134138202,3.8750979838075628,0.11684254647104868
62860.044970710966,1.1625538722873898,PPG_1,PPG_3,172408.0,172408.0,168.22987274447223,3.616601940228998,0.10906021592343794
62860.05507987507,1.1726630363918955,PPG_1,PPG_3,172405.0,172405.0,165.26076414753334,3.235424718824024,0.09758442274251941
62860.06518903918,1.1827722005036776,PPG_1,PPG_3,172406.0,172406.0,166.29165555062355,2.7527249210425015,0.08305217176646552
62860.07529820329,1.1928813646081835,PPG_1,PPG_3,172404.0,172404.0,164.32254695368465,2.1989140590465865,0.06637903770513309
62860.08540736739,1.2029905287126894,PPG_1,PPG_3,172374.0,172374.0,134.35343835677486,1.6140193192732921,0.048770086568164915
62860.0955165315,1.2130996928244713,PPG_1,PPG_3,172392.0,172392.0,152.38432975983596,1.0443913173538997,0.03162075871485709
62860.10562569561,1.2232088569289772,PPG_1,PPG_3,172397.0,172397.0,157.41522116292617,0.5384831883802405,0.016389793351166006
62860.11573485971,1.233318021033483,PPG_1,PPG_3,172373.0,172373.0,133.44611256598728,0.14460914305500605,0.004531747199237329
62860.12584402382,1.243427185145265,PPG_1,PPG_3,172395.0,172395.0,155.4770039690775,-0.08832718335003949,-0.0024810776917527353
62860.13595318793,1.2535363492497709,PPG_1,PPG_3,172437.0,172437.0,197.5078953721386,-0.10762258142082345,-0.0030619885782628116
62860.14606235203,1.2636455133542768,PPG_1,PPG_3,172403.0,172403.0,163.5387867752288,0.14639422888924777,0.00458548932938991
62860.156171516144,1.2737546774660586,PPG_1,PPG_3,172370.0,172370.0,130.5696781782899,0.7383880904486011,0.02240816796319717
62860.16628068025,1.2838638415705643,PPG_1,PPG_3,172373.0,172373.0,133.6005695813801,1.7279504827743892,0.052200119623080674
62860.17638984435,1.2939730056750705,PPG_1,PPG_3,172408.0,172408.0,168.63146098444122,3.1554288345650012,0.09517605159248704
62860.186499008465,1.3040821697868523,PPG_1,PPG_3,172401.0,172401.0,161.66235238753143,5.030423643015469,0.15162499824718012
62860.19660817257,1.3141913338913582,PPG_1,PPG_3,172402.0,172402.0,162.69324379059253,7.325051555362836,0.2207074981200794
62860.206717336674,1.324300497995864,PPG_1,PPG_3,172388.0,172388.0,148.72413519368274,9.969501791016706,0.30032181470945746
62860.216826500786,1.334409662107646,PPG_1,PPG_3,172374.0,172374.0,134.75502659674385,12.848562775790796,0.3869993666752842
62860.22693566489,1.344518826212152,PPG_1,PPG_3,172388.0,172388.0,148.78591799983406,15.80190933401494,0.475913374099012
62860.237044828995,1.3546279903166578,PPG_1,PPG_3,172415.0,172415.0,175.81680940289516,18.632896975093097,0.5611436209301396
62860.2471539931,1.3647371544211635,PPG_1,PPG_3,172423.0,172423.0,183.84770080598537,21.12796142248215,0.6362605008574403
62860.25726315721,1.3748463185329456,PPG_1,PPG_3,172442.0,172442.0,202.87859220904647,23.083095592419177,0.6951221382145862
62860.267372321316,1.3849554826374515,PPG_1,PPG_3,172428.0,172428.0,188.90948361213668,24.329728740801354,0.7326535104476398
62860.27748148542,1.3950646467419574,PPG_1,PPG_3,172419.0,172419.0,179.9403750151978,24.75257051973699,0.7453836646405675
62860.28759064953,1.4051738108537393,PPG_1,PPG_3,172398.0,172398.0,158.971266418288,24.296002898513496,0.7316381538911249
62860.29769981364,1.4152829749582452,PPG_1,PPG_3,172389.0,172389.0,150.0021578213491,22.961005541059254,0.6914464721459529
62860.30780897774,1.425392139062751,PPG_1,PPG_3,172412.0,172412.0,173.0330492244102,20.79841797657043,0.6263392038411313
62860.31791814185,1.435501303174533,PPG_1,PPG_3,172408.0,172408.0,169.06394062750041,17.90407791209791,0.5392016570257497
62860.32802730596,1.4456104672790389,PPG_1,PPG_3,172428.0,172428.0,189.09483203056152,14.41717821035061,0.43422439822636977
62860.33813647006,1.4557196313835448,PPG_1,PPG_3,172422.0,172422.0,183.12572343365173,10.518345277847338,0.3168454000389987
62860.34824563417,1.4658287954953266,PPG_1,PPG_3,172378.0,172378.0,139.15661483671283,6.422032242134701,0.19352102869049265
62860.35835479828,1.4759379595998323,PPG_1,PPG_3,172390.0,172390.0,151.18750623980304,2.3603042905073988,0.07123788239380126
62860.36846396238,1.4860471237043384,PPG_1,PPG_3,172369.0,172369.0,130.21839764286415,-1.4397045314408585,-0.04316589851842034
62860.378573126494,1.4961562878161203,PPG_1,PPG_3,172350.0,172350.0,111.24928904595436,-4.778675756535813,-0.14368959475345416
62860.3886822906,1.5062654519206262,PPG_1,PPG_3,172409.0,172409.0,170.28018044901546,-7.502416748061358,-0.22569105376490078
62860.3987914547,1.516374616025132,PPG_1,PPG_3,172379.0,172379.0,140.31107185210567,-9.510820872611465,-0.28615644640323434
62860.408900618815,1.526483780136914,PPG_1,PPG_3,172376.0,172376.0,137.34196325516677,-10.76039903974616,-0.32377648192522546
62860.41900978292,1.53659294424142,PPG_1,PPG_3,172353.0,172353.0,114.37285465825698,-11.264561486063837,-0.3389548914382659
62860.429118947024,1.5467021083459258,PPG_1,PPG_3,172386.0,172386.0,147.4037460613181,-11.09293587703367,-0.33378789854577384
62860.439228111136,1.5568112724577077,PPG_1,PPG_3,172366.0,172366.0,127.4346374644083,-10.367550836155745,-0.31194931995767106
62860.44933727524,1.5669204365622136,PPG_1,PPG_3,172357.0,172357.0,118.4655288674694,-9.254161054038368,-0.2784293975912916
62860.459446439345,1.5770296006667197,PPG_1,PPG_3,172372.0,172372.0,133.4964202705596,-7.948525318412134,-0.23912168235994397
62860.46955560346,1.5871387647785014,PPG_1,PPG_3,172396.0,172396.0,157.52731167362072,-6.6574474239233625,-0.20025224823426788
62860.47966476756,1.5972479288830073,PPG_1,PPG_3,172374.0,172374.0,135.55820307671092,-5.575429577176686,-0.16767681525965303
62860.489773931666,1.6073570929875132,PPG_1,PPG_3,172413.0,172413.0,174.58909447977203,-4.860626738353994,-0.14615682643863265
62860.49988309578,1.617466257099295,PPG_1,PPG_3,172370.0,172370.0,131.61998588286224,-4.615159622383826,-0.13876674723818275
62860.50999225988,1.627575421203801,PPG_1,PPG_3,172411.0,172411.0,172.65087728592334,-4.873642598145276,-0.14654868436363153
62860.52010142399,1.6376845853083069,PPG_1,PPG_3,172376.0,172376.0,137.68176868901355,-5.60182533364248,-0.16847149087258406
62860.5302105881,1.6477937494200887,PPG_1,PPG_3,172388.0,172388.0,149.71266009207466,-6.705713608785734,-0.20170535908142442
62860.5403197522,1.6579029135245946,PPG_1,PPG_3,172343.0,172343.0,104.74355149516487,-8.049964096716485,-0.24217561731454348
62860.55042891631,1.6680120776291003,PPG_1,PPG_3,172356.0,172356.0,117.77444289822597,-9.481711878030957,-0.2852800855328782
62860.56053808041,1.6781212417336064,PPG_1,PPG_3,172387.0,172387.0,148.80533430131618,-10.853541395685701,-0.3265806432263806
62860.57064724452,1.6882304058453883,PPG_1,PPG_3,172347.0,172347.0,108.83622570437728,-12.040402942744167,-0.3623125203784979
62860.58075640863,1.6983395699498942,PPG_1,PPG_3,172356.0,172356.0,117.8671171074675,-12.949273310453767,-0.38967514275571385
62860.59086557273,1.7084487340544,PPG_1,PPG_3,172376.0,172376.0,137.8980085105286,-13.522295995701874,-0.4069266715843356
62860.600974736844,1.718557898166182,PPG_1,PPG_3,172382.0,172382.0,143.9288999135897,-13.733756229176292,-0.4132929331788682
62860.61108390095,1.728667062270688,PPG_1,PPG_3,172387.0,172387.0,148.9597913166799,-13.582858231011047,-0.4087499696408682
62860.62119306505,1.7387762263751938,PPG_1,PPG_3,172361.0,172361.0,122.99068271974102,-13.086970235006008,-0.3938206722865334
62860.631302229165,1.7488853904869757,PPG_1,PPG_3,172349.0,172349.0,111.02157412283123,-12.279046702231032,-0.3694971743242239
62860.64141139327,1.7589945545914816,PPG_1,PPG_3,172369.0,172369.0,131.05246552589233,-11.208344778771648,-0.33726242066622053
62860.651520557374,1.7691037186959877,PPG_1,PPG_3,172365.0,172365.0,127.08335692898254,-9.94021533732082,-0.29908387698755173
62860.661629721486,1.7792128828077691,PPG_1,PPG_3,172388.0,172388.0,150.11424833204364,-8.552018232728015,-0.257290553640636
62860.67173888559,1.7893220469122753,PPG_1,PPG_3,172371.0,172371.0,133.14513973513385,-7.1260576073588116,-0.21436031462857139
62860.681848049695,1.7994312110167812,PPG_1,PPG_3,172368.0,172368.0,130.17603113819496,-5.7425519316191584,-0.1727082323218294
62860.69195721381,1.809540375128563,PPG_1,PPG_3,172386.0,172386.0,148.20692254128517,-4.474612230733014,-0.13453540100831796
62860.70206637791,1.819649539233069,PPG_1,PPG_3,172367.0,172367.0,129.23781394434627,-3.3852149726986074,-0.10173780208836466
62860.712175542016,1.8297587033375748,PPG_1,PPG_3,172377.0,172377.0,139.26870534743648,-2.525533515836852,-0.07585607032051907
62860.72228470613,1.8398678674493567,PPG_1,PPG_3,172358.0,172358.0,120.29959675049759,-1.93404646036671,-0.058048649686235444
62860.73239387023,1.8499770315538624,PPG_1,PPG_3,172386.0,172386.0,148.3304881535878,-1.6352573159562802,-0.0490532474601544
62860.74250303434,1.8600861956583683,PPG_1,PPG_3,172375.0,172375.0,137.3613795566489,-1.6367842946374058,-0.049099218967768844
62860.75261219845,1.8701953597701504,PPG_1,PPG_3,172386.0,172386.0,148.3922709597391,-1.925146143330134,-0.05778069506612493
62860.76272136255,1.8803045238746563,PPG_1,PPG_3,172372.0,172372.0,134.4231623628002,-2.4622848502967702,-0.07395189408975757
62860.77283052666,1.8904136879791624,PPG_1,PPG_3,172378.0,172378.0,140.45405376589042,-3.184832344419445,-0.0957050449611033
62860.78293969077,1.900522852090944,PPG_1,PPG_3,172385.0,172385.0,147.48494516895153,-4.006850486661987,-0.12045287788923108
62860.79304885487,1.91063201619545,PPG_1,PPG_3,172342.0,172342.0,104.51583657204174,-4.825830894896399,-0.14510925622548307
62860.80315801898,1.920741180299956,PPG_1,PPG_3,172401.0,172401.0,163.54672797510284,-5.531093070046986,-0.166342012030044
62860.81326718309,1.9308503444117375,PPG_1,PPG_3,172378.0,172378.0,140.57761937819305,-6.013398140960536,-0.18086237928470683
62860.823376347194,1.9409595085162437,PPG_1,PPG_3,172346.0,172346.0,108.60851078125415,-6.175763156192736,-0.18575057099709097
62860.8334855113,1.9510686726207496,PPG_1,PPG_3,172348.0,172348.0,110.63940218434436,-5.945909805169573,-0.1788305627432912
62860.84359467541,1.9611778367325312,PPG_1,PPG_3,172361.0,172361.0,123.67029358740547,-5.2876253403041495,-0.15901212672772122
62860.853703839515,1.9712870008370371,PPG_1,PPG_3,172388.0,172388.0,150.70118499049568,-4.205885982462468,-0.1264450779925033
62860.86381300362,1.9813961649415432,PPG_1,PPG_3,172366.0,172366.0,128.73207639355678,-2.743868198332864,-0.08242929537135116
62860.87392216773,1.9915053290460492,PPG_1,PPG_3,172373.0,172373.0,135.7629677966179,-0.9749701767402221,-0.029174518553598185
62860.88403133184,2.001614493157831,PPG_1,PPG_3,172364.0,172364.0,126.7938591997081,1.0064466253324897,0.030478388674101898
62860.89414049594,2.011723657262337,PPG_1,PPG_3,172380.0,172380.0,142.8247506027692,3.0947671024852133,0.0933497580674489
62860.904249660045,2.021832821366843,PPG_1,PPG_3,172395.0,172395.0,157.8556420058594,5.183959287772566,0.15624737126998856
62860.91435882416,2.0319419854786247,PPG_1,PPG_3,172392.0,172392.0,154.8865334089205,7.178623533579707,0.21629910853247353
62860.92446798826,2.0420511495831306,PPG_1,PPG_3,172370.0,172370.0,132.91742481201072,9.002227952988331,0.2712008864608786
62860.934577152366,2.0521603136876365,PPG_1,PPG_3,172392.0,172392.0,154.94831621507183,10.600124791498805,0.3193074694712727
62860.94468631648,2.0622694777994184,PPG_1,PPG_3,172392.0,172392.0,154.97920761816204,11.937707311188813,0.3595769805973489
62860.95479548058,2.0723786419039243,PPG_1,PPG_3,172345.0,172345.0,108.01009902122314,12.995574725231377,0.39142533609886454
62860.96490464469,2.08248780600843,PPG_1,PPG_3,172406.0,172406.0,169.04099042431335,13.76376726212808,0.41455268522024796
62860.9750138088,2.092596970120212,PPG_1,PPG_3,172371.0,172371.0,134.07188182737445,14.237606176568445,0.42881816877444867
62860.9851229729,2.102706134224718,PPG_1,PPG_3,172357.0,172357.0,120.10277323046466,14.417055728905625,0.43422071077693103
62860.99523213701,2.112815298329224,PPG_1,PPG_3,172417.0,172417.0,180.13366463352577,14.310016581006405,0.4309981700410874
62861.00534130112,2.1229244624410057,PPG_1,PPG_3,172406.0,172406.0,169.16455603661598,13.938807404057911,0.41982247668297346
62861.015450465224,2.1330336265455117,PPG_1,PPG_3,172391.0,172391.0,154.19544743967708,13.346408929444285,0.4019876166923894
62861.02555962933,2.1431427906500176,PPG_1,PPG_3,172358.0,172358.0,121.22633884276729,12.596931364223867,0.37942370403122305
62861.03566879344,2.153251954761799,PPG_1,PPG_3,172401.0,172401.0,164.2572302458284,11.768250224480402,0.3544752736460811
62861.045777957544,2.1633611188663053,PPG_1,PPG_3,172377.0,172377.0,140.2881216489186,10.940065592973673,0.32954179123137767
62861.05588712165,2.1734702829708112,PPG_1,PPG_3,172349.0,172349.0,112.31901305197971,10.1811523668717,0.30669380678753005
62861.06599628576,2.183579447082593,PPG_1,PPG_3,172386.0,172386.0,149.34990445506992,9.537875757561727,0.2873272000964109
62861.076105449865,2.193688611187099,PPG_1,PPG_3,172369.0,172369.0,132.38079585813102,9.026300141629196,0.27192560830348084
62861.08621461397,2.203797775291605,PPG_1,PPG_3,172374.0,172374.0,137.41168726122123,8.629831887323391,0.2599894604076458
62861.09632377808,2.213906939403387,PPG_1,PPG_3,172378.0,172378.0,141.44257866428234,8.30201023709238,0.2501200000962134
62861.106432942186,2.2240161035078927,PPG_1,PPG_3,172381.0,172381.0,144.47347006737255,7.972727513766958,0.24020655244316624
62861.11654210629,2.2341252676123986,PPG_1,PPG_3,172353.0,172353.0,116.50436147043365,7.556366450094579,0.2276715078838926
62861.1266512704,2.2442344317241805,PPG_1,PPG_3,172364.0,172364.0,127.53525287352386,6.961274334346263,0.20975555262625298
62861.13676043451,2.2543435958286864,PPG_1,PPG_3,172395.0,172395.0,158.56614427658496,6.1014193845486915,0.18386859764742317
62861.14686959861,2.2644527599331923,PPG_1,PPG_3,172382.0,172382.0,145.59703567967517,4.910527356083632,0.14801537806337586
62861.15697876272,2.274561924044974,PPG_1,PPG_3,172361.0,172361.0,124.62792708273628,3.355757668928066,0.10120718918998414
62861.16708792683,2.28467108814948,PPG_1,PPG_3,172381.0,172381.0,144.65881848579738,1.4466753937374206,0.04373199884494182
62861.17719709093,2.294780252253986,PPG_1,PPG_3,172359.0,172359.0,122.68970988888759,-0.7620569931256397,-0.022764514168640476
62861.18730625504,2.304889416358492,PPG_1,PPG_3,172365.0,172365.0,128.7206012919487,-3.173312888428616,-0.09535823805060589
62861.19741541915,2.3149985804702737,PPG_1,PPG_3,172371.0,172371.0,134.7514926950389,-5.654372730213928,-0.17005349268535497
62861.20752458325,2.3251077445747796,PPG_1,PPG_3,172385.0,172385.0,148.7823840981,-8.047885626090498,-0.2421130424866235
62861.21763374736,2.3352169086792856,PPG_1,PPG_3,172333.0,172333.0,96.81327550119022,-10.188007801195623,-0.30654396354974506
62861.22774291147,2.3453260727910674,PPG_1,PPG_3,172323.0,172323.0,86.84416690425132,-11.922333211784135,-0.35875789083261406
62861.237852075574,2.3554352368955733,PPG_1,PPG_3,172332.0,172332.0,95.87505830734153,-13.13599671912614,-0.3952966728462638
62861.24796123968,2.3655444010000792,PPG_1,PPG_3,172345.0,172345.0,108.90594971040264,-13.770279554444102,-0.4143925112845796
62861.25807040379,2.375653565111861,PPG_1,PPG_3,172338.0,172338.0,101.93684111349285,-13.829775883710278,-0.4161837189731342
62861.268179567895,2.385762729216367,PPG_1,PPG_3,172360.0,172360.0,123.96773251655395,-13.377772104985521,-0.4025756081250622
62861.278288732,2.395871893320873,PPG_1,PPG_3,172329.0,172329.0,92.99862391964416,-12.523120026274992,-0.37684529176257414
62861.28839789611,2.405981057432655,PPG_1,PPG_3,172393.0,172393.0,157.02951532270527,-11.402268908502906,-0.34310073702044247
62861.298507060215,2.4160902215371607,PPG_1,PPG_3,172337.0,172337.0,101.06040672579547,-10.159887917818661,-0.3056973810474745
62861.30861622432,2.4261993856416666,PPG_1,PPG_3,172363.0,172363.0,127.09129812885658,-8.931751981867565,-0.26872288937381056
62861.31872538843,2.4363085497534485,PPG_1,PPG_3,172361.0,172361.0,125.12218953194679,-7.8325868271426975,-0.23563121631737255
62861.328834552536,2.4464177138579544,PPG_1,PPG_3,172354.0,172354.0,118.15308093500789,-6.949372339903084,-0.20904099470708265
62861.33894371664,2.4565268779624603,PPG_1,PPG_3,172335.0,172335.0,99.1839723380981,-6.339370045431363,-0.1906761508020846
62861.34905288075,2.466636042074242,PPG_1,PPG_3,172358.0,172358.0,122.2148637411592,-6.031421743122775,-0.1814050012441897
62861.35916204486,2.476745206178748,PPG_1,PPG_3,172365.0,172365.0,129.24575514424942,-6.0282017837803314,-0.18130806054209672
62861.36927120896,2.486854370283254,PPG_1,PPG_3,172369.0,172369.0,133.27664654731052,-6.308382623247592,-0.18974323763670697
62861.37938037307,2.496963534395036,PPG_1,PPG_3,172324.0,172324.0,88.30753795040073,-6.830491824244218,-0.20546195552443255
62861.38948953718,2.5070726984995417,PPG_1,PPG_3,172346.0,172346.0,110.33842935346183,-7.539983112708345,-0.22682203381050475
62861.39959870128,2.5171818626040476,PPG_1,PPG_3,172313.0,172313.0,77.36932075655204,-8.377049060432165,-0.25202289880307055
62861.409707865394,2.5272910267158295,PPG_1,PPG_3,172386.0,172386.0,150.40021215961315,-9.280159172433411,-0.2792121018376127
62861.4198170295,2.5374001908203354,PPG_1,PPG_3,172357.0,172357.0,121.43110356270336,-10.183160791319553,-0.3063980385580086
62861.4299261936,2.5475093549248413,PPG_1,PPG_3,172339.0,172339.0,103.46199496576446,-11.00954267574323,-0.3312772471296782
62861.440035357715,2.557618519036623,PPG_1,PPG_3,172347.0,172347.0,111.49288636882557,-11.669538553687623,-0.3511472072695623
62861.45014452182,2.567727683141129,PPG_1,PPG_3,172379.0,172379.0,143.52377777191577,-12.062319143393106,-0.3629723336407692
62861.46025368592,2.577836847245635,PPG_1,PPG_3,172328.0,172328.0,92.55466917497688,-12.082715847207826,-0.36358640064531744
62861.470362850036,2.587946011357417,PPG_1,PPG_3,172357.0,172357.0,121.58556057806709,-11.632638288741012,-0.3500362809469253
62861.48047201414,2.5980551754619228,PPG_1,PPG_3,172344.0,172344.0,108.6164519811282,-10.63715962916218,-0.3200662130314358
62861.490581178245,2.6081643395664287,PPG_1,PPG_3,172313.0,172313.0,77.6473433842184,-9.062944663121238,-0.27267260093151613
62861.50069034235,2.6182735036709346,PPG_1,PPG_3,172323.0,172323.0,87.67823478727951,-6.934741536043044,-0.2086005169719506
62861.51079950646,2.6283826677827165,PPG_1,PPG_3,172345.0,172345.0,109.70912619036972,-4.344310595989316,-0.13061251546457348
62861.520908670565,2.6384918318872224,PPG_1,PPG_3,172355.0,172355.0,119.74001759343082,-1.4469684569572143,-0.04338458762738662
62861.53101783467,2.6486009959917283,PPG_1,PPG_3,172347.0,172347.0,111.77090899652103,1.554546549492577,0.04697958816591448
62861.54112699878,2.65871016010351,PPG_1,PPG_3,172363.0,172363.0,127.80180039958213,4.434820760571,0.13369366575123875
62861.551236162886,2.668819324208016,PPG_1,PPG_3,172382.0,172382.0,146.83269180267234,6.974355360633974,0.21014937246606039
62861.56134532699,2.678928488312522,PPG_1,PPG_3,172360.0,172360.0,124.86358320573345,8.987880297366862,0.27076893323991713
62861.5714544911,2.689037652424304,PPG_1,PPG_3,172396.0,172396.0,160.89447460882366,10.348153429905086,0.3117215722277124
62861.58156365521,2.6991468165288097,PPG_1,PPG_3,172369.0,172369.0,133.92536601188476,11.001321869918286,0.3313859842360341
62861.59167281931,2.7092559806333156,PPG_1,PPG_3,172350.0,172350.0,114.95625741497497,10.971404485911675,0.3304852858414435
62861.60178198342,2.7193651447450975,PPG_1,PPG_3,172362.0,172362.0,126.98714881803608,10.354151949332808,0.3119021647827726
62861.61189114753,2.7294743088496034,PPG_1,PPG_3,172374.0,172374.0,139.01804022112628,9.303614037914187,0.28027447266696853
62861.62200031163,2.7395834729541093,PPG_1,PPG_3,172385.0,172385.0,150.0489316241874,8.01485618431745,0.2414748861291156
62861.632109475744,2.749692637065891,PPG_1,PPG_3,172337.0,172337.0,102.0798230272776,6.702962013323533,0.20197875326449238
62861.64221863985,2.759801801170397,PPG_1,PPG_3,172352.0,172352.0,117.1107144303387,5.577122032424786,0.16808400286995925
62861.65232780395,2.769910965274903,PPG_1,PPG_3,172308.0,172308.0,73.14160583342891,4.8122338430706915,0.1450561350577084
62861.662436968065,2.780020129386685,PPG_1,PPG_3,172330.0,172330.0,95.17249723649002,4.525084915707119,0.13641117539720976
62861.67254613217,2.7901292934911908,PPG_1,PPG_3,172379.0,172379.0,144.20338863958023,4.762876087481612,0.14357016117677487
62861.682655296274,2.8002384575956967,PPG_1,PPG_3,172362.0,172362.0,127.23428004264133,5.506953234268465,0.16597148782399843
62861.692764460386,2.8103476217074785,PPG_1,PPG_3,172341.0,172341.0,106.26517144573154,6.6872917097589815,0.2015069801555795
62861.70287362449,2.8204567858119844,PPG_1,PPG_3,172380.0,172380.0,145.29606284879264,8.200455807055354,0.24706258330877948
62861.712982788595,2.8305659499164904,PPG_1,PPG_3,172347.0,172347.0,112.32695425188285,9.92698635593514,0.29904183701773057
62861.72309195271,2.840675114028272,PPG_1,PPG_3,172365.0,172365.0,130.35784565494396,11.747348215432405,0.3538459938270605
62861.73320111681,2.850784278132778,PPG_1,PPG_3,172387.0,172387.0,152.38873705800506,13.555848310837671,0.40829303813376266
62861.743310280915,2.860893442237284,PPG_1,PPG_3,172380.0,172380.0,145.41962846109527,15.271020965029306,0.45993034892720724
62861.75341944503,2.871002606349066,PPG_1,PPG_3,172335.0,172335.0,100.45051986415638,16.83994924432032,0.5071647990406606
62861.76352860913,2.881111770453572,PPG_1,PPG_3,172370.0,172370.0,135.48141126724659,18.2353020612604,0.549173553610504
62861.77363777323,2.8912209345580777,PPG_1,PPG_3,172380.0,172380.0,145.5123026703077,19.44778568150722,0.5856768137211626
62861.78374693735,2.9013300986698596,PPG_1,PPG_3,172380.0,172380.0,145.5431940733979,20.47758758551019,0.6166802236943378
62861.79385610145,2.9114392627743655,PPG_1,PPG_3,172339.0,172339.0,104.574085476459,21.324926548933547,0.6421903700313599
62861.80396526556,2.9215484268788714,PPG_1,PPG_3,172356.0,172356.0,121.60497687954921,21.97883293224369,0.6618769986994908
62861.81407442966,2.9316575909833773,PPG_1,PPG_3,172335.0,172335.0,100.63586828261032,22.40717756391154,0.6747728228126386
62861.82418359377,2.941766755095159,PPG_1,PPG_3,172389.0,172389.0,154.66675968570053,22.553670136829776,0.6791831557888692
62861.83429275788,2.951875919199665,PPG_1,PPG_3,172367.0,172367.0,132.69765108876163,22.344696739782396,0.6728917633599343
62861.84440192198,2.961985083304171,PPG_1,PPG_3,172354.0,172354.0,119.72854249185184,21.703446903690928,0.653586175084854
62861.854511086094,2.972094247415953,PPG_1,PPG_3,172390.0,172390.0,155.75943389491295,20.566425070207064,0.6193547817315067
62861.8646202502,2.9822034115204588,PPG_1,PPG_3,172386.0,172386.0,151.79032529800315,18.898665858289636,0.569144908956338
62861.8747294143,2.9923125756249647,PPG_1,PPG_3,172339.0,172339.0,104.82121670106426,16.70464994000482,0.5030914527160196
62861.884838578415,3.0024217397367465,PPG_1,PPG_3,172368.0,172368.0,133.85210810415447,14.032299444482843,0.42263716565107085
62861.89494774252,3.0125309038412524,PPG_1,PPG_3,172374.0,172374.0,139.88299950721557,10.970170255668565,0.33044812787341127
62861.905056906624,3.0226400679457583,PPG_1,PPG_3,172352.0,172352.0,117.91389091030578,7.639658246633613,0.23017910638945382
62861.915166070736,3.03274923205754,PPG_1,PPG_3,172336.0,172336.0,101.94478231336689,4.1824594238186545,0.12609602784214344
62861.92527523484,3.042858396162046,PPG_1,PPG_3,172320.0,172320.0,85.9756737164571,0.7435788903927313,0.02256444316343815
62861.935384398945,3.052967560266552,PPG_1,PPG_3,172349.0,172349.0,115.0065651195182,-2.5465470689939984,-0.07648870830748694
62861.94549356306,3.063076724378334,PPG_1,PPG_3,172323.0,172323.0,89.03745652260841,-5.585966046570086,-0.16799402819060957
62861.95560272716,3.07318588848284,PPG_1,PPG_3,172309.0,172309.0,75.06834792566951,-8.308799184532099,-0.24996815519177695
62861.965711891266,3.0832950525873457,PPG_1,PPG_3,172332.0,172332.0,98.09923932875972,-10.686118193215371,-0.3215401687768455
62861.97582105538,3.0934042166991276,PPG_1,PPG_3,172337.0,172337.0,103.13013073182083,-12.719641345522128,-0.38276179959325946
62861.98593021948,3.1035133808036335,PPG_1,PPG_3,172348.0,172348.0,114.16102213491104,-14.429225876051131,-0.43423087328380117
62861.996039383586,3.1136225449081394,PPG_1,PPG_3,172341.0,172341.0,107.19191353797214,-15.838686524534705,-0.4766643608857697
62862.0061485477,3.1237317090199213,PPG_1,PPG_3,172307.0,172307.0,73.22280494106235,-16.965844082605756,-0.5105987785066747
62862.0162577118,3.133840873124427,PPG_1,PPG_3,172333.0,172333.0,99.25369634412345,-17.819710320133396,-0.5363054361865829
62862.02636687591,3.143950037228933,PPG_1,PPG_3,172328.0,172328.0,94.28458774718456,-18.403420332992035,-0.5538787197120439
62862.03647604002,3.154059201340715,PPG_1,PPG_3,172309.0,172309.0,75.31547915027477,-18.7202104278952,-0.5634160619421819
62862.04658520412,3.164168365445221,PPG_1,PPG_3,172289.0,172289.0,55.34637055333587,-18.780678740902317,-0.5652365323562086
62862.05669436823,3.1742775295497268,PPG_1,PPG_3,172339.0,172339.0,105.37726195642608,-18.60892911366683,-0.5600658057482818
62862.06680353234,3.1843866936615086,PPG_1,PPG_3,172312.0,172312.0,78.40815335948719,-18.244364191603417,-0.5490901455784614
62862.07691269645,3.1944958577660145,PPG_1,PPG_3,172329.0,172329.0,95.4390447625774,-17.738450576037412,-0.5338590150343884
62862.08702186055,3.2046050218705204,PPG_1,PPG_3,172306.0,172306.0,72.4699361656385,-17.14894740527821,-0.5161113216066614
62862.09713102466,3.2147141859823023,PPG_1,PPG_3,172331.0,172331.0,97.50082756872871,-16.533749758038965,-0.49759006543326423
62862.107240188765,3.224823350086808,PPG_1,PPG_3,172301.0,172301.0,67.53171897178981,-15.944455409341055,-0.4798486588418234
62862.11734935287,3.234932514191314,PPG_1,PPG_3,172365.0,172365.0,131.56261037488002,-15.419306193114535,-0.46403841768333015
62862.127458516974,3.24504167829582,PPG_1,PPG_3,172299.0,172299.0,65.59350177794113,-14.976569167936203,-0.4507092934619127
62862.137567681086,3.255150842407602,PPG_1,PPG_3,172336.0,172336.0,102.62439318103134,-14.610817107333194,-0.43969789307575063
62862.14767684519,3.265260006512108,PPG_1,PPG_3,172342.0,172342.0,108.65528458409244,-14.29391467481177,-0.4301571687881309
62862.157786009295,3.2753691706166137,PPG_1,PPG_3,172321.0,172321.0,87.68617598718265,-13.981057732599266,-0.4207382387932799
62862.16789517341,3.2854783347283956,PPG_1,PPG_3,172293.0,172293.0,59.717067390243756,-13.621838896716579,-0.4099235289003706
62862.17800433751,3.2955874988329015,PPG_1,PPG_3,172313.0,172313.0,79.74795879333396,-13.174630392880879,-0.3964597855007774
62862.188113501616,3.3056966629374074,PPG_1,PPG_3,172310.0,172310.0,76.77885019639507,-12.619211324754417,-0.37973823448294786
62862.19822266573,3.3158058270491892,PPG_1,PPG_3,172338.0,172338.0,104.80974159948528,-11.96250332595515,-0.35996725985152167
62862.20833182983,3.325914991153695,PPG_1,PPG_3,172317.0,172317.0,83.84063300254638,-11.236654292357118,-0.3381147122112447
62862.21844099394,3.336024155258201,PPG_1,PPG_3,172324.0,172324.0,90.87152440563659,-10.492546216694775,-0.31571245441347356
62862.22855015805,3.346133319369983,PPG_1,PPG_3,172295.0,172295.0,61.9024158086977,-9.791578998805782,-0.29460900340071855
62862.23865932215,3.356242483474489,PPG_1,PPG_3,172350.0,172350.0,116.9333072117879,-9.1958125977247,-0.2766727479819223
62862.24876848626,3.3663516475789947,PPG_1,PPG_3,172348.0,172348.0,114.96419861484901,-8.755694533519705,-0.2634224706925648
62862.25887765037,3.3764608116907766,PPG_1,PPG_3,172309.0,172309.0,75.99509001793922,-8.497591286075403,-0.25565196573931265
62862.26898681447,3.3865699757952825,PPG_1,PPG_3,172323.0,172323.0,90.02598142100032,-8.4155097501201,-0.2531808035667062
62862.27909597858,3.3966791398997884,PPG_1,PPG_3,172357.0,172357.0,124.05687282409053,-8.468721187754646,-0.25478279712472274
62862.28920514269,3.4067883040115703,PPG_1,PPG_3,172329.0,172329.0,96.08776422715164,-8.584343679702322,-0.25826374963222903
62862.299314306794,3.416897468116076,PPG_1,PPG_3,172297.0,172297.0,64.11865563021274,-8.665289896098662,-0.26070073166047925
62862.3094234709,3.427006632220582,PPG_1,PPG_3,172331.0,172331.0,98.14954703330295,-8.604018378328071,-0.25885607981264697
62862.31953263501,3.437115796332364,PPG_1,PPG_3,172321.0,172321.0,88.18043843636406,-8.298975763839891,-0.24967240943924376
62862.329641799115,3.44722496043687,PPG_1,PPG_3,172318.0,172318.0,85.21132983945427,-7.669522003894767,-0.23072195605313406
62862.33975096322,3.457334124541376,PPG_1,PPG_3,172313.0,172313.0,80.24222124251537,-6.667693674049182,-0.20056072376932335
62862.34986012733,3.4674432886531577,PPG_1,PPG_3,172330.0,172330.0,97.27311264560558,-5.2864284014085605,-0.15897609146001726
62862.35996929144,3.4775524527576636,PPG_1,PPG_3,172317.0,172317.0,84.30400404866668,-3.5633758192759215,-0.10710154607265285
62862.37007845554,3.4876616168621695,PPG_1,PPG_3,172310.0,172310.0,77.33489545175689,-1.5796419012232013,-0.047378879315081675
62862.38018761965,3.4977707809739513,PPG_1,PPG_3,172323.0,172323.0,90.365786854818,0.5470132884615839,0.016646602149932164
62862.39029678376,3.5078799450784572,PPG_1,PPG_3,172340.0,172340.0,107.3966782579082,2.6754457163210015,0.08072558948198114
62862.40040594786,3.517989109182963,PPG_1,PPG_3,172351.0,172351.0,118.42756966096931,4.660530728966309,0.14048893254768857
62862.41051511197,3.528098273294745,PPG_1,PPG_3,172358.0,172358.0,125.45846106405952,6.3749725247605165,0.19210423998064247
62862.42062427608,3.538207437399251,PPG_1,PPG_3,172332.0,172332.0,99.48935246712063,7.727530679836099,0.23282461040467003
62862.43073344018,3.548316601503757,PPG_1,PPG_3,172334.0,172334.0,101.52024387021083,8.673250300362513,0.26129662332374065
62862.44084260429,3.5584257656082627,PPG_1,PPG_3,172350.0,172350.0,117.55113527327194,9.215477307991847,0.2776210116849529
62862.4509517684,3.5685349297200446,PPG_1,PPG_3,172358.0,172358.0,125.58202667636215,9.401962421104487,0.28323536760452445
62862.4610609325,3.5786440938245505,PPG_1,PPG_3,172307.0,172307.0,74.61291807942325,9.316214689674178,0.280653830260818
62862.47117009661,3.5887532579290564,PPG_1,PPG_3,172338.0,172338.0,105.64380948251346,9.06434238510213,0.2730709152465988
62862.48127926072,3.5988624220408383,PPG_1,PPG_3,172341.0,172341.0,108.67470088557457,8.759753465435887,0.263900903894909
62862.49138842482,3.608971586145344,PPG_1,PPG_3,172324.0,172324.0,91.70559228866477,8.509339556581127,0.25636189561668477
62862.50149758893,3.61908075024985,PPG_1,PPG_3,172325.0,172325.0,92.73648369172588,8.402811350399602,0.25315473738837446
62862.51160675304,3.629189914361632,PPG_1,PPG_3,172352.0,172352.0,119.76737509481609,8.505379551688929,0.2562426749639637
62862.521715917144,3.639299078466138,PPG_1,PPG_3,172306.0,172306.0,73.7982664978772,8.85412292485155,0.2667420086043078
62862.53182508125,3.649408242570644,PPG_1,PPG_3,172354.0,172354.0,121.8291579009674,9.458089634706466,0.284925144062686
62862.54193424536,3.6595174066824256,PPG_1,PPG_3,172334.0,172334.0,101.86004930402851,10.30171554244706,0.3103235044463722
62862.552043409465,3.669626570786931,PPG_1,PPG_3,172343.0,172343.0,110.89094070711872,11.350672829773758,0.3419036099957261
62862.56215257357,3.6797357348914375,PPG_1,PPG_3,172344.0,172344.0,111.92183211017982,12.558349891938924,0.3782621629639856
62862.57226173768,3.6898448990032193,PPG_1,PPG_3,172341.0,172341.0,108.95272351327003,13.871090949502559,0.4177837923550958
62862.582370901786,3.699954063107725,PPG_1,PPG_3,172328.0,172328.0,95.98361491633113,15.231439771986699,0.4587387100786508
62862.59248006589,3.710063227212231,PPG_1,PPG_3,172340.0,172340.0,108.01450631939224,16.580037473418482,0.4993398463397571
62862.60258923,3.720172391324013,PPG_1,PPG_3,172345.0,172345.0,113.04539772248245,17.857864286561707,0.5378103409160432
62862.61269839411,3.730281555428519,PPG_1,PPG_3,172368.0,172368.0,136.07628912554355,19.00988288581649,0.5724932297227007
62862.62280755821,3.740390719533025,PPG_1,PPG_3,172329.0,172329.0,97.10718052863376,19.98874891308477,0.601963154602665
62862.63291672232,3.7504998836448062,PPG_1,PPG_3,172347.0,172347.0,115.13807193169487,20.756087680427044,0.625064799977128
62862.64302588643,3.7606090477493126,PPG_1,PPG_3,172326.0,172326.0,94.16896333478508,21.280965050677352,0.6408668568894887
62862.65313505053,3.7707182118538185,PPG_1,PPG_3,172354.0,172354.0,122.19985473784618,21.538059198977432,0.6486069817139508
62862.66324421464,3.7808273759656,PPG_1,PPG_3,172357.0,172357.0,125.23074614093639,21.507977038753523,0.6477013225355445
62862.67335337875,3.7909365400701063,PPG_1,PPG_3,172340.0,172340.0,108.2616375439975,21.17934923866281,0.6378075921246851
62862.68346254285,3.801045704174612,PPG_1,PPG_3,172336.0,172336.0,104.2925289470877,20.55036143132333,0.6188711667954325
62862.693571706965,3.811154868286394,PPG_1,PPG_3,172359.0,172359.0,127.32342035014881,19.628461810259882,0.5911162832641018
62862.70368087107,3.8212640323909,PPG_1,PPG_3,172352.0,172352.0,120.35431175323902,18.42863362803202,0.5549940301527183
62862.71379003517,3.831373196495406,PPG_1,PPG_3,172307.0,172307.0,75.38520315630012,16.97012338248758,0.5110838461484747
62862.723899199285,3.841482360607188,PPG_1,PPG_3,172338.0,172338.0,106.41609455939033,15.271545315603957,0.45994613512431215
62862.73400836339,3.8515915247116936,PPG_1,PPG_3,172312.0,172312.0,80.44698596245144,13.34695719115091,0.40200412276253455
62862.744117527494,3.861700688816199,PPG_1,PPG_3,172367.0,172367.0,135.47787736554164,11.206685648355073,0.3375687048075992
62862.7542266916,3.8718098529207055,PPG_1,PPG_3,172324.0,172324.0,92.50876876860275,8.863333313318822,0.26701929829327914
62862.76433585571,3.8819190170324873,PPG_1,PPG_3,172337.0,172337.0,105.53966017169296,6.3391910144401145,0.191026995095378
62862.774445019815,3.8920281811369937,PPG_1,PPG_3,172307.0,172307.0,75.57055157475406,3.671017962458299,0.1106984749320167
62862.78455418392,3.902137345241499,PPG_1,PPG_3,172357.0,172357.0,125.60144297784427,0.9112879863776472,0.027613524776940335
62862.79466334803,3.912246509353281,PPG_1,PPG_3,172300.0,172300.0,68.63233438090538,-1.8731878621119573,-0.05621642927107546
62862.804772512136,3.922355673457787,PPG_1,PPG_3,172312.0,172312.0,80.66322578399559,-4.605177286668865,-0.13846621716006016
62862.81488167624,3.932464837562293,PPG_1,PPG_3,172326.0,172326.0,94.69411718705669,-7.203343912232981,-0.21668711067158858
62862.82499084035,3.9425740016740742,PPG_1,PPG_3,172308.0,172308.0,76.7250085901469,-9.589580057593865,-0.2885275852520468
62862.83510000446,3.9526831657785806,PPG_1,PPG_3,172290.0,172290.0,58.755899993208004,-11.696327272478587,-0.35195371348022664
62862.84520916856,3.9627923298830865,PPG_1,PPG_3,172301.0,172301.0,69.78679139629821,-13.473330542722316,-0.4054525084396119
62862.85531833267,3.972901493994869,PPG_1,PPG_3,172299.0,172299.0,67.81768279935932,-14.891917266137977,-0.44816074737139017
62862.86542749678,3.9830106580993743,PPG_1,PPG_3,172328.0,172328.0,96.84857420242042,-15.944771524220847,-0.4798581758559003
62862.87553666088,3.99311982220388,PPG_1,PPG_3,172300.0,172300.0,68.87946560551063,-16.642118455681647,-0.5008526338439606
62862.885645824994,4.003228986315662,PPG_1,PPG_3,172307.0,172307.0,75.91035700857174,-17.00790245256385,-0.5118649957097559
62862.8957549891,4.013338150420168,PPG_1,PPG_3,172278.0,172278.0,46.941248411661945,-17.07859406143043,-0.5139932505933743
62862.9058641532,4.023447314524674,PPG_1,PPG_3,172303.0,172303.0,71.97213981472305,-16.903684474275174,-0.5087273896372679
62862.915973317315,4.033556478636456,PPG_1,PPG_3,172299.0,172299.0,68.00303121781326,-16.544611734138844,-0.4979170781303998
62862.92608248142,4.043665642740962,PPG_1,PPG_3,172308.0,172308.0,77.03392262087436,-16.070050065034152,-0.4836298351882226
62862.93619164552,4.0537748068454675,PPG_1,PPG_3,172290.0,172290.0,59.06481402396457,-15.548308795471012,-0.4679221943134934
62862.946300809635,4.063883970957249,PPG_1,PPG_3,172332.0,172332.0,101.09570542702568,-15.038913489297352,-0.45258624333658826
62862.95640997374,4.073993135061755,PPG_1,PPG_3,172335.0,172335.0,104.12659683011589,-14.585685133391491,-0.43894126513738596
62862.96651913784,4.084102299166261,PPG_1,PPG_3,172273.0,172273.0,42.15748823317699,-14.21473257278964,-0.4277732975193098
62862.97662830195,4.094211463278043,PPG_1,PPG_3,172259.0,172259.0,28.1883796362672,-13.939761438849041,-0.41949496479996706
62862.98673746606,4.104320627382549,PPG_1,PPG_3,172324.0,172324.0,93.2192710393283,-13.771052994565716,-0.41441579661847433
62862.996846630165,4.114429791487055,PPG_1,PPG_3,172291.0,172291.0,60.250162442418514,-13.72025344747574,-0.41288641589121006
62863.00695579428,4.124538955598837,PPG_1,PPG_3,172313.0,172313.0,82.28105384547962,-13.797535149510779,-0.41521307336028596
62863.01706495838,4.134648119703343,PPG_1,PPG_3,172293.0,172293.0,62.31194524856983,-14.004327649980812,-0.4214388073063285
62863.027174122486,4.144757283807849,PPG_1,PPG_3,172315.0,172315.0,84.34283665163093,-14.325710995668386,-0.4311144348092213
62863.0372832866,4.1548664479196304,PPG_1,PPG_3,172331.0,172331.0,100.37372805472114,-14.724604229046673,-0.4431235895814937
62863.0473924507,4.164975612024136,PPG_1,PPG_3,172300.0,172300.0,69.40461945778225,-15.140066053333994,-0.4556315614705668
62863.05750161481,4.175084776128642,PPG_1,PPG_3,172279.0,172279.0,48.435510860872455,-15.492572182795783,-0.46624417736035983
62863.06761077891,4.185193940233148,PPG_1,PPG_3,172290.0,172290.0,59.46640226393356,-15.696115441222002,-0.4723720890137897
62863.07771994302,4.19530310434493,PPG_1,PPG_3,172307.0,172307.0,76.49729366702377,-15.672399321433435,-0.47165808704708156
62863.08782910713,4.205412268449436,PPG_1,PPG_3,172294.0,172294.0,63.528185070084874,-15.362125498462895,-0.4623169249263789
62863.09793827123,4.215521432553942,PPG_1,PPG_3,172301.0,172301.0,70.55907647317508,-14.732296949937608,-0.4433551880847241
62863.108047435344,4.225630596665724,PPG_1,PPG_3,172311.0,172311.0,80.58996787623619,-13.781093395714835,-0.414718074825488
62863.11815659945,4.23573976077023,PPG_1,PPG_3,172277.0,172277.0,46.620859279326396,-12.541534758046453,-0.37739968914369904
62863.12826576355,4.2458489248747355,PPG_1,PPG_3,172289.0,172289.0,58.6517506823875,-11.083635777571109,-0.3335079080006911
62863.138374927665,4.255958088986517,PPG_1,PPG_3,172299.0,172299.0,68.68264208547771,-9.512855885233842,-0.28621771287631703
62863.14848409177,4.266067253091023,PPG_1,PPG_3,172277.0,172277.0,46.713533488538815,-7.9617952688407145,-0.23952118998549968
62863.158593255874,4.276176417195529,PPG_1,PPG_3,172335.0,172335.0,104.74442489159992,-6.573724215448945,-0.19773166155977043
62863.168702419985,4.286285581307311,PPG_1,PPG_3,172324.0,172324.0,93.77531629469013,-5.47977793806484,-0.16479710900696173
62863.17881158409,4.296394745411817,PPG_1,PPG_3,172322.0,172322.0,91.80620769775123,-4.7752025269575755,-0.14358502904996642
62863.188920748195,4.306503909516323,PPG_1,PPG_3,172293.0,172293.0,62.83709910084144,-4.501494712465739,-0.13534473006375702
62863.199029912306,4.316613073628105,PPG_1,PPG_3,172339.0,172339.0,108.86799050390255,-4.638227572868145,-0.1394612352978049
62863.20913907641,4.326722237732611,PPG_1,PPG_3,172315.0,172315.0,84.89888190699276,-5.104204485728574,-0.15349002395248657
62863.219248240515,4.336831401837117,PPG_1,PPG_3,172313.0,172313.0,82.92977331005386,-5.7672160172121485,-0.17345077392549182
62863.22935740463,4.346940565948898,PPG_1,PPG_3,172286.0,172286.0,55.96066471314407,-6.462661193112907,-0.1943879773026726
62863.23946656873,4.357049730053404,PPG_1,PPG_3,172279.0,172279.0,48.991556116205174,-7.018969697996224,-0.21113630587093274
62863.24957573283,4.36715889415791,PPG_1,PPG_3,172302.0,172302.0,72.02244751929538,-7.283835261514448,-0.21911039838485366
62863.25968489695,4.377268058269692,PPG_1,PPG_3,172310.0,172310.0,80.05333892235649,-7.144803236989978,-0.2149246740829492
62863.26979406105,4.387377222374198,PPG_1,PPG_3,172273.0,172273.0,43.0842303254467,-6.54156980810304,-0.19676361491942676
62863.27990322516,4.397486386478704,PPG_1,PPG_3,172296.0,172296.0,66.1151217285078,-5.4706417076661875,-0.1645220519347639
62863.29001238927,4.407595550590486,PPG_1,PPG_3,172316.0,172316.0,86.14601313159801,-3.982542107491338,-0.11972104525007835
62863.30012155337,4.417704714694992,PPG_1,PPG_3,172320.0,172320.0,90.17690453465912,-2.1713598362640036,-0.06519325085318067
62863.31023071748,4.427813878799498,PPG_1,PPG_3,172290.0,172290.0,60.207795937749324,-0.15916240371727766,-0.004613656170243646
62863.32033988159,4.4379230429112795,PPG_1,PPG_3,172312.0,172312.0,82.23868734081043,1.9207245999177478,0.058003813481851414
62863.330449045694,4.448032207015785,PPG_1,PPG_3,172329.0,172329.0,99.26957874390064,3.9399543530784236,0.11879512453296527
62863.3405582098,4.458141371120291,PPG_1,PPG_3,172316.0,172316.0,86.30047014696174,5.790848961335278,0.17451850602397612
62863.35066737391,4.468250535232073,PPG_1,PPG_3,172336.0,172336.0,106.33136155005195,7.399688839951656,0.22295454225973083
62863.360776538015,4.478359699336579,PPG_1,PPG_3,172320.0,172320.0,90.36225295311306,8.734309241368933,0.2631348752954951
62863.37088570212,4.488468863441085,PPG_1,PPG_3,172321.0,172321.0,91.39314435620327,9.803823521501151,0.2953338735399273
62863.380994866224,4.498578027545591,PPG_1,PPG_3,172310.0,172310.0,80.42403575926437,10.650526589248026,0.3208248754820113
62863.391104030336,4.508687191657373,PPG_1,PPG_3,172300.0,172300.0,70.45492716235458,11.336316174461915,0.34147138582839215
62863.40121319444,4.518796355761879,PPG_1,PPG_3,172300.0,172300.0,70.48581856541568,11.927859286526523,0.3592804941130609
62863.411322358545,4.528905519866385,PPG_1,PPG_3,172325.0,172325.0,95.5167099685059,12.485265994826255,0.3760618854001029
62863.421431522656,4.539014683978166,PPG_1,PPG_3,172315.0,172315.0,85.547601371567,13.057206694986105,0.3932808397819833
62863.43154068676,4.549123848082672,PPG_1,PPG_3,172331.0,172331.0,101.5784927746572,13.681855794617888,0.412086643160264
62863.441649850865,4.559233012187178,PPG_1,PPG_3,172312.0,172312.0,82.60938417771831,14.390552808144136,0.4334228088555411
62863.45175901498,4.56934217629896,PPG_1,PPG_3,172327.0,172327.0,97.64027558077942,15.211368957914791,0.4581344543720456
62863.46186817908,4.579451340403466,PPG_1,PPG_3,172321.0,172321.0,91.67116698386963,16.17146842123471,0.4870393895451379
62863.471977343186,4.589560504507972,PPG_1,PPG_3,172325.0,172325.0,95.70205838693073,17.298171608158725,0.5209601277827588
62863.4820865073,4.599669668619754,PPG_1,PPG_3,172336.0,172336.0,106.73294979002094,18.618519224703874,0.5607107616704351
62863.4921956714,4.60977883272426,PPG_1,PPG_3,172344.0,172344.0,114.76384119308204,20.1564583174594,0.607012245500606
62863.50230483551,4.619887996828766,PPG_1,PPG_3,172298.0,172298.0,68.79473259617225,21.9262337434936,0.6602934376216403
62863.51241399962,4.6299971609405475,PPG_1,PPG_3,172322.0,172322.0,92.82562399923336,23.92180368906167,0.7203724420516179
62863.52252316372,4.640106325045053,PPG_1,PPG_3,172306.0,172306.0,76.85651540232357,26.105539440840765,0.7861164016639629
62863.53263232783,4.650215489149559,PPG_1,PPG_3,172355.0,172355.0,125.88740680538467,28.40141863136345,0.8552365727531506
62863.54274149194,4.660324653261341,PPG_1,PPG_3,172312.0,172312.0,82.91829820847488,30.695345864322512,0.9242979778404887
62863.55285065605,4.670433817365847,PPG_1,PPG_3,172333.0,172333.0,103.94918961153599,32.84130527487606,0.9889046358128296
62863.56295982015,4.680542981470353,PPG_1,PPG_3,172318.0,172318.0,88.9800810146262,34.671494679353884,1.0440046625412942
62863.57306898426,4.690652145582135,PPG_1,PPG_3,172340.0,172340.0,111.0109724176873,36.01063562808612,1.0843210920254764
62863.583178148365,4.700761309686641,PPG_1,PPG_3,172365.0,172365.0,136.0418638207775,36.69491708299447,1.1049221983169863
62863.59328731247,4.710870473791147,PPG_1,PPG_3,172342.0,172342.0,113.07275522383861,36.59311285731809,1.1018572611350121
62863.60339647658,4.7209796379029285,PPG_1,PPG_3,172322.0,172322.0,93.10364662692882,35.624758291890345,1.07270379630391
62863.613505640686,4.731088802007434,PPG_1,PPG_3,172364.0,172364.0,135.13453802998993,33.77162281803356,1.0169129508913244
62863.62361480479,4.74119796611194,PPG_1,PPG_3,172364.0,172364.0,135.16542943308013,31.081774007631726,0.9359318562646968
62863.6337239689,4.751307130223722,PPG_1,PPG_3,172312.0,172312.0,83.19632083614124,27.665244479051385,0.833073175145255
62863.64383313301,4.761416294328228,PPG_1,PPG_3,172290.0,172290.0,61.22721223923145,23.679479651338934,0.7130769889565424
62863.65394229711,4.771525458432734,PPG_1,PPG_3,172287.0,172287.0,58.258103642292554,19.307459519262657,0.5814521278654469
62863.66405146122,4.781634622544516,PPG_1,PPG_3,172333.0,172333.0,104.28899504538276,14.737433083838761,0.44386605173280175
62863.67416062533,4.791743786649022,PPG_1,PPG_3,172325.0,172325.0,96.31988644844387,10.151386800737356,0.30579767905038024
62863.68426978943,4.801852950753528,PPG_1,PPG_3,172302.0,172302.0,73.35077785153408,5.720876408478541,0.17241189917594604
62863.694378953536,4.811962114858034,PPG_1,PPG_3,172324.0,172324.0,95.38166925459518,1.6035243968310438,0.04845412445754061
62863.70448811765,4.8220712789698155,PPG_1,PPG_3,172269.0,172269.0,40.41256065768539,-2.0644851976109795,-0.0619756628636705
62863.71459728175,4.832180443074321,PPG_1,PPG_3,172292.0,172292.0,63.443452060746495,-5.179747865375439,-0.15576434716052
62863.72470644586,4.842289607178827,PPG_1,PPG_3,172278.0,172278.0,49.4743434638076,-7.6833442987741325,-0.23113809266469915
62863.73481560997,4.852398771290609,PPG_1,PPG_3,172274.0,172274.0,45.50523486689781,-9.568681769827283,-0.287898417466625
62863.74492477407,4.862507935395115,PPG_1,PPG_3,172296.0,172296.0,67.53612626995891,-10.882819963836731,-0.32746210931057157
62863.75503393818,4.872617099499621,PPG_1,PPG_3,172281.0,172281.0,52.56701767304912,-11.72113530114083,-0.352700588661028
62863.76514310229,4.882726263611403,PPG_1,PPG_3,172265.0,172265.0,36.59790907611023,-12.216985254231165,-0.3676287406882115
62863.775252266394,4.892835427715909,PPG_1,PPG_3,172283.0,172283.0,54.628800479200436,-12.527961190891748,-0.3769910407758334
62863.7853614305,4.902944591820415,PPG_1,PPG_3,172303.0,172303.0,74.65969188226154,-12.819013953563564,-0.3857535300369851
62863.79547059461,4.9130537559321965,PPG_1,PPG_3,172288.0,172288.0,59.69058328535175,-13.243402942023222,-0.39853026481109166
62863.805579758715,4.923162920036702,PPG_1,PPG_3,172264.0,172264.0,35.721474688412854,-13.924926666013409,-0.4190483463364604
62863.81568892282,4.933272084141208,PPG_1,PPG_3,172284.0,172284.0,55.75236609150306,-14.944567110069384,-0.4497458334836648
62863.82579808693,4.94338124825299,PPG_1,PPG_3,172298.0,172298.0,69.78325749456417,-16.33146273851768,-0.4914999743447824
62863.83590725104,4.953490412357496,PPG_1,PPG_3,172286.0,172286.0,57.81414889765438,-18.057507703816274,-0.5434646089830312
62863.84601641514,4.963599576462002,PPG_1,PPG_3,172286.0,172286.0,57.84504030071548,-20.03758608550974,-0.6030772214748478
62863.85612557925,4.973708740573784,PPG_1,PPG_3,172246.0,172246.0,17.87593170380569,-22.138196773243287,-0.6663186022614663
62863.86623474336,4.98381790467829,PPG_1,PPG_3,172275.0,172275.0,46.906823106866796,-24.19389086450133,-0.7282077155394344
62863.87634390746,4.993927068782796,PPG_1,PPG_3,172272.0,172272.0,43.937714509957004,-26.02746411990671,-0.7834096171209046
62863.88645307157,5.0040362328945776,PPG_1,PPG_3,172264.0,172264.0,35.96860591301811,-27.470215665353162,-0.8268453667335597
62863.89656223568,5.0141453969990835,PPG_1,PPG_3,172240.0,172240.0,11.999497316108318,-28.381229687893036,-0.8542725263866202
62863.90667139978,5.024254561103589,PPG_1,PPG_3,172246.0,172246.0,18.030388719169423,-28.664793450384664,-0.862809550398608
62863.91678056389,5.034363725215371,PPG_1,PPG_3,172247.0,172247.0,19.06128012225963,-28.282524617610203,-0.8513008929603133
62863.926889728,5.044472889319877,PPG_1,PPG_3,172273.0,172273.0,45.09217152532074,-27.256109783879744,-0.8203994547623489
62863.9369988921,5.054582053424383,PPG_1,PPG_3,172254.0,172254.0,26.123062928410945,-25.65962788387793,-0.7723354701570464
62863.947108056214,5.064691217536165,PPG_1,PPG_3,172278.0,172278.0,50.15395433147205,-23.6041547635725,-0.7104530094721735
62863.95721722032,5.074800381640671,PPG_1,PPG_3,172292.0,172292.0,64.18484573456226,-21.218838167403188,-0.6386402190127739
62863.96732638442,5.084909545745177,PPG_1,PPG_3,172283.0,172283.0,55.215737137623364,-18.63281895414972,-0.5607850377829147
62863.977435548535,5.095018709856959,PPG_1,PPG_3,172282.0,172282.0,54.24662854071357,-15.96249252940741,-0.4803916877738722
62863.98754471264,5.1051278739614645,PPG_1,PPG_3,172263.0,172263.0,35.27751994377468,-13.307075888651717,-0.40044721452816817
62863.997653876744,5.11523703806597,PPG_1,PPG_3,172271.0,172271.0,43.30841134686489,-10.751664816940774,-0.323513527769305
62864.00776304085,5.125346202170476,PPG_1,PPG_3,172270.0,172270.0,42.33930274992599,-8.373649714890878,-0.2519205574663073
62864.01787220496,5.135455366282258,PPG_1,PPG_3,172256.0,172256.0,28.370194152987096,-6.247732828403488,-0.1879173034963334
62864.027981369065,5.145564530386764,PPG_1,PPG_3,172299.0,172299.0,71.4010855560773,-4.446170679168376,-0.133679134303038
62864.03809053317,5.15567369449127,PPG_1,PPG_3,172299.0,172299.0,71.43197695913841,-3.0332877372962237,-0.09114261449209587
62864.04819969728,5.165782858603052,PPG_1,PPG_3,172266.0,172266.0,38.46286836222862,-2.056574205440149,-0.06173749304419992
62864.058308861386,5.175892022707558,PPG_1,PPG_3,172296.0,172296.0,68.49375976528972,-1.5382993815962889,-0.046134213636823705
62864.06841802549,5.186001186812064,PPG_1,PPG_3,172307.0,172307.0,79.52465116837993,-1.4697478712221275,-0.04407038896127293
62864.0785271896,5.1961103509238455,PPG_1,PPG_3,172277.0,172277.0,49.55554257144104,-1.8086420044009215,-0.05427319952863006
62864.08863635371,5.2062195150283515,PPG_1,PPG_3,172289.0,172289.0,61.586433974531246,-2.4810714036237993,-0.07451748560062656
62864.09874551781,5.216328679132857,PPG_1,PPG_3,172263.0,172263.0,35.61732537759235,-3.388576662246723,-0.10183900974670908
62864.10885468192,5.226437843244639,PPG_1,PPG_3,172268.0,172268.0,40.64821678068256,-4.418076013983351,-0.13283331102440096
62864.11896384603,5.236547007349145,PPG_1,PPG_3,172310.0,172310.0,82.67910818374366,-5.450824890541323,-0.16392544310805907
62864.12907301013,5.246656171453651,PPG_1,PPG_3,172282.0,172282.0,54.709999586833874,-6.368772315269977,-0.19156134107256778
62864.13918217424,5.256765335565433,PPG_1,PPG_3,172270.0,172270.0,42.74089098989498,-7.060566172742437,-0.21238861716981722
62864.14929133835,5.266874499669939,PPG_1,PPG_3,172265.0,172265.0,37.77178239298519,-7.430119894423407,-0.22351447108002204
62864.15940050245,5.276983663774445,PPG_1,PPG_3,172282.0,172282.0,54.80267379604629,-7.406936939469428,-0.2228165206741877
62864.16950966656,5.287092827886227,PPG_1,PPG_3,172260.0,172260.0,32.8335651991365,-6.9546634269850705,-0.2092002891707741
62864.17961883067,5.2972019919907325,PPG_1,PPG_3,172279.0,172279.0,51.864456602197606,-6.075429892329566,-0.18272991886836112
62864.18972799477,5.307311156095238,PPG_1,PPG_3,172294.0,172294.0,66.89534800528781,-4.809568195230891,-0.14461964832804136
62864.199837158885,5.31742032020702,PPG_1,PPG_3,172262.0,172262.0,34.92623940834892,-3.2316402908905038,-0.09711425380875026
62864.20994632299,5.327529484311526,PPG_1,PPG_3,172284.0,172284.0,56.95713081143913,-1.4444248735920342,-0.04330801002778704
62864.220055487094,5.337638648416032,PPG_1,PPG_3,172277.0,172277.0,49.98802221450023,0.42839209848075477,0.013075370274960856
62864.230164651206,5.347747812527814,PPG_1,PPG_3,172277.0,172277.0,50.01891361759044,2.2515339781058916,0.06796322289357513
62864.24027381531,5.35785697663232,PPG_1,PPG_3,172282.0,172282.0,55.04980502065155,3.890150134823085,0.11729570936295865
62864.250382979415,5.367966140736826,PPG_1,PPG_3,172296.0,172296.0,69.08069642374176,5.224341737104745,0.15746313289122837
62864.26049214353,5.378075304848608,PPG_1,PPG_3,172289.0,172289.0,62.11158782680286,6.165027650935872,0.18578360008897915
62864.27060130763,5.3881844689531135,PPG_1,PPG_3,172338.0,172338.0,111.14247922989307,6.668451735670223,0.20093978034920187
62864.280710471736,5.3982936330576194,PPG_1,PPG_3,172283.0,172283.0,56.173370632954175,6.7448728278601395,0.2032405281362782
62864.29081963585,5.408402797169401,PPG_1,PPG_3,172290.0,172290.0,63.20426203601528,6.456800620172202,0.19456777202453474
62864.30092879995,5.418511961273907,PPG_1,PPG_3,172263.0,172263.0,36.23515343910549,5.905655137259529,0.17797488236761685
62864.31103796406,5.428621125378413,PPG_1,PPG_3,172263.0,172263.0,36.26604484216659,5.21150168561125,0.15707656788393706
62864.32114712816,5.438730289482919,PPG_1,PPG_3,172270.0,172270.0,43.2969362452568,4.493763376625541,0.13546820324561215
62864.33125629227,5.448839453594701,PPG_1,PPG_3,172296.0,172296.0,69.3278276483179,3.859276035855768,0.1163662079276677
62864.34136545638,5.458948617699207,PPG_1,PPG_3,172295.0,172295.0,68.35871905140812,3.3991774890673843,0.10251439446850238
62864.35147462048,5.469057781803713,PPG_1,PPG_3,172301.0,172301.0,74.38961045446922,3.1908568642296253,0.09624265452258902
62864.361583784594,5.479166945915495,PPG_1,PPG_3,172262.0,172262.0,35.42050185755943,3.299126554465127,0.0995022421976476
62864.3716929487,5.4892761100200005,PPG_1,PPG_3,172283.0,172283.0,56.451393260620534,3.773522400784409,0.11378449284783257
62864.3818021128,5.499385274124506,PPG_1,PPG_3,172290.0,172290.0,63.48228466371074,4.643225522943406,0.13996793875760835
62864.391911276914,5.509494438236288,PPG_1,PPG_3,172284.0,172284.0,57.51317606677185,5.912634276661376,0.1781849976522112
62864.40202044102,5.519603602340794,PPG_1,PPG_3,172284.0,172284.0,57.54406746986206,7.558509731865551,0.22773603392834366
62864.41212960512,5.5297127664453,PPG_1,PPG_3,172275.0,172275.0,48.57495887292316,9.52809031054398,0.28703259758646926
62864.422238769235,5.539821930557082,PPG_1,PPG_3,172299.0,172299.0,72.60585027601337,11.738527042471139,0.3535804219333794
62864.43234793334,5.549931094661588,PPG_1,PPG_3,172274.0,172274.0,47.636741679074476,14.078905711289632,0.42404030269278087
62864.44245709744,5.560040258766094,PPG_1,PPG_3,172300.0,172300.0,73.66763308216468,16.415555527872005,0.4943879219248376
62864.45256626155,5.570149422877876,PPG_1,PPG_3,172287.0,172287.0,60.69852448522579,18.600598157710373,0.5601712266540435
62864.46267542566,5.5802585869823815,PPG_1,PPG_3,172308.0,172308.0,81.729415888316,20.48330709439598,0.6168524163055012
62864.472784589765,5.590367751086887,PPG_1,PPG_3,172316.0,172316.0,89.7603072913771,21.922980486394593,0.6601954944510201
62864.48289375388,5.600476915198669,PPG_1,PPG_3,172263.0,172263.0,36.79119869446731,22.801015310492925,0.6866297761477521
62864.49300291798,5.610586079303175,PPG_1,PPG_3,172311.0,172311.0,84.82209009752842,23.03070102265566,0.6935447374344632
62864.503112082086,5.620695243407681,PPG_1,PPG_3,172309.0,172309.0,82.85298150061863,22.5657137902099,0.6795457442846444
62864.5132212462,5.630804407519463,PPG_1,PPG_3,172312.0,172312.0,85.88387290367973,21.40829372520462,0.6447002379333234
62864.5233304103,5.640913571623969,PPG_1,PPG_3,172299.0,172299.0,72.91476430676994,19.61482048510624,0.5907055949611654
62864.53343957441,5.651022735728475,PPG_1,PPG_3,172322.0,172322.0,95.94565570983104,17.29488453632496,0.5208611665793688
62864.54354873852,5.661131899840257,PPG_1,PPG_3,172299.0,172299.0,72.97654711292125,14.601459606743692,0.43977240863555184
62864.55365790262,5.671241063944763,PPG_1,PPG_3,172265.0,172265.0,39.00743851598236,11.711609667154363,0.35277004236513054
62864.56376706673,5.6813502280492685,PPG_1,PPG_3,172231.0,172231.0,5.0383299190725666,8.800029358788116,0.2651134575217582
62864.57387623084,5.69145939216105,PPG_1,PPG_3,172273.0,172273.0,47.06922132213367,6.012891905267723,0.18120337269166145
62864.583985394944,5.701568556265556,PPG_1,PPG_3,172289.0,172289.0,63.100112725194776,3.4518405265894816,0.10409987778950194
62864.59409455905,5.711677720370062,PPG_1,PPG_3,172274.0,172274.0,48.131004128284985,1.172498119445652,0.035477566213623926
62864.60420372316,5.721786884481844,PPG_1,PPG_3,172310.0,172310.0,84.16189553134609,-0.8067329070517719,-0.02410953564315328
62864.614312887265,5.73189604858635,PPG_1,PPG_3,172237.0,172237.0,11.192786934436299,-2.4932853817122056,-0.07488520192413138
62864.62442205137,5.742005212690856,PPG_1,PPG_3,172270.0,172270.0,44.223678337497404,-3.911129919475146,-0.11757109647493888
62864.63453121547,5.752114376795362,PPG_1,PPG_3,172304.0,172304.0,78.25456974058761,-5.093274117240716,-0.1531609522212442
62864.644640379585,5.762223540907144,PPG_1,PPG_3,172254.0,172254.0,28.285461143648718,-6.0744569092474645,-0.18270062605653575
62864.65474954369,5.7723327050116495,PPG_1,PPG_3,172284.0,172284.0,58.316352546738926,-6.885381904991337,-0.20711448662798615
62864.664858707794,5.782441869116155,PPG_1,PPG_3,172264.0,172264.0,38.34724394980003,-7.551178596948447,-0.22715908716648991
62864.674967871906,5.792551033227937,PPG_1,PPG_3,172240.0,172240.0,14.37813535289024,-8.094267646501468,-0.24350942832412853
62864.68507703601,5.802660197332443,PPG_1,PPG_3,172288.0,172288.0,62.409026755951345,-8.53923052877986,-0.2569055646183987
62864.695186200115,5.812769361436949,PPG_1,PPG_3,172246.0,172246.0,20.439918159041554,-8.91689723281237,-0.26827566950247744
62864.70529536423,5.822878525548731,PPG_1,PPG_3,172237.0,172237.0,11.470809562102659,-9.266075708933363,-0.2787881024343906
62864.71540452833,5.832987689653237,PPG_1,PPG_3,172257.0,172257.0,31.501700965192867,-9.631755935192784,-0.28979734016228237
62864.72551369243,5.843096853757743,PPG_1,PPG_3,172294.0,172294.0,68.53259236825397,-10.05782930229802,-0.3026247851569624
62864.73562285655,5.853206017869525,PPG_1,PPG_3,172278.0,172278.0,52.56348377134418,-10.574643810108753,-0.3181841000149535
62864.74573202065,5.863315181974031,PPG_1,PPG_3,172265.0,172265.0,39.594375174405286,-11.186893900939548,-0.336616616500266
62864.75584118476,5.8734243460785365,PPG_1,PPG_3,172265.0,172265.0,39.625266577495495,-11.868426246750435,-0.35713495759579167
62864.76595034887,5.883533510190318,PPG_1,PPG_3,172277.0,172277.0,51.6561579805566,-12.566088719715449,-0.3781389153357758
62864.77605951297,5.893642674294824,PPG_1,PPG_3,172234.0,172234.0,8.687049383646809,-13.210805086252002,-0.3975488676289802
62864.78616867708,5.90375183839933,PPG_1,PPG_3,172239.0,172239.0,13.717940786707914,-13.73281510346409,-0.41326459947101796
62864.79627784119,5.913861002511112,PPG_1,PPG_3,172270.0,172270.0,44.74883218979812,-14.076805905881224,-0.4236208513218683
62864.806387005294,5.923970166615618,PPG_1,PPG_3,172246.0,172246.0,20.779723592859227,-14.21247726255244,-0.4277053987247661
62864.8164961694,5.934079330720124,PPG_1,PPG_3,172254.0,172254.0,28.810614995949436,-14.139045340592785,-0.4254946434593274
62864.82660533351,5.944188494831906,PPG_1,PPG_3,172254.0,172254.0,28.84150639901054,-13.884925224483,-0.41784405540782205
62864.836714497615,5.954297658936412,PPG_1,PPG_3,172227.0,172227.0,1.8723978021007497,-13.503337255366196,-0.4063558961789715
62864.84682366172,5.9644068230409175,PPG_1,PPG_3,172281.0,172281.0,55.903289205161855,-13.063065193714976,-0.39310098261350923
62864.85693282583,5.974515987152699,PPG_1,PPG_3,172281.0,172281.0,55.93418060822296,-12.634142031611226,-0.3801877411541548
62864.867041989935,5.984625151257205,PPG_1,PPG_3,172255.0,172255.0,29.96507201131317,-12.27149465419646,-0.36926981094448763
62864.87715115404,5.994734315361711,PPG_1,PPG_3,172261.0,172261.0,35.99596341437427,-12.002019853692932,-0.36115695187423835
62864.88726031815,6.004843479473493,PPG_1,PPG_3,172279.0,172279.0,54.02685481746448,-11.818415094609074,-0.3556293124352589
62864.897369482256,6.014952643577999,PPG_1,PPG_3,172266.0,172266.0,41.05774622052559,-11.679635717964308,-0.3514511943979796
62864.90747864636,6.025061807682505,PPG_1,PPG_3,172252.0,172252.0,27.088637623615796,-11.517535193684717,-0.3465709655000028
62864.91758781047,6.035170971794287,PPG_1,PPG_3,172268.0,172268.0,43.1195290266769,-11.249564981450225,-0.33850340384740685
62864.92769697458,6.045280135898793,PPG_1,PPG_3,172229.0,172229.0,4.1504204297671095,-10.795639662341122,-0.3248374427428104
62864.93780613868,6.055389300003299,PPG_1,PPG_3,172255.0,172255.0,30.181311832828214,-10.095281659657777,-0.30375233287771614
62864.947915302786,6.0654984641078045,PPG_1,PPG_3,172255.0,172255.0,30.212203235918423,-9.120636772884142,-0.27440949044807655
62864.9580244669,6.075607628219586,PPG_1,PPG_3,172266.0,172266.0,41.24309463897953,-7.882346988890433,-0.23712930511386804
62864.968133631,6.085716792324092,PPG_1,PPG_3,172255.0,172255.0,30.273986042069737,-6.428262612173658,-0.19335236714968154
62864.97824279511,6.095825956428598,PPG_1,PPG_3,172267.0,172267.0,42.30487744513084,-4.837089558114627,-0.14544821165967659
62864.98835195922,6.10593512054038,PPG_1,PPG_3,172260.0,172260.0,35.33576884822105,-3.208779910869688,-0.09642601490457564
62864.99846112332,6.116044284644886,PPG_1,PPG_3,172268.0,172268.0,43.366660251282156,-1.652452712554182,-0.049570935307014855
62865.00857028743,6.126153448749392,PPG_1,PPG_3,172286.0,172286.0,61.397551654372364,-0.2725491311917358,-0.008027298331656059
62865.01867945154,6.136262612861174,PPG_1,PPG_3,172286.0,172286.0,61.42844305743347,0.8450124778015929,0.02561822183996094
62865.02878861565,6.14637177696568,PPG_1,PPG_3,172244.0,172244.0,19.459334460523678,1.6437090838372665,0.04966393220896817
62865.03889777975,6.1564809410701855,PPG_1,PPG_3,172278.0,172278.0,53.49022586358478,2.1023986036511353,0.06347332523680164
62865.04900694386,6.166590105181967,PPG_1,PPG_3,172305.0,172305.0,80.52111726667499,2.237465796545725,0.0675396835713118
62865.059116107965,6.176699269286473,PPG_1,PPG_3,172279.0,172279.0,54.5520086697361,2.102106230223909,0.06346452298736481
62865.06922527207,6.186808433390979,PPG_1,PPG_3,172239.0,172239.0,14.582900072826305,1.7805205190089035,0.05378280302980957
62865.07933443618,6.196917597502761,PPG_1,PPG_3,172280.0,172280.0,55.61379147588741,1.3754858156677552,0.04158875200675688
62865.089443600285,6.207026761607267,PPG_1,PPG_3,172260.0,172260.0,35.64468287897762,0.9927498471094056,0.030066030890618222
62865.09955276439,6.217135925711773,PPG_1,PPG_3,172279.0,172279.0,54.675574282038724,0.7271216457956992,0.02206897825966658
62865.1096619285,6.227245089823555,PPG_1,PPG_3,172251.0,172251.0,26.706465685128933,0.6518119971619295,0.01980169180151122
62865.119771092606,6.237354253928061,PPG_1,PPG_3,172260.0,172260.0,35.73735708819004,0.8106461957954456,0.024583584084729847
62865.12988025671,6.2474634180325666,PPG_1,PPG_3,172258.0,172258.0,33.76824849128025,1.2140796878232356,0.03672942873856845
62865.13998942082,6.257572582144348,PPG_1,PPG_3,172292.0,172292.0,67.79913989434135,1.8408746250771457,0.0555998351082362
62865.15009858493,6.267681746248854,PPG_1,PPG_3,172258.0,172258.0,33.830031297402456,2.645421853190923,0.0798216854068556
62865.16020774903,6.27779091035336,PPG_1,PPG_3,172269.0,172269.0,44.860922700492665,3.568131727547265,0.10760096257634524
62865.17031691314,6.287900074465142,PPG_1,PPG_3,172279.0,172279.0,54.89181410355377,4.546467312150519,0.13705491784958512
62865.18042607725,6.298009238569648,PPG_1,PPG_3,172308.0,172308.0,83.92270550664398,5.525697398176438,0.16653580315103786
62865.19053524135,6.308118402674154,PPG_1,PPG_3,172255.0,172255.0,30.953596909705084,6.467626914445023,0.19489371047786813
62865.200644405464,6.318227566785936,PPG_1,PPG_3,172279.0,172279.0,54.98448831279529,7.354349252130125,0.2215895400939923
62865.21075356957,6.328336730890442,PPG_1,PPG_3,172283.0,172283.0,59.0153797158564,8.18631201824673,0.24663676774046167
62865.22086273367,6.338445894994948,PPG_1,PPG_3,172291.0,172291.0,67.0462711189466,8.9767497458364,0.2704338347603114
62865.230971897785,6.3485550591067295,PPG_1,PPG_3,172254.0,172254.0,30.07716252200771,9.743801974323596,0.293526853542065
62865.24108106189,6.358664223211235,PPG_1,PPG_3,172249.0,172249.0,25.10805392509792,10.500808517500428,0.3163174350308518
62865.251190225994,6.368773387315741,PPG_1,PPG_3,172275.0,172275.0,51.138945328159025,11.247948772959608,0.33881098020436806
62865.2612993901,6.378882551420247,PPG_1,PPG_3,172295.0,172295.0,71.16983673124923,11.970282664481925,0.36055770031561857
62865.27140855421,6.388991715532029,PPG_1,PPG_3,172289.0,172289.0,65.20072813431034,12.643568593996406,0.3808277732498085
62865.281517718315,6.399100879636535,PPG_1,PPG_3,172265.0,172265.0,41.23161953740055,13.243712445098307,0.3988958170029484
62865.29162688242,6.409210043741041,PPG_1,PPG_3,172287.0,172287.0,63.26251094046165,13.75512270582734,0.41429243058099524
62865.30173604653,6.419319207852823,PPG_1,PPG_3,172303.0,172303.0,79.29340234355186,14.17676619777137,0.42698650892018647
62865.31184521064,6.429428371957329,PPG_1,PPG_3,172284.0,172284.0,60.324293746612966,14.526016339356444,0.43750109942605164
62865.32195437474,6.4395375360618345,PPG_1,PPG_3,172269.0,172269.0,45.355185149703175,14.838750526377877,0.4469163337300127
62865.33206353885,6.449646700173616,PPG_1,PPG_3,172297.0,172297.0,73.38607655276428,15.164506574547577,0.45672360663695566
62865.34217270296,6.459755864278122,PPG_1,PPG_3,172276.0,172276.0,52.41696795585449,15.558082734503651,0.4685726845958861
62865.35228186706,6.469865028382628,PPG_1,PPG_3,172278.0,172278.0,54.44785935891559,16.069687972859544,0.48397516820707
62865.36239103117,6.47997419249441,PPG_1,PPG_3,172280.0,172280.0,56.4787507620058,16.73488841487637,0.5040018179326327
62865.37250019528,6.490083356598916,PPG_1,PPG_3,172282.0,172282.0,58.50964216506691,17.56565909047599,0.529013156277597
62865.38260935938,6.500192520703422,PPG_1,PPG_3,172283.0,172283.0,59.540533568157116,18.543987900853164,0.5584669076047114
62865.39271852349,6.510301684815204,PPG_1,PPG_3,172280.0,172280.0,56.57142497121822,19.6186879677824,0.5908220301226339
62865.4028276876,6.52041084891971,PPG_1,PPG_3,172257.0,172257.0,33.60231637430843,20.705736900197213,0.6235489299094318
62865.4129368517,6.530520013024216,PPG_1,PPG_3,172305.0,172305.0,81.63320777736953,21.693305463731583,0.6532808549843999
62865.423046015814,6.5406291771359975,PPG_1,PPG_3,172298.0,172298.0,74.66409918045974,22.452654931294003,0.6761419729957744
62865.43315517992,6.550738341240503,PPG_1,PPG_3,172272.0,172272.0,48.69499058352085,22.853543270765844,0.6882111928076607
62865.44326434402,6.560847505345009,PPG_1,PPG_3,172298.0,172298.0,74.72588198658195,22.780623135717253,0.6860158454953059
62865.453373508135,6.570956669456791,PPG_1,PPG_3,172301.0,172301.0,77.75677338967216,22.148505890020974,0.6669852047057939
62865.46348267224,6.581065833561297,PPG_1,PPG_3,172296.0,172296.0,72.78766479273327,20.914497520957106,0.6298339164554023
62865.473591836344,6.591174997665803,PPG_1,PPG_3,172316.0,172316.0,92.81855619582348,19.08672312583801,0.5748065964532961
62865.483701000456,6.601284161777585,PPG_1,PPG_3,172266.0,172266.0,42.84944759888458,16.724296162597227,0.5036829255916173
62865.49381016456,6.611393325882091,PPG_1,PPG_3,172273.0,172273.0,49.88033900197479,13.928059900849005,0.41949891032824205
62865.503919328665,6.621502489986597,PPG_1,PPG_3,172274.0,172274.0,50.911230405035894,10.824346702086732,0.3260579365192595
62865.51402849278,6.6316116540983785,PPG_1,PPG_3,172275.0,172275.0,51.9421218081261,7.546743729475799,0.22738180444555006
62865.52413765688,6.641720818202884,PPG_1,PPG_3,172243.0,172243.0,19.973013211187208,4.2197403536860465,0.1272184145345423
62865.534246820986,6.65182998230739,PPG_1,PPG_3,172250.0,172250.0,27.003904614277417,0.9462343495277911,0.028665626564287828
62865.5443559851,6.661939146419172,PPG_1,PPG_3,172254.0,172254.0,31.034796017338522,-2.1987177659177637,-0.06601689383322935
62865.5544651492,6.672048310523678,PPG_1,PPG_3,172296.0,172296.0,73.06568742042873,-5.165601235403256,-0.15533844605559727
62865.56457431331,6.682157474628184,PPG_1,PPG_3,172255.0,172255.0,32.096578823489835,-7.92111254121754,-0.23829638812950638
62865.57468347741,6.69226663873269,PPG_1,PPG_3,172253.0,172253.0,30.127470226580044,-10.437531762308481,-0.31405617889372667
62865.58479264152,6.702375802844472,PPG_1,PPG_3,172256.0,172256.0,33.15836162964115,-12.685694574904472,-0.3817397917268597
62865.59490180563,6.712484966948978,PPG_1,PPG_3,172270.0,172270.0,47.18925303273136,-14.632185438440915,-0.44034121207448235
62865.60501096973,6.722594131053484,PPG_1,PPG_3,172233.0,172233.0,10.220144435792463,-16.23965401079693,-0.4887359635058261
62865.61512013384,6.7327032951652654,PPG_1,PPG_3,172250.0,172250.0,27.25103583888267,-17.4700477035701,-0.5257784276313785
62865.62522929795,6.742812459269771,PPG_1,PPG_3,172252.0,172252.0,29.281927241943777,-18.290123962184573,-0.550467797845457
62865.63533846205,6.752921623374277,PPG_1,PPG_3,172258.0,172258.0,35.312818645033985,-18.67772930517772,-0.5621371172649471
62865.64544762616,6.763030787486059,PPG_1,PPG_3,172222.0,172222.0,-0.6562899519049097,-18.6283403092182,-0.5606502028555403
62865.65555679027,6.773139951590565,PPG_1,PPG_3,172218.0,172218.0,-4.625398548814701,-18.161594000868796,-0.5465982506354355
62865.66566595437,6.783249115695071,PPG_1,PPG_3,172250.0,172250.0,27.405492854246404,-17.324843727564133,-0.5214068893963559
62865.675775118485,6.793358279806853,PPG_1,PPG_3,172284.0,172284.0,61.43638425733661,-16.189640453125573,-0.48723024592395453
62865.68588428259,6.803467443911359,PPG_1,PPG_3,172270.0,172270.0,47.46727566039772,-14.84184984882783,-0.44665340828109457
62865.695993446694,6.813576608015865,PPG_1,PPG_3,172209.0,172209.0,-13.501832936512074,-13.372013592748235,-0.4024022412716566
62865.706102610806,6.8236857721276465,PPG_1,PPG_3,172254.0,172254.0,31.52905846654903,-11.870892593285804,-0.3572092098888538
62865.71621177491,6.833794936232152,PPG_1,PPG_3,172270.0,172270.0,47.559949869610136,-10.427766197102656,-0.3137621749493573
62865.726320939015,6.843904100336658,PPG_1,PPG_3,172247.0,172247.0,24.590841272700345,-9.126738282680204,-0.274593183650553
62865.73643010313,6.85401326444844,PPG_1,PPG_3,172252.0,172252.0,29.62173267576145,-8.040736933262085,-0.24189782259465198
62865.74653926723,6.864122428552946,PPG_1,PPG_3,172268.0,172268.0,45.65262407885166,-7.225502650107991,-0.21735422580524352
62865.756648431336,6.874231592657452,PPG_1,PPG_3,172272.0,172272.0,49.683515481912764,-6.71459997310514,-0.20197289363840534
62865.76675759545,6.884340756769234,PPG_1,PPG_3,172263.0,172263.0,40.71440688500297,-6.516445216669055,-0.19600720924022916
62865.77686675955,6.89444992087374,PPG_1,PPG_3,172251.0,172251.0,28.745298288064077,-6.61542200413651,-0.19898702303524474
62865.78697592366,6.904559084978246,PPG_1,PPG_3,172243.0,172243.0,20.776189691154286,-6.977725345018641,-0.20989459561629847
62865.79708508777,6.9146682490900275,PPG_1,PPG_3,172253.0,172253.0,30.80708109421539,-7.559386304727959,-0.2274061899619296
62865.80719425187,6.924777413194533,PPG_1,PPG_3,172281.0,172281.0,58.8379724973056,-8.312824617838555,-0.25008934564465396
62865.81730341598,6.934886577299039,PPG_1,PPG_3,172232.0,172232.0,9.868863900366705,-9.190704375285767,-0.27651895887559735
62865.82741258009,6.944995741410821,PPG_1,PPG_3,172254.0,172254.0,31.899755303456914,-10.148533996576079,-0.3053555577572683
62865.83752174419,6.955104905515327,PPG_1,PPG_3,172251.0,172251.0,28.93064670651802,-11.146706156970346,-0.3354067167153355
62865.8476309083,6.965214069619833,PPG_1,PPG_3,172270.0,172270.0,47.96153810960823,-12.150809029613402,-0.36563642681276975
62865.85774007241,6.975323233731615,PPG_1,PPG_3,172223.0,172223.0,0.9924295126693323,-13.129910058604581,-0.39511342669884075
62865.867849236514,6.985432397836121,PPG_1,PPG_3,172255.0,172255.0,33.02332091575954,-14.053840950811352,-0.42292946406158144
62865.87795840062,6.995541561940627,PPG_1,PPG_3,172281.0,172281.0,59.054212318820646,-14.889612073238919,-0.4480913468000386
62865.88806756472,7.005650726045133,PPG_1,PPG_3,172279.0,172279.0,57.085103721910855,-15.597582508593568,-0.4694056379961095
62865.898176728835,7.0157598901569145,PPG_1,PPG_3,172225.0,172225.0,3.1159951249719597,-16.131433355966127,-0.48547785209989186
62865.90828589294,7.02586905426142,PPG_1,PPG_3,172229.0,172229.0,7.1468865280621685,-16.44586856188136,-0.49494429759887165
62865.91839505704,7.035978218365926,PPG_1,PPG_3,172218.0,172218.0,-3.8222220688767266,-16.509316367546557,-0.4968544691797263
62865.92850422115,7.046087382477708,PPG_1,PPG_3,172275.0,172275.0,53.20866933421348,-16.31345020523805,-0.4909576856271629
62865.93861338526,7.056196546582214,PPG_1,PPG_3,172242.0,172242.0,20.239560737274587,-15.874057487714994,-0.477729245761552
62865.948722549365,7.06630571068672,PPG_1,PPG_3,172239.0,172239.0,17.270452140364796,-15.224713894395723,-0.4581799853077919
62865.95883171348,7.076414874798502,PPG_1,PPG_3,172268.0,172268.0,46.3013435434259,-14.407587468333713,-0.4335794233078183
62865.96894087758,7.086524038903008,PPG_1,PPG_3,172276.0,172276.0,54.33223494651611,-13.464019678844624,-0.40517219381902086
62865.979050041686,7.096633203007514,PPG_1,PPG_3,172237.0,172237.0,15.363126349577215,-12.426972980783995,-0.3739506707121762
62865.9891592058,7.1067423671192955,PPG_1,PPG_3,172236.0,172236.0,14.394017752667423,-11.31775109894701,-0.34055622793620927
62865.9992683699,7.116851531223801,PPG_1,PPG_3,172269.0,172269.0,47.42490915572853,-10.146474947079852,-0.3052935676255367
62866.00937753401,7.126960695328307,PPG_1,PPG_3,172269.0,172269.0,47.45580055878963,-8.912935864340962,-0.26815640779758404
62866.01948669812,7.137069859440089,PPG_1,PPG_3,172281.0,172281.0,59.48669196187984,-7.606925535096266,-0.22883741498024496
62866.02959586222,7.147179023544595,PPG_1,PPG_3,172242.0,172242.0,20.517583364940947,-6.211348047993215,-0.18682189644818292
62866.03970502633,7.157288187649101,PPG_1,PPG_3,172254.0,172254.0,32.548474768031156,-4.710834652370266,-0.1416471577009477
62866.04981419044,7.167397351760883,PPG_1,PPG_3,172246.0,172246.0,24.57936617109226,-3.1038454083863494,-0.0932668370198038
62866.05992335454,7.177506515865389,PPG_1,PPG_3,172247.0,172247.0,25.61025757418247,-1.412869824237522,-0.04235800777195619
62866.07003251865,7.187615679969895,PPG_1,PPG_3,172248.0,172248.0,26.641148977243574,0.3121946065419663,0.009577106709483321
62866.08014168276,7.197724844081677,PPG_1,PPG_3,172281.0,172281.0,59.67204038033378,1.9999665146850458,0.06038948548443771
62866.090250846864,7.2078340081861825,PPG_1,PPG_3,172295.0,172295.0,73.70293178339489,3.572066539763384,0.10771942477361794
62866.10036001097,7.217943172290688,PPG_1,PPG_3,172280.0,172280.0,58.7338231864851,4.961370248409721,0.14954606375047785
62866.11046917508,7.22805233640247,PPG_1,PPG_3,172261.0,172261.0,39.7647145895462,6.127119933769913,0.1846423432201824
62866.120578339185,7.238161500506976,PPG_1,PPG_3,172295.0,172295.0,73.79560599263641,7.06273991732693,0.21281029456748343
62866.13068750329,7.248270664611482,PPG_1,PPG_3,172274.0,172274.0,52.826497395697515,7.796687324777775,0.23490665337542171
62866.1407966674,7.258379828723264,PPG_1,PPG_3,172283.0,172283.0,61.857388798787724,8.387839349811177,0.25270398752031026
62866.150905831506,7.26848899282777,PPG_1,PPG_3,172274.0,172274.0,52.88828020184883,8.915807298049549,0.2685990899553541
62866.16101499561,7.278598156932276,PPG_1,PPG_3,172275.0,172275.0,53.91917160493904,9.466785565688149,0.28518694539775397
62866.17112415972,7.288707321044058,PPG_1,PPG_3,172269.0,172269.0,47.95006300800014,10.116850689301101,0.3047579283783574
62866.18123332383,7.2988164851485635,PPG_1,PPG_3,172244.0,172244.0,22.98095441109035,10.91560923632638,0.3288055035544576
62866.19134248793,7.308925649253069,PPG_1,PPG_3,172261.0,172261.0,40.01184581415146,11.874179658783529,0.35766440513550674
62866.20145165203,7.319034813357575,PPG_1,PPG_3,172281.0,172281.0,60.042737217241665,12.96218422166223,0.39042007531293965
62866.21156081615,7.329143977469357,PPG_1,PPG_3,172293.0,172293.0,72.07362862030277,14.116255564964492,0.42516476441830164
62866.22166998025,7.339253141573863,PPG_1,PPG_3,172309.0,172309.0,88.10452002339298,15.257345091133848,0.45951862049334613
62866.23177914436,7.349362305678369,PPG_1,PPG_3,172283.0,172283.0,62.135411426454084,16.309867249618407,0.49120605072483453
62866.24188830847,7.359471469790151,PPG_1,PPG_3,172290.0,172290.0,69.16630282954429,17.216020088947968,0.5184868586810899
62866.25199747257,7.369580633894657,PPG_1,PPG_3,172291.0,172291.0,70.1971942326054,17.942615525112775,0.5403618776575461
62866.26210663668,7.379689797999163,PPG_1,PPG_3,172294.0,172294.0,73.2280856356956,18.48137099220636,0.5565817511659017
62866.27221580079,7.389798962110945,PPG_1,PPG_3,172258.0,172258.0,37.25897703875671,18.844533967647752,0.5675152040668152
62866.28232496489,7.399908126215451,PPG_1,PPG_3,172300.0,172300.0,79.28986844181782,19.057859143132365,0.573937611956566
62866.292434129,7.410017290319956,PPG_1,PPG_3,172283.0,172283.0,62.320759844908025,19.153614097540864,0.5768204286390265
62866.30254329311,7.420126454431738,PPG_1,PPG_3,172313.0,172313.0,92.35165124796913,19.16519928596063,0.577169214502403
62866.312652457214,7.430235618536244,PPG_1,PPG_3,172265.0,172265.0,44.38254265105934,19.122116840933916,0.5758721663025328
62866.32276162132,7.44034478264075,PPG_1,PPG_3,172272.0,172272.0,51.413434054120444,19.043491294446987,0.5735050507994213
62866.33287078543,7.450453946752532,PPG_1,PPG_3,172274.0,172274.0,53.44432545721065,18.93159569954345,0.5701363009558819
62866.342979949535,7.460563110857038,PPG_1,PPG_3,172308.0,172308.0,87.47521686027176,18.769515990477874,0.5652566987246564
62866.35308911364,7.470672274961544,PPG_1,PPG_3,172296.0,172296.0,75.50610826336197,18.5248448964495,0.5578905847106305
62866.36319827775,7.480781439073326,PPG_1,PPG_3,172281.0,172281.0,60.53699966642307,18.15644945853632,0.5467996023095755
62866.373307441856,7.490890603177832,PPG_1,PPG_3,172292.0,172292.0,71.56789106951328,17.619959855533338,0.5306479453320608
62866.38341660596,7.500999767282337,PPG_1,PPG_3,172268.0,172268.0,47.598782472574385,16.870678038066245,0.5080899258896039
62866.39352577007,7.511108931394119,PPG_1,PPG_3,172301.0,172301.0,80.6296738756646,15.865590456870427,0.47783056997111745
62866.40363493418,7.521218095498625,PPG_1,PPG_3,172257.0,172257.0,36.6605652787257,14.566388374395927,0.4387165475126352
62866.41374409828,7.531327259603131,PPG_1,PPG_3,172304.0,172304.0,83.69145668181591,12.944242046476065,0.3898799048093263
62866.42385326239,7.541436423714913,PPG_1,PPG_3,172264.0,172264.0,43.72234808487701,10.986182936744056,0.3309302086641181
62866.4339624265,7.551545587819419,PPG_1,PPG_3,172319.0,172319.0,98.75323948796722,8.702065229846148,0.26216413101493513
62866.4440715906,7.561654751923925,PPG_1,PPG_3,172279.0,172279.0,58.784130891028326,6.1295866295369335,0.18471660602727835
62866.454180754714,7.571763916035707,PPG_1,PPG_3,172277.0,172277.0,56.815022294118535,3.333752989059458,0.10054471215567001
62866.46428991882,7.5818730801402126,PPG_1,PPG_3,172263.0,172263.0,42.84591369717964,0.39858597633091564,0.01217802155077425
62866.47439908292,7.5919822442447185,PPG_1,PPG_3,172243.0,172243.0,22.87680510026985,-2.5871691002843273,-0.07771168282825806
62866.484508247035,7.6020914083565,PPG_1,PPG_3,172234.0,172234.0,13.907696503330953,-5.544921641408362,-0.166758337602558
62866.49461741114,7.612200572461006,PPG_1,PPG_3,172276.0,172276.0,55.93858790642116,-8.415284921527393,-0.25317403483477213
62866.50472657525,7.622309736565512,PPG_1,PPG_3,172262.0,172262.0,41.96947930948227,-11.157452601186426,-0.33573025118782956
62866.51483573935,7.632418900670018,PPG_1,PPG_3,172279.0,172279.0,59.000370712572476,-13.740545456172626,-0.4134973309248329
62866.52494490346,7.6425280647818,PPG_1,PPG_3,172243.0,172243.0,23.03126211563358,-16.13280699421888,-0.48551920711170465
62866.535054067564,7.652637228886306,PPG_1,PPG_3,172263.0,172263.0,43.06215351872379,-18.29375809084735,-0.5505772076070717
62866.54516323167,7.662746392990812,PPG_1,PPG_3,172253.0,172253.0,33.093044921784895,-20.17067328580699,-0.607083969779506
62866.55527239578,7.672855557102594,PPG_1,PPG_3,172282.0,172282.0,62.1239363248751,-21.69877537741689,-0.6530892990014566
62866.565381559885,7.6829647212070995,PPG_1,PPG_3,172248.0,172248.0,28.15482772793621,-22.805766464142767,-0.6864165810398808
62866.57549072399,7.693073885311605,PPG_1,PPG_3,172226.0,172226.0,6.185719130997313,-23.42243272806237,-0.704982051663511
62866.5855998881,7.703183049423387,PPG_1,PPG_3,172241.0,172241.0,21.216610534087522,-23.498526466636314,-0.7072729440810035
62866.595709052206,7.713292213527893,PPG_1,PPG_3,172225.0,172225.0,5.247501937148627,-23.018772029216457,-0.6928293666784364
62866.60581821631,7.723401377632399,PPG_1,PPG_3,172242.0,172242.0,22.278393340238836,-22.012663670570607,-0.6625392790418867
62866.61592738042,7.733510541744181,PPG_1,PPG_3,172257.0,172257.0,37.30928474329994,-20.554532797314412,-0.6186405164911666
62866.62603654453,7.743619705848687,PPG_1,PPG_3,172254.0,172254.0,34.34017614639015,-18.75422749693141,-0.5644401862260037
62866.63614570863,7.753728869953193,PPG_1,PPG_3,172260.0,172260.0,40.371067549451254,-16.741640353380305,-0.5038488588302091
62866.64625487274,7.763838034064975,PPG_1,PPG_3,172275.0,172275.0,55.40195895254146,-14.649283905578917,-0.4408559817447769
62866.65636403685,7.77394719816948,PPG_1,PPG_3,172272.0,172272.0,52.43285035560257,-12.596558403195264,-0.37905624136227234
62866.66647320095,7.784056362273987,PPG_1,PPG_3,172253.0,172253.0,33.46374175869278,-10.678617918306397,-0.32131436408857433
62866.676582365064,7.794165526385768,PPG_1,PPG_3,172271.0,172271.0,51.49463316175388,-8.961330179736649,-0.269613376166696
62866.68669152917,7.804274690490274,PPG_1,PPG_3,172274.0,172274.0,54.52552456484409,-7.481532047721977,-0.22506229504512
62866.69680069327,7.81438385459478,PPG_1,PPG_3,172263.0,172263.0,43.556415967905195,-6.25089176173797,-0.18801240693794308
62866.706909857385,7.824493018706562,PPG_1,PPG_3,172241.0,172241.0,21.587307370995404,-5.262330788290933,-0.15825060418333167
62866.71701902149,7.834602182811068,PPG_1,PPG_3,172279.0,172279.0,59.61819877405651,-4.497294623398761,-0.1352182813916763
62866.727128185594,7.844711346915574,PPG_1,PPG_3,172281.0,172281.0,61.64909017714672,-3.931024772387,-0.11817005466173637
62866.737237349706,7.854820511027356,PPG_1,PPG_3,172274.0,172274.0,54.67998158020782,-3.5349556011915317,-0.10624592163714507
62866.74734651381,7.864929675131862,PPG_1,PPG_3,172253.0,172253.0,33.71087298329803,-3.2785759162267456,-0.09852730658034686
62866.757455677915,7.875038839236368,PPG_1,PPG_3,172261.0,172261.0,41.74176438635914,-3.1324421142029486,-0.09412777482819977
62866.767564842026,7.885148003348149,PPG_1,PPG_3,172289.0,172289.0,69.77265578944935,-3.0706199075320373,-0.092266543836672
62866.77767400613,7.895257167452655,PPG_1,PPG_3,172281.0,172281.0,61.80354719251045,-3.0704804697191244,-0.09226234589562848
62866.787783170235,7.905366331557161,PPG_1,PPG_3,172258.0,172258.0,38.83443859560066,-3.111092821696685,-0.09348502900918736
62866.79789233435,7.915475495668943,PPG_1,PPG_3,172288.0,172288.0,68.86532999866176,-3.1730473307566758,-0.09535024312134553
62866.80800149845,7.925584659773449,PPG_1,PPG_3,172247.0,172247.0,27.896221401751973,-3.240377670642139,-0.09737730300828883
62866.81811066256,7.935693823877955,PPG_1,PPG_3,172263.0,172263.0,43.92711280481308,-3.302789520787621,-0.09925628591725727
62866.82821982666,7.945802987982461,PPG_1,PPG_3,172276.0,172276.0,56.958004207903286,-3.3556215014719957,-0.10084685547290244
62866.83832899077,7.955912152094243,PPG_1,PPG_3,172296.0,172296.0,76.98889561096439,-3.3959242154781024,-0.10206021656740606
62866.84843815488,7.9660213161987485,PPG_1,PPG_3,172275.0,172275.0,56.0197870140546,-3.4162355991754603,-0.10267171490844024
62866.85854731898,7.9761304803032544,PPG_1,PPG_3,172261.0,172261.0,42.050678417115705,-3.4003206132776143,-0.10219257534714185
62866.86865648309,7.986239644415036,PPG_1,PPG_3,172273.0,172273.0,54.08156982017681,-3.3234154393547835,-0.09987725370429025
62866.8787656472,7.996348808519542,PPG_1,PPG_3,172280.0,172280.0,61.11246122326702,-3.1555129848703136,-0.09482235080340243
62866.8888748113,8.006457972624048,PPG_1,PPG_3,172278.0,172278.0,59.143352626328124,-2.8652768460891807,-0.086084446974826
62866.898983975414,8.01656713673583,PPG_1,PPG_3,172252.0,172252.0,33.17424402941833,-2.4241736658044255,-0.07280451159533165
62866.90909313952,8.026676300840336,PPG_1,PPG_3,172284.0,172284.0,65.20513543247944,-1.8109736417437465,-0.054343396241383624
62866.91920230362,8.036785464944842,PPG_1,PPG_3,172275.0,172275.0,56.236026835569646,-1.0153891731108837,-0.030391380466858242
62866.929311467735,8.046894629056624,PPG_1,PPG_3,172286.0,172286.0,67.26691823863075,-0.039805146261342086,-0.0010202641093084747
62866.93942063184,8.05700379316113,PPG_1,PPG_3,172263.0,172263.0,44.29780964172096,1.1000540963091252,0.03329655281611767
62866.949529795944,8.067112957265635,PPG_1,PPG_3,172284.0,172284.0,65.32870104478206,2.3743969892410433,0.07166215983470446
62866.959638960056,8.077222121377417,PPG_1,PPG_3,172271.0,172271.0,52.359592447872274,3.739087238869376,0.1127477813810985
62866.96974812416,8.087331285481923,PPG_1,PPG_3,172312.0,172312.0,93.39048385093338,5.136920709815928,0.15483121898742236
62866.979857288265,8.09744044958643,PPG_1,PPG_3,172244.0,172244.0,25.421375254023587,6.500188651915293,0.19587402027561227
62866.98996645238,8.107549613698211,PPG_1,PPG_3,172278.0,172278.0,59.45226665708469,7.753765375626689,0.2336144370945951
62867.00007561648,8.117658777802717,PPG_1,PPG_3,172296.0,172296.0,77.4831580601749,8.820077771964675,0.2657170388227913
62867.010184780585,8.127767941907223,PPG_1,PPG_3,172303.0,172303.0,84.514049463236,9.628138369189742,0.29004466327323636
62867.0202939447,8.137877106019005,PPG_1,PPG_3,172295.0,172295.0,76.54494086632621,10.12519838650399,0.3050092457217291
62867.0304031088,8.14798627012351,PPG_1,PPG_3,172290.0,172290.0,71.57583226938732,10.28612910830736,0.3098542563261516
62867.040512272906,8.158095434228017,PPG_1,PPG_3,172278.0,172278.0,59.60672367247753,10.117133332664737,0.30476643769266826
62867.05062143702,8.168204598339798,PPG_1,PPG_3,172287.0,172287.0,68.63761507553863,9.654392878067453,0.29083508645969197
62867.06073060112,8.178313762444304,PPG_1,PPG_3,172300.0,172300.0,81.66850647862884,8.960316693422545,0.2699390981909605
62867.07083976523,8.18842292654881,PPG_1,PPG_3,172298.0,172298.0,79.69939788168995,8.118848526737235,0.24460569916566063
62867.08094892934,8.198532090660592,PPG_1,PPG_3,172287.0,172287.0,68.73028928478016,7.228682419668909,0.21780619078022545
62867.09105809344,8.208641254765098,PPG_1,PPG_3,172264.0,172264.0,45.76118068784126,6.392632945810489,0.19263592794119377
62867.10116725755,8.218750418869604,PPG_1,PPG_3,172296.0,172296.0,77.79207209093147,5.703966629100572,0.17190281017487383
62867.11127642166,8.228859582981386,PPG_1,PPG_3,172241.0,172241.0,22.822963493992575,5.233290637853816,0.15773255018173274
62867.12138558576,8.238968747085892,PPG_1,PPG_3,172273.0,172273.0,54.85385489708278,5.020231367244814,0.15131814767422141
62867.13149474987,8.249077911190398,PPG_1,PPG_3,172309.0,172309.0,90.88474630014389,5.073311196647701,0.15291617901004148
62867.14160391397,8.259187075294903,PPG_1,PPG_3,172309.0,172309.0,90.915637703205,5.378450893667542,0.1621027721684178
62867.151713078085,8.269296239406685,PPG_1,PPG_3,172288.0,172288.0,69.9465291062952,5.911063448155922,0.17813770599353118
62867.16182224219,8.279405403511191,PPG_1,PPG_3,172276.0,172276.0,57.97742050935631,6.64434107836788,0.20021390036183578
62867.171931406294,8.289514567615697,PPG_1,PPG_3,172295.0,172295.0,77.00831191244652,7.5507579231400355,0.22750265651564264
62867.182040570406,8.299623731727479,PPG_1,PPG_3,172278.0,172278.0,60.03920331550762,8.599357610370204,0.25907199608917525
62867.19214973451,8.309732895831985,PPG_1,PPG_3,172266.0,172266.0,48.07009471859783,9.75258770109294,0.29379135828601965
62867.202258898615,8.31984205993649,PPG_1,PPG_3,172298.0,172298.0,80.10098612165893,10.965442022343183,0.3303057787908685
62867.21236806273,8.329951224048273,PPG_1,PPG_3,172293.0,172293.0,75.13187752474914,12.188906876522699,0.3671396419974267
62867.22247722683,8.340060388152779,PPG_1,PPG_3,172333.0,172333.0,115.16276892781025,13.377398424529853,0.4029205922649387
62867.232586390935,8.350169552257285,PPG_1,PPG_3,172281.0,172281.0,63.19366033090046,14.496184219878865,0.43660296802142234
62867.24269555505,8.360278716369066,PPG_1,PPG_3,172277.0,172277.0,59.22455173396156,15.524030105411443,0.4675474897343245
62867.25280471915,8.370387880473572,PPG_1,PPG_3,172299.0,172299.0,81.25544313705177,16.45058502213429,0.49544252647309595
62867.262913883256,8.380497044578078,PPG_1,PPG_3,172307.0,172307.0,89.28633454011288,17.272552589650783,0.520188836789001
62867.27302304737,8.39060620868986,PPG_1,PPG_3,172311.0,172311.0,93.31722594320308,17.991688683943327,0.5418392834148944
62867.28313221147,8.400715372794366,PPG_1,PPG_3,172301.0,172301.0,83.34811734626419,18.61318368113379,0.5605501287913444
62867.29324137558,8.410824536898872,PPG_1,PPG_3,172279.0,172279.0,61.3790087493544,19.14156939853037,0.5764578086633066
62867.30335053969,8.420933701010654,PPG_1,PPG_3,172303.0,172303.0,85.4099001524155,19.57423884129781,0.5894838363535269
62867.31345970379,8.43104286511516,PPG_1,PPG_3,172304.0,172304.0,86.44079155550571,19.89564354808107,0.5991601069575875
62867.3235688679,8.441152029219666,PPG_1,PPG_3,172294.0,172294.0,76.47168295856682,20.074677665254477,0.6045501417908272
62867.33367803201,8.451261193331447,PPG_1,PPG_3,172292.0,172292.0,74.50257436165703,20.065314702667322,0.604268258676682
62867.343787196114,8.461370357435953,PPG_1,PPG_3,172284.0,172284.0,66.53346576471813,19.81013418069284,0.596585745846602
62867.35389636022,8.47147952154046,PPG_1,PPG_3,172331.0,172331.0,113.56435716780834,19.247575491731236,0.579649248059938
62867.36400552433,8.481588685652241,PPG_1,PPG_3,172304.0,172304.0,86.59524857086944,18.32282562288216,0.5518085544322389
62867.374114688435,8.491697849756747,PPG_1,PPG_3,172315.0,172315.0,97.62613997395965,16.998965771621776,0.5119521805450781
62867.38422385254,8.501807013861253,PPG_1,PPG_3,172289.0,172289.0,71.65703137702076,15.263672801909244,0.4597091237450868
62867.39433301665,8.511916177973035,PPG_1,PPG_3,172283.0,172283.0,65.68792278011097,13.129618652970871,0.39546088781999467
62867.40444218075,8.52202534207754,PPG_1,PPG_3,172306.0,172306.0,88.71881418317207,10.630681904291567,0.3202274276611226
62867.41455134486,8.532134506182047,PPG_1,PPG_3,172284.0,172284.0,66.74970558626228,7.817240221734946,0.2355254227601186
62867.42466050897,8.542243670293828,PPG_1,PPG_3,172286.0,172286.0,68.78059698932339,4.751956571603231,0.14324141617623634
62867.43476967308,8.552352834398334,PPG_1,PPG_3,172270.0,172270.0,52.81148839238449,1.5059184272816066,0.045515580764809466
62867.44487883718,8.56246199850284,PPG_1,PPG_3,172279.0,172279.0,61.8423797954747,-1.844286167435518,-0.055346309410653646
62867.454988001286,8.572571162607346,PPG_1,PPG_3,172293.0,172293.0,75.8732711985358,-5.217146041412799,-0.1568902636881825
62867.4650971654,8.582680326719128,PPG_1,PPG_3,172274.0,172274.0,56.90416260162601,-8.524458310702808,-0.25646082944022924
62867.4752063295,8.592789490823634,PPG_1,PPG_3,172282.0,172282.0,64.93505400468712,-11.669486843087633,-0.35114565046050494
62867.485315493606,8.60289865492814,PPG_1,PPG_3,172275.0,172275.0,57.965945407777326,-14.547725512562899,-0.4377984456471515
62867.49542465772,8.613007819039922,PPG_1,PPG_3,172269.0,172269.0,51.99683681083843,-17.051541290595555,-0.5131787947821705
62867.50553382182,8.623116983144428,PPG_1,PPG_3,172290.0,172290.0,73.02772821392864,-19.078837307221082,-0.5742129502795612
62867.51564298593,8.633226147248934,PPG_1,PPG_3,172225.0,172225.0,8.058619616989745,-20.545513166228968,-0.618368969779841
62867.52575215004,8.643335311360715,PPG_1,PPG_3,172255.0,172255.0,38.089511020079954,-21.400238154050943,-0.6441014811577628
62867.53586131414,8.653444475465221,PPG_1,PPG_3,172245.0,172245.0,28.12040242314106,-21.637248969334298,-0.6512369733779103
62867.54597047825,8.663553639569727,PPG_1,PPG_3,172240.0,172240.0,23.151293826231267,-21.301467019761297,-0.6411278587960307
62867.55607964236,8.673662803681509,PPG_1,PPG_3,172294.0,172294.0,77.18218522929237,-20.482633430937994,-0.616475900632607
62867.566188806464,8.683771967786015,PPG_1,PPG_3,172279.0,172279.0,62.21307663238258,-19.29983208266108,-0.5808662605893044
62867.57629797057,8.693881131890521,PPG_1,PPG_3,172268.0,172268.0,51.243968035443686,-17.882062555393816,-0.5381826243185998
62867.58640713468,8.703990296002303,PPG_1,PPG_3,172268.0,172268.0,51.274859438533895,-16.35144055998074,-0.49210143039840065
62867.596516298785,8.714099460106809,PPG_1,PPG_3,172301.0,172301.0,84.305750841595,-14.812158224983964,-0.4457595066644609
62867.60662546289,8.724208624211315,PPG_1,PPG_3,172254.0,172254.0,37.33664224468521,-13.345083594228694,-0.401591481666889
62867.616734627,8.734317788323096,PPG_1,PPG_3,172252.0,172252.0,35.36753364774631,-12.007357930469343,-0.3613176610185156
62867.626843791106,8.744426952427602,PPG_1,PPG_3,172295.0,172295.0,78.39842505083652,-10.835131967568325,-0.32602640551806394
62867.63695295521,8.754536116532108,PPG_1,PPG_3,172285.0,172285.0,68.42931645389763,-9.84618537175511,-0.29625299314390635
62867.64706211932,8.76464528064389,PPG_1,PPG_3,172289.0,172289.0,72.46020785698784,-9.041758318944915,-0.2720347608655985
62867.65717128343,8.774754444748396,PPG_1,PPG_3,172271.0,172271.0,54.49109926004894,-8.41058750560347,-0.2530326135467188
62867.66728044753,8.784863608852902,PPG_1,PPG_3,172264.0,172264.0,47.52199066313915,-7.937180638354794,-0.23878013728660022
62867.67738961164,8.794972772964684,PPG_1,PPG_3,172255.0,172255.0,38.552882066200254,-7.612081925385903,-0.22899265423695042
62867.68749877575,8.80508193706919,PPG_1,PPG_3,172273.0,172273.0,56.58377346929046,-7.438990350704753,-0.22378152670661455
62867.69760793985,8.815191101173696,PPG_1,PPG_3,172293.0,172293.0,76.61466487235157,-7.434349903375058,-0.22364182052578288
62867.70771710397,8.825300265285478,PPG_1,PPG_3,172276.0,172276.0,59.64555627541267,-7.618988855710356,-0.22920059558146805
62867.71782626807,8.835409429389983,PPG_1,PPG_3,172309.0,172309.0,92.67644767850288,-8.005593264408823,-0.24083978068466533
62867.72793543217,8.84551859349449,PPG_1,PPG_3,172287.0,172287.0,70.70733908156399,-8.587328289286784,-0.2583536048502057
62867.738044596284,8.855627757606271,PPG_1,PPG_3,172296.0,172296.0,79.7382304846542,-9.33208331854985,-0.28077533995486365
62867.74815376039,8.865736921710777,PPG_1,PPG_3,172255.0,172255.0,38.7691218877153,-10.184785849277159,-0.30644696285878337
62867.75826292449,8.875846085815283,PPG_1,PPG_3,172262.0,172262.0,45.80001329080551,-11.076702661871245,-0.33329917831433215
62867.7683720886,8.885955249919789,PPG_1,PPG_3,172292.0,172292.0,75.83090469386661,-11.936952813472477,-0.3591980313130563
62867.77848125271,8.89606441403157,PPG_1,PPG_3,172273.0,172273.0,56.86179609695682,-12.70134161859957,-0.38221086456976433
62867.788590416814,8.906173578136077,PPG_1,PPG_3,172259.0,172259.0,42.89268750001793,-13.317333702030268,-0.4007560381886871
62867.79869958092,8.916282742240583,PPG_1,PPG_3,172299.0,172299.0,82.92357890310814,-13.746498899050449,-0.4136765663967965
62867.80880874503,8.926391906352364,PPG_1,PPG_3,172258.0,172258.0,41.95447030616924,-13.965149054952267,-0.42025928914936894
62867.818917909135,8.93650107045687,PPG_1,PPG_3,172294.0,172294.0,77.98536170925945,-13.963467990407679,-0.4202086787037438
62867.82902707324,8.946610234561376,PPG_1,PPG_3,172270.0,172270.0,54.016253112320555,-13.74403731357755,-0.41360245744117735
62867.83913623735,8.956719398673158,PPG_1,PPG_3,172272.0,172272.0,56.047144515410764,-13.320492898651425,-0.40085114955685497
62867.849245401456,8.966828562777664,PPG_1,PPG_3,172269.0,172269.0,53.07803591847187,-12.716058192457957,-0.38265392451261215
62867.85935456556,8.97693772688217,PPG_1,PPG_3,172282.0,172282.0,66.10892732156208,-11.960676897652867,-0.3599122730572439
62867.86946372967,8.987046890993952,PPG_1,PPG_3,172305.0,172305.0,89.13981872462318,-11.085711427616884,-0.33357039791169224
62867.87957289378,8.997156055098458,PPG_1,PPG_3,172276.0,172276.0,60.17071012771339,-10.117475840207339,-0.3044205150552029
62867.88968205788,9.007265219202964,PPG_1,PPG_3,172282.0,172282.0,66.2016015307745,-9.07275555019894,-0.2729679693446917
62867.89979122199,9.017374383314746,PPG_1,PPG_3,172285.0,172285.0,69.2324929338647,-7.958066562802545,-0.23940893285961803
62867.9099003861,9.027483547419251,PPG_1,PPG_3,172306.0,172306.0,90.26338433692581,-6.771704158879701,-0.20369208300470112
62867.9200095502,9.037592711523756,PPG_1,PPG_3,172276.0,172276.0,60.29427574001602,-5.507499489624992,-0.16563169925657292
62867.930118714314,9.04770187563554,PPG_1,PPG_3,172277.0,172277.0,61.325167143077124,-4.160469822658764,-0.12507777053625546
62867.94022787842,9.057811039740043,PPG_1,PPG_3,172286.0,172286.0,70.35605854616733,-2.733526499282566,-0.08211794623300787
62867.95033704252,9.067920203844553,PPG_1,PPG_3,172292.0,172292.0,76.38694994922844,-1.242314521911824,-0.037223237734584795
62867.960446206635,9.078029367956333,PPG_1,PPG_3,172312.0,172312.0,96.41784135231865,0.28401030044087616,0.008728584684553136
62867.97055537074,9.08813853206084,PPG_1,PPG_3,172291.0,172291.0,75.44873275537975,1.805099731869676,0.05452278943901927
62867.98066453484,9.098247696165345,PPG_1,PPG_3,172298.0,172298.0,82.47962415846996,3.272063896472966,0.09868748872182534
62867.990773698955,9.108356860277128,PPG_1,PPG_3,172290.0,172290.0,74.51051556153107,4.629018349445025,0.13954021491788912
62868.00088286306,9.118466024381632,PPG_1,PPG_3,172300.0,172300.0,84.54140696459217,5.814581174407568,0.17523299249811342
62868.01099202717,9.128575188486138,PPG_1,PPG_3,172295.0,172295.0,79.57229836768238,6.765297316042462,0.20385543162222763
62868.02110119128,9.13868435259792,PPG_1,PPG_3,172317.0,172317.0,101.60318977074348,7.421953819067163,0.22362485591217116
62868.03121035538,9.148793516702426,PPG_1,PPG_3,172310.0,172310.0,94.63408117383369,7.737974126646472,0.23313902278023124
62868.041319519485,9.158902680806932,PPG_1,PPG_3,172314.0,172314.0,98.6649725768948,7.687489028482883,0.2316191089115371
62868.0514286836,9.169011844918714,PPG_1,PPG_3,172287.0,172287.0,71.695863979985,7.270456003984673,0.2190638341731502
62868.0615378477,9.17912100902322,PPG_1,PPG_3,172319.0,172319.0,103.72675538304611,6.514024442883504,0.19629056320296867
62868.071647011806,9.189230173127726,PPG_1,PPG_3,172301.0,172301.0,85.75764678613632,5.471376379356562,0.16490040433298683
62868.08175617591,9.199339337232232,PPG_1,PPG_3,172317.0,172317.0,101.78853818919742,4.219044385042787,0.12719746157155828
62868.09186534002,9.209448501344012,PPG_1,PPG_3,172298.0,172298.0,82.81942959228763,2.8520684835754007,0.08604302776064357
62868.10197450413,9.21955766544852,PPG_1,PPG_3,172287.0,172287.0,71.85032099534874,1.4761434538779141,0.04461916981063783
62868.11208366823,9.229666829553024,PPG_1,PPG_3,172309.0,172309.0,93.88121239843895,0.19765185659774315,0.0061286611179849765
62868.12219283234,9.239775993664807,PPG_1,PPG_3,172275.0,172275.0,59.91210380150005,-0.8859666437013008,-0.026494961433786563
62868.13230199645,9.249885157769311,PPG_1,PPG_3,172294.0,172294.0,78.94299520459026,-1.6930927723752096,-0.05079445259812491
62868.14241116055,9.25999432187382,PPG_1,PPG_3,172325.0,172325.0,109.97388660765137,-2.1605720511962283,-0.06486847176522341
62868.152520324664,9.2701034859856,PPG_1,PPG_3,172307.0,172307.0,92.00477801074157,-2.2426062168664367,-0.0673382077991097
62868.16262948877,9.280212650090109,PPG_1,PPG_3,172280.0,172280.0,65.03566941380268,-1.9091159093994805,-0.0572980858258564
62868.17273865287,9.290321814194613,PPG_1,PPG_3,172298.0,172298.0,83.06656081689289,-1.1465171998397583,-0.03433914552326957
62868.182847816985,9.300430978306396,PPG_1,PPG_3,172314.0,172314.0,99.097452219954,0.04011819927848854,0.0013859231763891134
62868.19295698109,9.3105401424109,PPG_1,PPG_3,172294.0,172294.0,79.1283436230442,1.6263282808813595,0.04914066248339248
62868.20306614519,9.320649306515406,PPG_1,PPG_3,172312.0,172312.0,97.1592350261053,3.5694906516843465,0.10764187460222188
62868.213175309305,9.330758470627188,PPG_1,PPG_3,172305.0,172305.0,90.19012642919552,5.810961150115783,0.1751240073653468
62868.22328447341,9.340867634731694,PPG_1,PPG_3,172328.0,172328.0,113.22101783225662,8.27859705112885,0.24941511831226648
62868.233393637514,9.3509767988362,PPG_1,PPG_3,172311.0,172311.0,96.25190923534683,10.889172336033305,0.32800958925771745
62868.243502801626,9.361085962947982,PPG_1,PPG_3,172325.0,172325.0,110.28280063840793,13.549553006624864,0.4081035105200956
62868.25361196573,9.371195127052488,PPG_1,PPG_3,172304.0,172304.0,89.31369204149814,16.15599689514686,0.4865736008683567
62868.263721129835,9.381304291156994,PPG_1,PPG_3,172291.0,172291.0,76.34458344455925,18.592912834204324,0.559939850857875
62868.27383029395,9.391413455268776,PPG_1,PPG_3,172334.0,172334.0,119.37547484764946,20.734669988411675,0.6244199949096189
62868.28393945805,9.40152261937328,PPG_1,PPG_3,172346.0,172346.0,131.40636625071056,22.4540237092756,0.6761831816833489
62868.29404862216,9.411631783477787,PPG_1,PPG_3,172328.0,172328.0,113.43725765377167,23.63664440751084,0.7117873830424912
62868.30415778627,9.42174094758957,PPG_1,PPG_3,172346.0,172346.0,131.46814905686188,24.196691456326885,0.7286482649181385
62868.31426695037,9.431850111694075,PPG_1,PPG_3,172345.0,172345.0,130.49904045992298,24.08824104101821,0.725383236300007
62868.32437611448,9.44195927579858,PPG_1,PPG_3,172322.0,172322.0,107.52993186301319,23.310115620678896,0.7019568459199214
62868.33448527859,9.452068439910365,PPG_1,PPG_3,172333.0,172333.0,118.5608232660743,21.903833531394287,0.659619052619533
62868.34459444269,9.462177604014869,PPG_1,PPG_3,172311.0,172311.0,96.5917146691645,19.94626159368831,0.6006840233670464
62868.3547036068,9.472286768119377,PPG_1,PPG_3,172328.0,172328.0,113.62260607222561,17.540128013656975,0.5282445128728804
62868.36481277091,9.482395932231157,PPG_1,PPG_3,172347.0,172347.0,132.65349747531582,14.805181994630365,0.4459057131942376
62868.374921935014,9.492505096335664,PPG_1,PPG_3,172307.0,172307.0,92.68438887837692,11.870310485798333,0.3575479190852762
62868.38503109912,9.502614260440168,PPG_1,PPG_3,172319.0,172319.0,104.71528028146713,8.864866813086563,0.2670654661259547
62868.39514026322,9.512723424544674,PPG_1,PPG_3,172308.0,172308.0,93.74617168452824,5.908520554856322,0.17806114916917584
62868.405249427335,9.522832588656456,PPG_1,PPG_3,172313.0,172313.0,98.77706308761844,3.1015000700865905,0.09355246205747862
62868.41535859144,9.532941752760962,PPG_1,PPG_3,172296.0,172296.0,81.80795449067955,0.5176235420027984,0.015761788910679527
62868.425467755544,9.543050916865468,PPG_1,PPG_3,172307.0,172307.0,92.83884589376976,-1.7985303180956564,-0.05396877519728665
62868.435576919655,9.55316008097725,PPG_1,PPG_3,172312.0,172312.0,97.86973729683086,-3.8296340015234676,-0.1151175650281871
62868.44568608376,9.563269245081756,PPG_1,PPG_3,172308.0,172308.0,93.90062869992107,-5.579055478812185,-0.16778597733683584
62868.455795247864,9.573378409186262,PPG_1,PPG_3,172311.0,172311.0,96.93152010298218,-7.061559075932982,-0.21241850970017714
62868.465904411976,9.583487573298044,PPG_1,PPG_3,172299.0,172299.0,84.96241150607239,-8.293748718367572,-0.24951504302430824
62868.47601357608,9.59359673740255,PPG_1,PPG_3,172332.0,172332.0,117.99330290913349,-9.286019138382395,-0.2793885230755605
62868.486122740185,9.603705901507055,PPG_1,PPG_3,172307.0,172307.0,93.0241943122237,-10.03739790321604,-0.3020096736101669
62868.4962319043,9.613815065618835,PPG_1,PPG_3,172299.0,172299.0,85.0550857152848,-10.535144461337252,-0.31699492518542943
62868.5063410684,9.623924229723343,PPG_1,PPG_3,172293.0,172293.0,79.08597711837501,-10.760048694177666,-0.32376593435559087
62868.516450232506,9.634033393827847,PPG_1,PPG_3,172283.0,172283.0,69.11686852143612,-10.695197572345126,-0.32181351427404015
62868.52655939662,9.644142557939633,PPG_1,PPG_3,172325.0,172325.0,111.14775992452633,-10.3337085552656,-0.31093045787867696
62868.53666856072,9.654251722044137,PPG_1,PPG_3,172307.0,172307.0,93.17865132758743,-9.682471601269777,-0.29132419555197986
62868.54677772483,9.664360886148645,PPG_1,PPG_3,172291.0,172291.0,77.20954273067764,-8.7627064153909,-0.2636335717281048
62868.55688688894,9.674470050260425,PPG_1,PPG_3,172333.0,172333.0,119.24043413373875,-7.609745447820949,-0.22892231180355835
62868.56699605304,9.68457921436493,PPG_1,PPG_3,172308.0,172308.0,94.27132553679985,-6.273161763860109,-0.18868287181396662
62868.57710521715,9.694688378469436,PPG_1,PPG_3,172301.0,172301.0,87.30221693989006,-4.8175905668755075,-0.14486117135891596
62868.58721438126,9.704797542581218,PPG_1,PPG_3,172285.0,172285.0,71.33310834295116,-3.324193876418966,-0.09990068947707854
62868.59732354536,9.714906706685724,PPG_1,PPG_3,172311.0,172311.0,97.36399974604137,-1.890252988147852,-0.05673019516787383
62868.60743270947,9.72501587079023,PPG_1,PPG_3,172317.0,172317.0,103.39489114910248,-0.6226457464251121,-0.018567372932518367
62868.61754187358,9.735125034902012,PPG_1,PPG_3,172336.0,172336.0,122.42578255219269,0.3763130805427239,0.011507469557495818
62868.627651037685,9.745234199006518,PPG_1,PPG_3,172344.0,172344.0,130.4566739552538,1.0271493466775683,0.031101668700024267
62868.63776020179,9.755343363111024,PPG_1,PPG_3,172338.0,172338.0,124.487565358344,1.2890156382604079,0.03898546456847161
62868.6478693659,9.765452527222806,PPG_1,PPG_3,172316.0,172316.0,102.5184567614051,1.1669048154920012,0.03530917315190443
