timestamp,PPG_1,PPG_2,PPG_3,time_from_segment_start_sec
63102.98690737315,128649.0,76221.0,4756.0,0.0
63102.99695802272,128673.0,76264.0,4779.0,0.010050649565528147
63103.00700867229,128697.0,76280.0,4777.0,0.02010129913833225
63103.01705932186,128685.0,76253.0,4779.0,0.0301519487038604
63103.02710997143,128705.0,76278.0,4753.0,0.0402025982766645
63103.037160620996,128678.0,76260.0,4783.0,0.05025324784219265
63103.04721127056,128663.0,76234.0,4768.0,0.0603038974077208
63103.057261920134,128644.0,76245.0,4765.0,0.0703545469805249
63103.0673125697,128642.0,76256.0,4777.0,0.08040519654605305
63103.07736321927,128680.0,76269.0,4783.0,0.09045584611885715
63103.08741386884,128707.0,76261.0,4813.0,0.1005064956843853
63103.0974645184,128670.0,76239.0,4799.0,0.11055714524991345
63103.107515167976,128710.0,76270.0,4798.0,0.12060779482271755
63103.11756581754,128694.0,76261.0,4786.0,0.1306584443882457
63103.12761646711,128667.0,76269.0,4754.0,0.14070909395377384
63103.13766711668,128667.0,76254.0,4760.0,0.15075974352657795
63103.147717766245,128703.0,76268.0,4795.0,0.1608103930921061
63103.15776841582,128681.0,76263.0,4785.0,0.1708610426649102
63103.167819065384,128684.0,76234.0,4756.0,0.18091169223043835
63103.17786971495,128698.0,76233.0,4788.0,0.1909623417959665
63103.18792036452,128708.0,76268.0,4806.0,0.2010129913687706
63103.19797101409,128678.0,76255.0,4770.0,0.21106364093429875
63103.20802166366,128666.0,76252.0,4785.0,0.22111429050710285
63103.218072313226,128718.0,76278.0,4785.0,0.231164940072631
63103.22812296279,128672.0,76255.0,4787.0,0.24121558963815914
63103.238173612364,128666.0,76267.0,4766.0,0.25126623921096325
63103.24822426193,128690.0,76241.0,4777.0,0.2613168887764914
63103.2582749115,128700.0,76296.0,4781.0,0.2713675383492955
63103.26832556107,128682.0,76269.0,4788.0,0.28141818791482365
63103.278376210634,128689.0,76261.0,4796.0,0.2914688374803518
63103.28842686021,128680.0,76287.0,4783.0,0.3015194870531559
63103.29847750977,128671.0,76293.0,4800.0,0.31157013661868405
63103.308528159345,128686.0,76250.0,4780.0,0.32162078619148815
63103.31857880891,128677.0,76288.0,4762.0,0.3316714357570163
63103.328629458476,128670.0,76267.0,4771.0,0.34172208532254444
63103.33868010805,128630.0,76255.0,4776.0,0.35177273489534855
63103.348730757614,128650.0,76250.0,4754.0,0.3618233844608767
63103.35878140718,128671.0,76248.0,4783.0,0.37187403402640484
63103.36883205675,128678.0,76262.0,4772.0,0.38192468359920895
63103.37888270632,128671.0,76258.0,4762.0,0.3919753331647371
63103.38893335589,128666.0,76271.0,4762.0,0.4020259827375412
63103.39898400546,128696.0,76270.0,4798.0,0.41207663230306935
63103.40903465502,128674.0,76260.0,4774.0,0.4221272818685975
63103.419085304595,128670.0,76245.0,4771.0,0.4321779314414016
63103.42913595416,128689.0,76256.0,4787.0,0.44222858100692974
63103.43918660373,128700.0,76244.0,4790.0,0.45227923057973385
63103.4492372533,128666.0,76249.0,4756.0,0.462329880145262
63103.459287902864,128659.0,76262.0,4754.0,0.47238052971079014
63103.46933855244,128681.0,76286.0,4800.0,0.48243117928359425
63103.479389202,128658.0,76253.0,4760.0,0.4924818288491224
63103.489439851575,128662.0,76258.0,4778.0,0.5025324784219265
63103.49949050114,128640.0,76263.0,4766.0,0.5125831279874546
63103.509541150706,128654.0,76252.0,4762.0,0.5226337775529828
63103.51959180028,128662.0,76255.0,4760.0,0.5326844271257869
63103.529642449845,128663.0,76260.0,4783.0,0.542735076691315
63103.53969309942,128646.0,76274.0,4804.0,0.5527857262641191
63103.54974374898,128694.0,76282.0,4795.0,0.5628363758296473
63103.55979439855,128666.0,76240.0,4764.0,0.5728870253951754
63103.56984504812,128681.0,76259.0,4781.0,0.5829376749679795
63103.57989569769,128662.0,76267.0,4823.0,0.5929883245335077
63103.58994634725,128652.0,76239.0,4779.0,0.6030389740990358
63103.599996996825,128638.0,76245.0,4764.0,0.61308962367184
63103.61004764639,128671.0,76261.0,4775.0,0.6231402732373681
63103.62009829596,128628.0,76265.0,4769.0,0.6331909228101722
63103.63014894553,128661.0,76266.0,4783.0,0.6432415723757003
63103.640199595095,128664.0,76279.0,4774.0,0.6532922219412285
63103.65025024467,128673.0,76263.0,4771.0,0.6633428715140326
63103.66030089423,128689.0,76265.0,4767.0,0.6733935210795607
63103.670351543806,128639.0,76251.0,4756.0,0.6834441706523648
63103.68040219337,128679.0,76287.0,4768.0,0.693494820217893
63103.69045284294,128676.0,76257.0,4766.0,0.7035454697834211
63103.70050349251,128671.0,76252.0,4785.0,0.7135961193562252
63103.710554142075,128657.0,76248.0,4794.0,0.7236467689217534
63103.72060479165,128641.0,76239.0,4785.0,0.7336974184945575
63103.73065544121,128674.0,76256.0,4777.0,0.7437480680600856
63103.74070609078,128671.0,76269.0,4780.0,0.7537987176256138
63103.75075674035,128692.0,76271.0,4758.0,0.7638493671984179
63103.76080738992,128681.0,76275.0,4799.0,0.773900016763946
63103.77085803949,128647.0,76240.0,4760.0,0.7839506663367501
63103.780908689056,128674.0,76260.0,4780.0,0.7940013159022783
63103.79095933862,128672.0,76292.0,4782.0,0.8040519654678064
63103.801009988194,128690.0,76274.0,4768.0,0.8141026150406105
63103.81106063776,128700.0,76275.0,4796.0,0.8241532646061387
63103.821111287325,128685.0,76278.0,4771.0,0.8342039141716668
63103.8311619369,128672.0,76280.0,4800.0,0.8442545637444709
63103.84121258646,128659.0,76248.0,4761.0,0.8543052133099991
63103.851263236036,128651.0,76286.0,4776.0,0.8643558628828032
63103.8613138856,128668.0,76264.0,4786.0,0.8744065124483313
63103.87136453517,128721.0,76242.0,4800.0,0.8844571620138595
63103.88141518474,128700.0,76261.0,4811.0,0.8945078115866636
63103.891465834306,128715.0,76274.0,4795.0,0.9045584611521917
63103.90151648388,128677.0,76270.0,4780.0,0.9146091107249958
63103.911567133444,128716.0,76264.0,4769.0,0.924659760290524
63103.92161778301,128709.0,76283.0,4810.0,0.9347104098560521
63103.93166843258,128664.0,76258.0,4755.0,0.9447610594288562
63103.94171908215,128691.0,76274.0,4785.0,0.9548117089943844
63103.95176973172,128667.0,76248.0,4777.0,0.9648623585671885
63103.961820381286,128665.0,76284.0,4766.0,0.9749130081327166
63103.97187103085,128672.0,76245.0,4762.0,0.9849636576982448
63103.981921680424,128672.0,76261.0,4776.0,0.9950143072710489
63103.99197232999,128666.0,76259.0,4761.0,1.005064956836577
63104.00202297956,128677.0,76265.0,4770.0,1.0151156064093811
63104.01207362913,128675.0,76263.0,4771.0,1.0251662559749093
63104.022124278694,128685.0,76268.0,4778.0,1.0352169055404374
63104.03217492827,128679.0,76290.0,4779.0,1.0452675551132415
63104.04222557783,128680.0,76267.0,4793.0,1.0553182046787697
63104.052276227405,128692.0,76255.0,4768.0,1.0653688542515738
63104.06232687697,128695.0,76260.0,4791.0,1.075419503817102
63104.072377526536,128674.0,76257.0,4768.0,1.08547015338263
63104.08242817611,128654.0,76283.0,4783.0,1.0955208029554342
63104.092478825674,128660.0,76266.0,4761.0,1.1055714525209623
63104.10252947524,128693.0,76274.0,4783.0,1.1156221020864905
63104.11258012481,128736.0,76273.0,4829.0,1.1256727516592946
63104.12263077438,128669.0,76276.0,4763.0,1.1357234012248227
63104.13268142395,128668.0,76269.0,4768.0,1.1457740507976268
63104.14273207352,128701.0,76262.0,4775.0,1.155824700363155
63104.15278272308,128679.0,76253.0,4764.0,1.1658753499286831
63104.162833372655,128708.0,76271.0,4807.0,1.1759259995014872
63104.17288402222,128695.0,76269.0,4761.0,1.1859766490670154
63104.18293467179,128681.0,76267.0,4799.0,1.1960272986398195
63104.19298532136,128671.0,76282.0,4777.0,1.2060779482053476
63104.203035970924,128659.0,76261.0,4793.0,1.2161285977708758
63104.2130866205,128664.0,76258.0,4770.0,1.22617924734368
63104.22313727006,128658.0,76276.0,4753.0,1.236229896909208
63104.233187919635,128674.0,76263.0,4774.0,1.2462805464820121
63104.2432385692,128729.0,76296.0,4815.0,1.2563311960475403
63104.25328921877,128684.0,76281.0,4788.0,1.2663818456130684
63104.26333986834,128665.0,76259.0,4781.0,1.2764324951858725
63104.273390517905,128689.0,76271.0,4788.0,1.2864831447514007
63104.28344116747,128649.0,76276.0,4766.0,1.2965337943169288
63104.29349181704,128674.0,76269.0,4773.0,1.306584443889733
63104.30354246661,128659.0,76265.0,4776.0,1.316635093455261
63104.31359311618,128682.0,76286.0,4773.0,1.3266857430280652
63104.32364376575,128658.0,76277.0,4794.0,1.3367363925935933
63104.33369441531,128656.0,76272.0,4787.0,1.3467870421591215
63104.343745064885,128656.0,76295.0,4781.0,1.3568376917319256
63104.35379571445,128676.0,76274.0,4775.0,1.3668883412974537
63104.36384636402,128698.0,76257.0,4769.0,1.3769389908702578
63104.37389701359,128646.0,76251.0,4778.0,1.386989640435786
63104.383947663155,128627.0,76243.0,4749.0,1.3970402900013141
63104.39399831273,128654.0,76275.0,4774.0,1.4070909395741182
63104.40404896229,128635.0,76276.0,4766.0,1.4171415891396464
63104.414099611866,128666.0,76280.0,4757.0,1.4271922387124505
63104.42415026143,128672.0,76258.0,4807.0,1.4372428882779786
63104.434200911,128660.0,76272.0,4781.0,1.4472935378435068
63104.44425156057,128672.0,76265.0,4755.0,1.4573441874163109
63104.454302210135,128647.0,76254.0,4759.0,1.467394836981839
63104.46435285971,128661.0,76266.0,4759.0,1.4774454865546431
63104.47440350927,128662.0,76271.0,4772.0,1.4874961361201713
63104.48445415884,128663.0,76279.0,4793.0,1.4975467856856994
63104.49450480841,128656.0,76271.0,4766.0,1.5075974352585035
63104.50455545798,128660.0,76281.0,4782.0,1.5176480848240317
63104.51460610755,128637.0,76251.0,4768.0,1.5276987343968358
63104.524656757116,128654.0,76262.0,4773.0,1.537749383962364
63104.53470740668,128662.0,76276.0,4767.0,1.547800033527892
63104.544758056254,128631.0,76272.0,4776.0,1.5578506831006962
63104.55480870582,128660.0,76274.0,4779.0,1.5679013326662243
63104.564859355385,128634.0,76249.0,4793.0,1.5779519822317525
63104.57491000496,128638.0,76260.0,4775.0,1.5880026318045566
63104.58496065452,128668.0,76276.0,4805.0,1.5980532813700847
63104.595011304096,128664.0,76290.0,4772.0,1.6081039309428888
63104.60506195366,128641.0,76242.0,4769.0,1.618154580508417
63104.61511260323,128670.0,76261.0,4796.0,1.6282052300739451
63104.6251632528,128666.0,76291.0,4785.0,1.6382558796467492
63104.635213902366,128665.0,76273.0,4762.0,1.6483065292122774
63104.64526455194,128706.0,76256.0,4828.0,1.6583571787850815
63104.655315201504,128651.0,76295.0,4781.0,1.6684078283506096
63104.66536585107,128640.0,76252.0,4791.0,1.6784584779161378
63104.67541650064,128648.0,76263.0,4773.0,1.6885091274889419
63104.68546715021,128663.0,76236.0,4778.0,1.69855977705447
63104.69551779978,128657.0,76255.0,4768.0,1.7086104266272741
63104.705568449346,128649.0,76258.0,4767.0,1.7186610761928023
63104.71561909891,128680.0,76268.0,4770.0,1.7287117257583304
63104.725669748485,128673.0,76300.0,4779.0,1.7387623753311345
63104.73572039805,128697.0,76280.0,4762.0,1.7488130248966627
63104.745771047616,128685.0,76235.0,4807.0,1.7588636744621908
63104.75582169719,128694.0,76291.0,4750.0,1.768914324034995
63104.765872346754,128683.0,76270.0,4778.0,1.778964973600523
63104.77592299633,128642.0,76241.0,4784.0,1.7890156231733272
63104.78597364589,128670.0,76296.0,4786.0,1.7990662727388553
63104.79602429546,128674.0,76257.0,4793.0,1.8091169223043835
63104.80607494503,128670.0,76273.0,4774.0,1.8191675718771876
63104.816125594596,128666.0,76257.0,4753.0,1.8292182214427157
63104.82617624417,128658.0,76266.0,4764.0,1.8392688710155198
63104.836226893734,128672.0,76285.0,4806.0,1.849319520581048
63104.8462775433,128679.0,76273.0,4780.0,1.8593701701465761
63104.85632819287,128689.0,76259.0,4804.0,1.8694208197193802
63104.86637884244,128691.0,76303.0,4809.0,1.8794714692849084
63104.87642949201,128654.0,76271.0,4760.0,1.8895221188577125
63104.88648014158,128671.0,76276.0,4785.0,1.8995727684232406
63104.89653079114,128682.0,76298.0,4759.0,1.9096234179887688
63104.906581440715,128682.0,76285.0,4804.0,1.9196740675615729
63104.91663209028,128639.0,76230.0,4773.0,1.929724717127101
63104.92668273985,128674.0,76274.0,4782.0,1.9397753666999051
63104.93673338942,128681.0,76276.0,4789.0,1.9498260162654333
63104.946784038984,128691.0,76252.0,4790.0,1.9598766658309614
63104.95683468856,128686.0,76279.0,4772.0,1.9699273154037655
63104.96688533812,128689.0,76276.0,4782.0,1.9799779649692937
63104.976935987695,128680.0,76273.0,4778.0,1.9900286145420978
63104.98698663726,128674.0,76254.0,4760.0,2.000079264107626
63104.99703728683,128675.0,76287.0,4781.0,2.010129913673154
63105.0070879364,128688.0,76280.0,4783.0,2.020180563245958
63105.017138585965,128701.0,76272.0,4808.0,2.0302312128114863
63105.02718923553,128712.0,76305.0,4816.0,2.0402818623770145
63105.0372398851,128690.0,76304.0,4799.0,2.0503325119498186
63105.04729053467,128700.0,76301.0,4778.0,2.0603831615153467
63105.05734118424,128707.0,76267.0,4815.0,2.070433811088151
63105.06739183381,128646.0,76276.0,4775.0,2.080484460653679
63105.07744248337,128727.0,76295.0,4804.0,2.090535110219207
63105.087493132945,128692.0,76287.0,4792.0,2.1005857597920112
63105.09754378251,128673.0,76256.0,4801.0,2.1106364093575394
63105.107594432084,128709.0,76281.0,4774.0,2.1206870589303435
63105.11764508165,128690.0,76276.0,4782.0,2.1307377084958716
63105.127695731215,128692.0,76272.0,4780.0,2.1407883580613998
63105.13774638079,128677.0,76275.0,4786.0,2.150839007634204
63105.14779703035,128661.0,76297.0,4797.0,2.160889657199732
63105.157847679926,128688.0,76262.0,4794.0,2.170940306772536
63105.16789832949,128654.0,76282.0,4765.0,2.1809909563380643
63105.17794897906,128661.0,76265.0,4787.0,2.1910416059035924
63105.18799962863,128651.0,76296.0,4791.0,2.2010922554763965
63105.198050278195,128651.0,76258.0,4760.0,2.2111429050419247
63105.20810092776,128666.0,76276.0,4784.0,2.221193554607453
63105.21815157733,128657.0,76304.0,4780.0,2.231244204180257
63105.2282022269,128673.0,76257.0,4771.0,2.241294853745785
63105.23825287647,128628.0,76280.0,4758.0,2.251345503318589
63105.24830352604,128635.0,76252.0,4773.0,2.2613961528841173
63105.2583541756,128653.0,76296.0,4773.0,2.2714468024496455
63105.268404825176,128650.0,76280.0,4824.0,2.2814974520224496
63105.27845547474,128667.0,76280.0,4770.0,2.2915481015879777
63105.288506124314,128651.0,76259.0,4754.0,2.301598751160782
63105.29855677388,128657.0,76287.0,4779.0,2.31164940072631
63105.308607423445,128643.0,76256.0,4732.0,2.321700050291838
63105.31865807302,128674.0,76299.0,4773.0,2.3317506998646422
63105.32870872258,128669.0,76293.0,4756.0,2.3418013494301704
63105.338759372156,128663.0,76288.0,4785.0,2.3518519990029745
63105.34881002172,128633.0,76277.0,4783.0,2.3619026485685026
63105.35886067129,128636.0,76315.0,4780.0,2.3719532981340308
63105.36891132086,128664.0,76279.0,4786.0,2.382003947706835
63105.378961970426,128668.0,76283.0,4777.0,2.392054597272363
63105.38901262,128662.0,76286.0,4758.0,2.402105246845167
63105.399063269564,128694.0,76295.0,4805.0,2.4121558964106953
63105.40911391913,128641.0,76252.0,4754.0,2.4222065459762234
63105.4191645687,128668.0,76295.0,4788.0,2.4322571955490275
63105.42921521827,128649.0,76316.0,4771.0,2.4423078451145557
63105.43926586784,128652.0,76296.0,4752.0,2.45235849468736
63105.449316517406,128636.0,76253.0,4781.0,2.462409144252888
63105.45936716697,128668.0,76288.0,4773.0,2.472459793818416
63105.469417816545,128657.0,76307.0,4786.0,2.48251044339122
63105.47946846611,128649.0,76282.0,4786.0,2.4925610929567483
63105.489519115676,128637.0,76277.0,4783.0,2.5026117425222765
63105.49956976525,128671.0,76293.0,4784.0,2.5126623920950806
63105.509620414814,128704.0,76288.0,4797.0,2.5227130416606087
63105.51967106439,128658.0,76268.0,4781.0,2.532763691233413
63105.52972171395,128679.0,76286.0,4784.0,2.542814340798941
63105.53977236352,128669.0,76296.0,4774.0,2.552864990364469
63105.54982301309,128660.0,76333.0,4794.0,2.5629156399372732
63105.559873662656,128663.0,76270.0,4775.0,2.5729662895028014
63105.56992431223,128671.0,76326.0,4776.0,2.5830169390756055
63105.579974961795,128661.0,76301.0,4813.0,2.5930675886411336
63105.59002561136,128653.0,76273.0,4781.0,2.6031182382066618
63105.60007626093,128658.0,76275.0,4770.0,2.613168887779466
63105.6101269105,128695.0,76308.0,4788.0,2.623219537344994
63105.62017756007,128681.0,76298.0,4770.0,2.633270186917798
63105.63022820964,128669.0,76263.0,4816.0,2.6433208364833263
63105.6402788592,128685.0,76321.0,4782.0,2.6533714860488544
63105.650329508775,128689.0,76275.0,4799.0,2.6634221356216585
63105.66038015834,128645.0,76292.0,4776.0,2.6734727851871867
63105.67043080791,128687.0,76273.0,4782.0,2.6835234347599908
63105.68048145748,128685.0,76300.0,4769.0,2.693574084325519
63105.690532107044,128668.0,76283.0,4758.0,2.703624733891047
63105.70058275662,128677.0,76286.0,4777.0,2.713675383463851
63105.71063340618,128684.0,76329.0,4788.0,2.7237260330293793
63105.72068405575,128705.0,76307.0,4777.0,2.7337766825949075
63105.73073470532,128659.0,76292.0,4774.0,2.7438273321677116
63105.74078535489,128698.0,76307.0,4770.0,2.7538779817332397
63105.75083600446,128680.0,76286.0,4786.0,2.763928631306044
63105.760886654025,128680.0,76315.0,4772.0,2.773979280871572
63105.77093730359,128661.0,76268.0,4769.0,2.7840299304371
63105.78098795316,128693.0,76311.0,4808.0,2.7940805800099042
63105.79103860273,128686.0,76295.0,4782.0,2.8041312295754324
63105.8010892523,128719.0,76301.0,4802.0,2.8141818791482365
63105.81113990187,128679.0,76290.0,4760.0,2.8242325287137646
63105.82119055143,128693.0,76320.0,4805.0,2.8342831782792928
63105.831241201005,128691.0,76293.0,4782.0,2.844333827852097
63105.84129185057,128642.0,76290.0,4735.0,2.854384477417625
63105.851342500144,128684.0,76313.0,4793.0,2.864435126990429
63105.86139314971,128694.0,76303.0,4790.0,2.8744857765559573
63105.871443799275,128699.0,76302.0,4786.0,2.8845364261214854
63105.88149444885,128677.0,76285.0,4786.0,2.8945870756942895
63105.89154509841,128721.0,76300.0,4783.0,2.9046377252598177
63105.901595747986,128660.0,76279.0,4786.0,2.9146883748326218
63105.91164639755,128689.0,76301.0,4790.0,2.92473902439815
63105.92169704712,128680.0,76299.0,4768.0,2.934789673963678
63105.93174769669,128708.0,76307.0,4810.0,2.944840323536482
63105.941798346255,128693.0,76283.0,4785.0,2.9548909731020103
63105.95184899582,128706.0,76297.0,4786.0,2.9649416226675385
63105.961899645394,128700.0,76287.0,4808.0,2.9749922722403426
63105.97195029496,128667.0,76314.0,4777.0,2.9850429218058707
63105.98200094453,128686.0,76305.0,4801.0,2.995093571378675
63105.9920515941,128688.0,76303.0,4793.0,3.005144220944203
63106.00210224366,128690.0,76301.0,4787.0,3.015194870509731
63106.012152893236,128679.0,76261.0,4780.0,3.0252455200825352
63106.0222035428,128722.0,76288.0,4794.0,3.0352961696480634
63106.032254192374,128705.0,76294.0,4792.0,3.0453468192208675
63106.04230484194,128683.0,76286.0,4775.0,3.0553974687863956
63106.052355491505,128707.0,76282.0,4779.0,3.0654481183519238
63106.06240614108,128713.0,76314.0,4801.0,3.075498767924728
63106.07245679064,128702.0,76285.0,4800.0,3.085549417490256
63106.08250744022,128702.0,76270.0,4788.0,3.09560006706306
63106.09255808978,128699.0,76287.0,4777.0,3.1056507166285883
63106.10260873935,128695.0,76293.0,4768.0,3.1157013661941164
63106.11265938892,128692.0,76291.0,4819.0,3.1257520157669205
63106.122710038486,128686.0,76301.0,4788.0,3.1358026653324487
63106.13276068806,128657.0,76270.0,4778.0,3.1458533149052528
63106.142811337624,128660.0,76321.0,4788.0,3.155903964470781
63106.15286198719,128702.0,76298.0,4805.0,3.165954614036309
63106.16291263676,128672.0,76306.0,4789.0,3.176005263609113
63106.17296328633,128685.0,76330.0,4788.0,3.1860559131746413
63106.18301393589,128674.0,76260.0,4766.0,3.1961065627401695
63106.193064585466,128650.0,76268.0,4769.0,3.2061572123129736
63106.20311523503,128669.0,76287.0,4780.0,3.2162078618785017
63106.213165884605,128682.0,76308.0,4789.0,3.226258511451306
63106.22321653417,128668.0,76299.0,4757.0,3.236309161016834
63106.233267183736,128650.0,76273.0,4762.0,3.246359810582362
63106.24331783331,128648.0,76312.0,4769.0,3.256410460155166
63106.253368482874,128654.0,76318.0,4791.0,3.2664611097206944
63106.26341913245,128651.0,76259.0,4766.0,3.2765117592934985
63106.27346978201,128673.0,76297.0,4798.0,3.2865624088590266
63106.28352043158,128664.0,76294.0,4779.0,3.2966130584245548
63106.29357108115,128702.0,76281.0,4786.0,3.306663707997359
63106.303621730716,128665.0,76291.0,4753.0,3.316714357562887
63106.31367238029,128675.0,76275.0,4784.0,3.326765007135691
63106.323723029855,128660.0,76302.0,4784.0,3.3368156567012193
63106.33377367942,128658.0,76324.0,4788.0,3.3468663062667474
63106.34382432899,128647.0,76283.0,4760.0,3.3569169558395515
63106.35387497856,128647.0,76275.0,4763.0,3.3669676054050797
63106.36392562813,128656.0,76291.0,4775.0,3.3770182549778838
63106.3739762777,128643.0,76261.0,4756.0,3.387068904543412
63106.38402692726,128644.0,76289.0,4814.0,3.39711955410894
63106.394077576835,128633.0,76275.0,4798.0,3.407170203681744
63106.4041282264,128654.0,76286.0,4788.0,3.4172208532472723
63106.414178875966,128637.0,76281.0,4775.0,3.4272715028128005
63106.42422952554,128653.0,76291.0,4790.0,3.4373221523856046
63106.434280175105,128651.0,76285.0,4783.0,3.4473728019511327
63106.44433082468,128656.0,76295.0,4776.0,3.457423451523937
63106.45438147424,128631.0,76270.0,4761.0,3.467474101089465
63106.46443212381,128666.0,76295.0,4760.0,3.477524750654993
63106.47448277338,128666.0,76265.0,4794.0,3.487575400227797
63106.48453342295,128647.0,76278.0,4782.0,3.4976260497933254
63106.49458407252,128645.0,76277.0,4784.0,3.5076766993661295
63106.504634722085,128617.0,76263.0,4768.0,3.5177273489316576
63106.51468537165,128618.0,76268.0,4755.0,3.5277779984971858
63106.52473602122,128648.0,76296.0,4773.0,3.53782864806999
63106.53478667079,128665.0,76280.0,4759.0,3.547879297635518
63106.54483732036,128673.0,76301.0,4797.0,3.557929947208322
63106.55488796993,128641.0,76264.0,4774.0,3.5679805967738503
63106.56493861949,128653.0,76287.0,4778.0,3.5780312463393784
63106.574989269066,128659.0,76311.0,4791.0,3.5880818959121825
63106.58503991863,128655.0,76255.0,4786.0,3.5981325454777107
63106.595090568204,128647.0,76291.0,4745.0,3.6081831950505148
63106.60514121777,128661.0,76274.0,4800.0,3.618233844616043
63106.615191867335,128643.0,76282.0,4796.0,3.628284494181571
63106.62524251691,128627.0,76270.0,4765.0,3.638335143754375
63106.63529316647,128641.0,76317.0,4779.0,3.6483857933199033
63106.64534381604,128692.0,76307.0,4797.0,3.6584364428854315
63106.65539446561,128649.0,76280.0,4779.0,3.6684870924582356
63106.66544511518,128633.0,76271.0,4777.0,3.6785377420237637
63106.67549576475,128690.0,76293.0,4801.0,3.688588391596568
63106.685546414315,128653.0,76285.0,4780.0,3.698639041162096
63106.69559706388,128660.0,76287.0,4789.0,3.708689690727624
63106.705647713454,128680.0,76313.0,4775.0,3.718740340300428
63106.71569836302,128677.0,76269.0,4809.0,3.7287909898659564
63106.72574901259,128640.0,76265.0,4780.0,3.7388416394387605
63106.73579966216,128656.0,76278.0,4787.0,3.7488922890042886
63106.74585031172,128645.0,76256.0,4776.0,3.7589429385698168
63106.755900961296,128669.0,76275.0,4795.0,3.768993588142621
63106.76595161086,128658.0,76265.0,4774.0,3.779044237708149
63106.776002260434,128684.0,76309.0,4808.0,3.789094887280953
63106.78605291,128704.0,76279.0,4799.0,3.7991455368464813
63106.796103559565,128637.0,76250.0,4786.0,3.8091961864120094
63106.80615420914,128680.0,76312.0,4818.0,3.8192468359848135
63106.816204858704,128672.0,76294.0,4784.0,3.8292974855503417
63106.82625550828,128685.0,76312.0,4783.0,3.8393481351231458
63106.83630615784,128659.0,76271.0,4761.0,3.849398784688674
63106.84635680741,128668.0,76294.0,4771.0,3.859449434254202
63106.85640745698,128690.0,76289.0,4788.0,3.869500083827006
63106.866458106546,128674.0,76273.0,4773.0,3.8795507333925343
63106.87650875611,128671.0,76268.0,4757.0,3.8896013829580625
63106.886559405684,128674.0,76286.0,4796.0,3.8996520325308666
63106.89661005525,128693.0,76285.0,4780.0,3.9097026820963947
63106.90666070482,128642.0,76268.0,4752.0,3.919753331669199
63106.91671135439,128674.0,76321.0,4775.0,3.929803981234727
63106.92676200395,128670.0,76290.0,4806.0,3.939854630800255
63106.93681265353,128684.0,76293.0,4775.0,3.949905280373059
63106.94686330309,128680.0,76285.0,4779.0,3.9599559299385874
63106.956913952665,128663.0,76279.0,4754.0,3.9700065795113915
63106.96696460223,128685.0,76311.0,4801.0,3.9800572290769196
63106.977015251796,128683.0,76289.0,4789.0,3.9901078786424478
63106.98706590137,128692.0,76290.0,4755.0,4.000158528215252
63106.997116550934,128693.0,76311.0,4807.0,4.01020917778078
63107.00716720051,128648.0,76273.0,4762.0,4.020259827353584
63107.01721785007,128674.0,76282.0,4786.0,4.030310476919112
63107.02726849964,128680.0,76323.0,4776.0,4.04036112648464
63107.03731914921,128661.0,76282.0,4790.0,4.0504117760574445
63107.047369798776,128663.0,76273.0,4784.0,4.060462425622973
63107.05742044835,128667.0,76288.0,4775.0,4.070513075195777
63107.067471097915,128649.0,76286.0,4794.0,4.080563724761305
63107.07752174748,128686.0,76283.0,4806.0,4.090614374326833
63107.08757239705,128696.0,76285.0,4770.0,4.100665023899637
63107.09762304662,128671.0,76295.0,4789.0,4.110715673465165
63107.107673696184,128674.0,76270.0,4785.0,4.1207663230306935
63107.11772434576,128653.0,76260.0,4777.0,4.130816972603498
63107.12777499532,128633.0,76268.0,4754.0,4.140867622169026
63107.137825644895,128656.0,76275.0,4763.0,4.15091827174183
63107.14787629446,128651.0,76279.0,4771.0,4.160968921307358
63107.157926944026,128611.0,76250.0,4773.0,4.171019570872886
63107.1679775936,128610.0,76251.0,4767.0,4.18107022044569
63107.178028243165,128648.0,76305.0,4798.0,4.191120870011218
63107.18807889274,128638.0,76278.0,4771.0,4.2011715195840225
63107.1981295423,128594.0,76286.0,4755.0,4.211222169149551
63107.20818019187,128662.0,76310.0,4785.0,4.221272818715079
63107.21823084144,128617.0,76260.0,4778.0,4.231323468287883
63107.22828149101,128634.0,76282.0,4779.0,4.241374117853411
63107.23833214058,128592.0,76256.0,4766.0,4.251424767426215
63107.248382790145,128638.0,76284.0,4768.0,4.261475416991743
63107.25843343971,128652.0,76263.0,4767.0,4.271526066557271
63107.26848408928,128636.0,76282.0,4775.0,4.2815767161300755
63107.27853473885,128637.0,76285.0,4760.0,4.291627365695604
63107.28858538842,128626.0,76285.0,4761.0,4.301678015268408
63107.29863603799,128618.0,76279.0,4750.0,4.311728664833936
63107.30868668755,128624.0,76272.0,4766.0,4.321779314399464
63107.318737337126,128636.0,76313.0,4783.0,4.331829963972268
63107.32878798669,128614.0,76261.0,4802.0,4.341880613537796
63107.33883863626,128607.0,76255.0,4772.0,4.3519312631033245
63107.34888928583,128640.0,76279.0,4776.0,4.361981912676129
63107.358939935395,128629.0,76273.0,4763.0,4.372032562241657
63107.36899058497,128650.0,76296.0,4792.0,4.382083211814461
63107.37904123453,128652.0,76312.0,4803.0,4.392133861379989
63107.3890918841,128628.0,76269.0,4786.0,4.402184510945517
63107.39914253367,128602.0,76268.0,4768.0,4.412235160518321
63107.40919318324,128619.0,76249.0,4751.0,4.422285810083849
63107.41924383281,128668.0,76298.0,4790.0,4.4323364596566535
63107.429294482376,128633.0,76286.0,4782.0,4.442387109222182
63107.43934513194,128635.0,76268.0,4742.0,4.45243775878771
63107.449395781514,128610.0,76265.0,4760.0,4.462488408360514
63107.45944643108,128631.0,76257.0,4772.0,4.472539057926042
63107.46949708065,128627.0,76282.0,4766.0,4.482589707498846
63107.47954773022,128593.0,76265.0,4759.0,4.492640357064374
63107.48959837978,128617.0,76244.0,4754.0,4.502691006629902
63107.499649029356,128633.0,76269.0,4793.0,4.5127416562027065
63107.50969967892,128621.0,76279.0,4770.0,4.522792305768235
63107.519750328494,128633.0,76296.0,4756.0,4.532842955341039
63107.52980097806,128603.0,76274.0,4762.0,4.542893604906567
63107.539851627625,128620.0,76287.0,4739.0,4.552944254472095
63107.5499022772,128617.0,76264.0,4748.0,4.562994904044899
63107.559952926764,128597.0,76254.0,4785.0,4.573045553610427
63107.57000357633,128631.0,76260.0,4807.0,4.5830962031759555
63107.5800542259,128617.0,76275.0,4753.0,4.59314685274876
63107.59010487547,128623.0,76266.0,4795.0,4.603197502314288
63107.60015552504,128617.0,76283.0,4784.0,4.613248151887092
63107.610206174606,128626.0,76283.0,4759.0,4.62329880145262
63107.62025682417,128606.0,76262.0,4754.0,4.633349451018148
63107.630307473744,128609.0,76254.0,4761.0,4.643400100590952
63107.64035812331,128616.0,76273.0,4775.0,4.65345075015648
63107.65040877288,128576.0,76296.0,4770.0,4.6635013997292845
63107.66045942245,128608.0,76283.0,4798.0,4.673552049294813
63107.670510072014,128609.0,76271.0,4760.0,4.683602698860341
63107.68056072159,128612.0,76267.0,4779.0,4.693653348433145
63107.69061137115,128597.0,76254.0,4780.0,4.703703997998673
63107.700662020725,128636.0,76284.0,4768.0,4.713754647571477
63107.71071267029,128605.0,76276.0,4770.0,4.723805297137005
63107.720763319856,128618.0,76278.0,4776.0,4.733855946702533
63107.73081396943,128638.0,76290.0,4803.0,4.7439065962753375
63107.740864618994,128625.0,76272.0,4761.0,4.753957245840866
63107.75091526857,128633.0,76248.0,4783.0,4.76400789541367
63107.76096591813,128626.0,76265.0,4767.0,4.774058544979198
63107.7710165677,128604.0,76243.0,4793.0,4.784109194544726
63107.78106721727,128635.0,76296.0,4801.0,4.79415984411753
63107.79111786684,128637.0,76293.0,4795.0,4.804210493683058
63107.8011685164,128625.0,76265.0,4782.0,4.8142611432485864
63107.811219165975,128610.0,76271.0,4763.0,4.8243117928213906
63107.82126981554,128620.0,76280.0,4805.0,4.834362442386919
63107.83132046511,128659.0,76288.0,4778.0,4.844413091959723
63107.84137111468,128583.0,76266.0,4750.0,4.854463741525251
63107.851421764244,128609.0,76256.0,4779.0,4.864514391090779
63107.86147241382,128633.0,76276.0,4774.0,4.874565040663583
63107.87152306338,128607.0,76256.0,4764.0,4.884615690229111
63107.881573712955,128628.0,76269.0,4782.0,4.8946663398019155
63107.89162436252,128608.0,76248.0,4760.0,4.904716989367444
63107.901675012086,128596.0,76244.0,4764.0,4.914767638932972
63107.91172566166,128617.0,76244.0,4767.0,4.924818288505776
63107.921776311225,128623.0,76274.0,4781.0,4.934868938071304
63107.9318269608,128656.0,76258.0,4773.0,4.944919587644108
63107.94187761036,128649.0,76287.0,4803.0,4.954970237209636
63107.95192825993,128611.0,76265.0,4758.0,4.965020886775164
63107.9619789095,128623.0,76266.0,4780.0,4.9750715363479685
63107.97202955907,128590.0,76266.0,4737.0,4.985122185913497
63107.98208020864,128590.0,76262.0,4752.0,4.995172835486301
63107.992130858205,128613.0,76264.0,4794.0,5.005223485051829
63108.00218150777,128599.0,76261.0,4771.0,5.015274134617357
63108.01223215734,128581.0,76247.0,4781.0,5.025324784190161
63108.02228280691,128587.0,76239.0,4759.0,5.035375433755689
63108.032333456475,128601.0,76261.0,4759.0,5.0454260833212174
63108.04238410605,128593.0,76263.0,4789.0,5.0554767328940216
63108.05243475561,128604.0,76274.0,4773.0,5.06552738245955
63108.062485405186,128561.0,76254.0,4757.0,5.075578032032354
63108.07253605475,128596.0,76291.0,4802.0,5.085628681597882
63108.08258670432,128607.0,76252.0,4787.0,5.09567933116341
63108.09263735389,128598.0,76258.0,4773.0,5.105729980736214
63108.102688003455,128617.0,76302.0,4785.0,5.115780630301742
63108.11273865303,128599.0,76277.0,4785.0,5.1258312798745465
63108.12278930259,128596.0,76256.0,4804.0,5.135881929440075
63108.13283995216,128579.0,76266.0,4769.0,5.145932579005603
63108.14289060173,128580.0,76271.0,4784.0,5.155983228578407
63108.1529412513,128622.0,76263.0,4789.0,5.166033878143935
63108.16299190087,128566.0,76240.0,4770.0,5.176084527716739
63108.173042550436,128578.0,76269.0,4771.0,5.186135177282267
63108.1830932,128553.0,76267.0,4805.0,5.196185826847795
63108.193143849574,128573.0,76264.0,4791.0,5.2062364764205995
63108.20319449914,128588.0,76244.0,4801.0,5.216287125986128
63108.21324514871,128575.0,76253.0,4769.0,5.226337775558932
63108.22329579828,128553.0,76242.0,4749.0,5.23638842512446
63108.23334644784,128549.0,76231.0,4774.0,5.246439074689988
63108.243397097416,128565.0,76249.0,4763.0,5.256489724262792
63108.25344774698,128571.0,76256.0,4775.0,5.26654037382832
63108.26349839655,128597.0,76245.0,4782.0,5.2765910233938484
63108.27354904612,128561.0,76244.0,4746.0,5.2866416729666525
63108.283599695686,128593.0,76262.0,4795.0,5.296692322532181
63108.29365034526,128576.0,76254.0,4768.0,5.306742972104985
63108.303700994824,128571.0,76255.0,4775.0,5.316793621670513
63108.31375164439,128596.0,76271.0,4795.0,5.326844271236041
63108.32380229396,128568.0,76225.0,4757.0,5.336894920808845
63108.33385294353,128583.0,76259.0,4766.0,5.346945570374373
63108.3439035931,128569.0,76252.0,4782.0,5.3569962199471775
63108.353954242666,128572.0,76284.0,4792.0,5.367046869512706
63108.36400489223,128572.0,76246.0,4792.0,5.377097519078234
63108.374055541804,128542.0,76236.0,4746.0,5.387148168651038
63108.38410619137,128555.0,76244.0,4796.0,5.397198818216566
63108.39415684094,128591.0,76270.0,4776.0,5.40724946778937
63108.40420749051,128562.0,76254.0,4771.0,5.417300117354898
63108.414258140074,128579.0,76264.0,4764.0,5.427350766920426
63108.42430878965,128581.0,76247.0,4770.0,5.4374014164932305
63108.43435943921,128563.0,76241.0,4765.0,5.447452066058759
63108.444410088785,128549.0,76266.0,4749.0,5.457502715631563
63108.45446073835,128569.0,76255.0,4774.0,5.467553365197091
63108.464511387916,128573.0,76254.0,4749.0,5.477604014762619
63108.47456203749,128567.0,76266.0,4799.0,5.487654664335423
63108.484612687054,128572.0,76251.0,4765.0,5.497705313900951
63108.49466333662,128572.0,76257.0,4766.0,5.507755963466479
63108.50471398619,128530.0,76244.0,4761.0,5.5178066130392835
63108.51476463576,128562.0,76256.0,4759.0,5.527857262604812
63108.52481528533,128561.0,76272.0,4808.0,5.537907912177616
63108.5348659349,128583.0,76257.0,4797.0,5.547958561743144
63108.54491658446,128582.0,76273.0,4771.0,5.558009211308672
63108.554967234035,128570.0,76241.0,4759.0,5.568059860881476
63108.5650178836,128557.0,76267.0,4770.0,5.578110510447004
63108.57506853317,128610.0,76258.0,4796.0,5.5881611600198084
63108.58511918274,128580.0,76264.0,4776.0,5.598211809585337
63108.595169832304,128582.0,76254.0,4770.0,5.608262459150865
63108.60522048188,128598.0,76266.0,4762.0,5.618313108723669
63108.61527113144,128561.0,76236.0,4758.0,5.628363758289197
63108.625321781015,128568.0,76262.0,4774.0,5.638414407862001
63108.63537243058,128556.0,76278.0,4769.0,5.648465057427529
63108.64542308015,128618.0,76280.0,4791.0,5.658515706993057
63108.65547372972,128556.0,76241.0,4784.0,5.6685663565658615
63108.665524379285,128583.0,76255.0,4773.0,5.67861700613139
63108.67557502886,128590.0,76246.0,4772.0,5.688667655704194
63108.68562567842,128561.0,76247.0,4783.0,5.698718305269722
63108.69567632799,128567.0,76261.0,4770.0,5.70876895483525
63108.70572697756,128589.0,76252.0,4773.0,5.718819604408054
63108.71577762713,128605.0,76259.0,4789.0,5.728870253973582
63108.72582827669,128586.0,76233.0,4772.0,5.73892090353911
63108.735878926265,128579.0,76228.0,4773.0,5.7489715531119145
63108.74592957583,128593.0,76250.0,4779.0,5.759022202677443
63108.7559802254,128603.0,76291.0,4796.0,5.769072852250247
63108.76603087497,128580.0,76229.0,4770.0,5.779123501815775
63108.776081524535,128548.0,76241.0,4769.0,5.789174151381303
63108.78613217411,128559.0,76250.0,4772.0,5.799224800954107
63108.79618282367,128550.0,76236.0,4772.0,5.809275450519635
63108.806233473246,128517.0,76231.0,4745.0,5.8193261000924394
63108.81628412281,128564.0,76272.0,4767.0,5.829376749657968
63108.82633477238,128540.0,76246.0,4764.0,5.839427399223496
63108.83638542195,128510.0,76259.0,4763.0,5.8494780487963
63108.846436071515,128537.0,76256.0,4747.0,5.859528698361828
63108.85648672109,128563.0,76263.0,4796.0,5.869579347934632
63108.86653737065,128527.0,76252.0,4766.0,5.87962999750016
63108.87658802022,128535.0,76244.0,4743.0,5.889680647065688
63108.88663866979,128551.0,76257.0,4741.0,5.8997312966384925
63108.89668931936,128552.0,76259.0,4777.0,5.909781946204021
63108.90673996893,128513.0,76235.0,4762.0,5.919832595776825
63108.916790618496,128532.0,76229.0,4759.0,5.929883245342353
63108.92684126806,128492.0,76258.0,4772.0,5.939933894907881
63108.936891917634,128512.0,76257.0,4758.0,5.949984544480685
63108.9469425672,128523.0,76237.0,4768.0,5.960035194046213
63108.956993216765,128512.0,76248.0,4740.0,5.970085843611741
63108.96704386634,128546.0,76260.0,4789.0,5.9801364931845455
63108.9770945159,128479.0,76238.0,4750.0,5.990187142750074
63108.987145165476,128525.0,76239.0,4772.0,6.000237792322878
63108.99719581504,128497.0,76261.0,4769.0,6.010288441888406
63109.00724646461,128546.0,76247.0,4798.0,6.020339091453934
63109.01729711418,128534.0,76243.0,4749.0,6.030389741026738
63109.027347763746,128528.0,76248.0,4801.0,6.040440390592266
63109.03739841332,128481.0,76220.0,4761.0,6.0504910401650704
63109.047449062884,128500.0,76231.0,4770.0,6.060541689730599
63109.05749971245,128500.0,76246.0,4735.0,6.070592339296127
63109.06755036202,128543.0,76247.0,4792.0,6.080642988868931
63109.07760101159,128517.0,76259.0,4761.0,6.090693638434459
63109.08765166116,128513.0,76211.0,4765.0,6.100744288007263
63109.097702310726,128507.0,76218.0,4764.0,6.110794937572791
63109.10775296029,128508.0,76249.0,4782.0,6.120845587138319
63109.117803609864,128506.0,76234.0,4759.0,6.1308962367111235
63109.12785425943,128514.0,76236.0,4769.0,6.140946886276652
63109.137904909,128484.0,76224.0,4749.0,6.150997535849456
63109.14795555857,128496.0,76214.0,4768.0,6.161048185414984
63109.158006208134,128505.0,76233.0,4766.0,6.171098834980512
63109.16805685771,128490.0,76223.0,4742.0,6.181149484553316
63109.17810750727,128529.0,76265.0,4789.0,6.191200134118844
63109.18815815684,128493.0,76222.0,4739.0,6.201250783684372
63109.19820880641,128511.0,76229.0,4761.0,6.2113014332571765
63109.208259455976,128503.0,76250.0,4764.0,6.221352082822705
63109.21831010555,128486.0,76209.0,4775.0,6.231402732395509
63109.228360755114,128477.0,76220.0,4745.0,6.241453381961037
63109.23841140468,128512.0,76245.0,4770.0,6.251504031526565
63109.24846205425,128513.0,76253.0,4752.0,6.261554681099369
63109.25851270382,128491.0,76226.0,4799.0,6.271605330664897
63109.26856335339,128508.0,76225.0,4758.0,6.281655980237701
63109.27861400296,128508.0,76239.0,4770.0,6.29170662980323
63109.28866465252,128510.0,76253.0,4773.0,6.301757279368758
63109.298715302095,128485.0,76231.0,4746.0,6.311807928941562
63109.30876595166,128514.0,76234.0,4756.0,6.32185857850709
63109.31881660123,128504.0,76221.0,4775.0,6.331909228079894
63109.3288672508,128490.0,76240.0,4767.0,6.341959877645422
63109.338917900364,128493.0,76231.0,4759.0,6.35201052721095
63109.34896854994,128520.0,76259.0,4784.0,6.3620611767837545
63109.3590191995,128503.0,76235.0,4771.0,6.372111826349283
63109.369069849075,128543.0,76222.0,4796.0,6.382162475922087
63109.37912049864,128503.0,76234.0,4770.0,6.392213125487615
63109.38917114821,128496.0,76243.0,4783.0,6.402263775053143
63109.39922179778,128509.0,76234.0,4776.0,6.412314424625947
63109.409272447345,128491.0,76236.0,4780.0,6.422365074191475
63109.41932309691,128477.0,76237.0,4755.0,6.432415723757003
63109.42937374648,128498.0,76239.0,4762.0,6.4424663733298075
63109.43942439605,128503.0,76229.0,4758.0,6.452517022895336
63109.44947504562,128521.0,76240.0,4743.0,6.46256767246814
63109.45952569519,128518.0,76227.0,4769.0,6.472618322033668
63109.46957634475,128499.0,76216.0,4781.0,6.482668971599196
63109.479626994325,128498.0,76236.0,4752.0,6.492719621172
63109.48967764389,128485.0,76233.0,4779.0,6.502770270737528
63109.499728293464,128533.0,76238.0,4788.0,6.512820920310332
63109.50977894303,128484.0,76206.0,4779.0,6.522871569875861
63109.519829592595,128501.0,76239.0,4800.0,6.532922219441389
63109.52988024217,128506.0,76230.0,4767.0,6.542972869014193
63109.53993089173,128514.0,76243.0,4785.0,6.553023518579721
63109.549981541306,128472.0,76233.0,4748.0,6.563074168152525
63109.56003219087,128494.0,76236.0,4768.0,6.573124817718053
63109.57008284044,128483.0,76277.0,4794.0,6.583175467283581
63109.58013349001,128474.0,76222.0,4759.0,6.5932261168563855
63109.590184139575,128454.0,76222.0,4767.0,6.603276766421914
63109.60023478915,128483.0,76249.0,4774.0,6.613327415994718
63109.61028543871,128467.0,76228.0,4769.0,6.623378065560246
63109.62033608828,128451.0,76215.0,4799.0,6.633428715125774
63109.63038673785,128480.0,76257.0,4780.0,6.643479364698578
63109.64043738742,128448.0,76218.0,4764.0,6.653530014264106
63109.65048803698,128461.0,76228.0,4762.0,6.663580663829634
63109.660538686556,128444.0,76199.0,4733.0,6.6736313134024385
63109.67058933612,128480.0,76233.0,4728.0,6.683681962967967
63109.680639985694,128434.0,76205.0,4752.0,6.693732612540771
63109.69069063526,128457.0,76221.0,4770.0,6.703783262106299
63109.700741284825,128460.0,76230.0,4754.0,6.713833911671827
63109.7107919344,128472.0,76249.0,4770.0,6.723884561244631
63109.72084258396,128444.0,76207.0,4761.0,6.733935210810159
63109.730893233536,128438.0,76229.0,4756.0,6.743985860382963
63109.7409438831,128451.0,76230.0,4728.0,6.754036509948492
63109.75099453267,128434.0,76218.0,4725.0,6.76408715951402
63109.76104518224,128412.0,76202.0,4738.0,6.774137809086824
63109.771095831806,128446.0,76237.0,4766.0,6.784188458652352
63109.78114648138,128424.0,76249.0,4764.0,6.794239108225156
63109.791197130944,128429.0,76226.0,4746.0,6.804289757790684
63109.80124778051,128443.0,76230.0,4736.0,6.814340407356212
63109.81129843008,128443.0,76224.0,4756.0,6.8243910569290165
63109.82134907965,128449.0,76243.0,4763.0,6.834441706494545
63109.83139972922,128411.0,76220.0,4736.0,6.844492356067349
63109.841450378786,128470.0,76216.0,4759.0,6.854543005632877
63109.85150102835,128442.0,76232.0,4751.0,6.864593655198405
63109.861551677925,128482.0,76221.0,4782.0,6.874644304771209
63109.87160232749,128435.0,76218.0,4751.0,6.884694954336737
63109.881652977056,128465.0,76212.0,4758.0,6.894745603902265
63109.89170362663,128440.0,76222.0,4764.0,6.9047962534750695
63109.901754276194,128437.0,76260.0,4777.0,6.914846903040598
63109.91180492577,128426.0,76222.0,4737.0,6.924897552613402
63109.92185557533,128470.0,76257.0,4783.0,6.93494820217893
63109.9319062249,128451.0,76234.0,4768.0,6.944998851744458
63109.94195687447,128429.0,76213.0,4766.0,6.955049501317262
63109.952007524036,128458.0,76243.0,4789.0,6.96510015088279
63109.96205817361,128466.0,76243.0,4787.0,6.975150800455594
63109.972108823174,128423.0,76216.0,4728.0,6.985201450021123
63109.98215947274,128418.0,76225.0,4775.0,6.995252099586651
63109.99221012231,128450.0,76254.0,4755.0,7.005302749159455
63110.00226077188,128458.0,76214.0,4773.0,7.015353398724983
63110.01231142145,128439.0,76232.0,4758.0,7.025404048297787
63110.02236207102,128445.0,76203.0,4762.0,7.035454697863315
63110.03241272058,128430.0,76226.0,4766.0,7.045505347428843
63110.042463370155,128436.0,76226.0,4741.0,7.0555559970016475
63110.05251401972,128471.0,76226.0,4778.0,7.065606646567176
63110.06256466929,128441.0,76244.0,4765.0,7.07565729613998
63110.07261531886,128471.0,76263.0,4762.0,7.085707945705508
63110.082665968424,128438.0,76222.0,4745.0,7.095758595271036
63110.092716618,128454.0,76232.0,4743.0,7.10580924484384
63110.10276726756,128479.0,76224.0,4778.0,7.115859894409368
63110.11281791713,128425.0,76208.0,4797.0,7.125910543974896
63110.1228685667,128440.0,76212.0,4754.0,7.1359611935477005
63110.13291921627,128464.0,76214.0,4774.0,7.146011843113229
63110.14296986584,128466.0,76237.0,4772.0,7.156062492686033
63110.153020515405,128454.0,76213.0,4766.0,7.166113142251561
63110.16307116497,128453.0,76228.0,4734.0,7.176163791817089
63110.17312181454,128480.0,76254.0,4790.0,7.186214441389893
63110.18317246411,128456.0,76243.0,4765.0,7.196265090955421
63110.19322311368,128446.0,76228.0,4759.0,7.206315740528225
63110.20327376325,128448.0,76248.0,4779.0,7.216366390093754
63110.21332441281,128484.0,76249.0,4790.0,7.226417039659282
63110.223375062385,128465.0,76246.0,4770.0,7.236467689232086
63110.23342571195,128463.0,76228.0,4764.0,7.246518338797614
63110.243476361524,128464.0,76239.0,4792.0,7.256568988370418
63110.25352701109,128458.0,76241.0,4761.0,7.266619637935946
63110.263577660655,128457.0,76231.0,4770.0,7.276670287501474
63110.27362831023,128437.0,76245.0,4768.0,7.2867209370742785
63110.28367895979,128501.0,76232.0,4787.0,7.296771586639807
63110.293729609366,128442.0,76211.0,4766.0,7.306822236212611
63110.30378025893,128476.0,76228.0,4769.0,7.316872885778139
63110.3138309085,128458.0,76204.0,4759.0,7.326923535343667
63110.32388155807,128482.0,76245.0,4777.0,7.336974184916471
63110.333932207635,128461.0,76251.0,4776.0,7.347024834481999
63110.3439828572,128476.0,76236.0,4771.0,7.357075484047527
63110.354033506774,128511.0,76231.0,4783.0,7.3671261336203315
63110.36408415634,128479.0,76216.0,4740.0,7.37717678318586
63110.37413480591,128486.0,76205.0,4774.0,7.387227432758664
63110.38418545548,128485.0,76233.0,4773.0,7.397278082324192
63110.39423610504,128477.0,76207.0,4762.0,7.40732873188972
63110.404286754616,128503.0,76229.0,4755.0,7.417379381462524
63110.41433740418,128502.0,76255.0,4766.0,7.427430031028052
63110.424388053754,128491.0,76248.0,4780.0,7.437480680600856
63110.43443870332,128506.0,76248.0,4755.0,7.447531330166385
63110.444489352885,128522.0,76250.0,4763.0,7.457581979731913
63110.45454000246,128472.0,76275.0,4774.0,7.467632629304717
63110.46459065202,128483.0,76248.0,4760.0,7.477683278870245
63110.4746413016,128457.0,76229.0,4773.0,7.487733928443049
63110.48469195116,128460.0,76249.0,4756.0,7.497784578008577
63110.49474260073,128482.0,76270.0,4782.0,7.507835227574105
63110.5047932503,128415.0,76230.0,4725.0,7.5178858771469095
63110.514843899866,128454.0,76223.0,4757.0,7.527936526712438
63110.52489454944,128452.0,76238.0,4740.0,7.537987176285242
63110.534945199004,128439.0,76218.0,4747.0,7.54803782585077
63110.54499584857,128429.0,76224.0,4730.0,7.558088475416298
63110.55504649814,128453.0,76235.0,4761.0,7.568139124989102
63110.56509714771,128467.0,76268.0,4768.0,7.57818977455463
63110.57514779727,128473.0,76252.0,4783.0,7.588240424120158
63110.585198446846,128428.0,76213.0,4767.0,7.5982910736929625
63110.59524909641,128443.0,76231.0,4753.0,7.608341723258491
63110.605299745985,128448.0,76256.0,4791.0,7.618392372831295
63110.61535039555,128469.0,76261.0,4758.0,7.628443022396823
63110.625401045116,128447.0,76229.0,4735.0,7.638493671962351
63110.63545169469,128448.0,76266.0,4775.0,7.648544321535155
63110.645502344254,128434.0,76250.0,4746.0,7.658594971100683
63110.65555299383,128417.0,76238.0,4728.0,7.668645620673487
63110.66560364339,128460.0,76245.0,4764.0,7.678696270239016
63110.67565429296,128432.0,76239.0,4762.0,7.688746919804544
63110.68570494253,128417.0,76216.0,4753.0,7.698797569377348
63110.695755592096,128437.0,76243.0,4735.0,7.708848218942876
63110.70580624167,128456.0,76243.0,4769.0,7.71889886851568
63110.715856891235,128441.0,76233.0,4761.0,7.728949518081208
63110.7259075408,128461.0,76256.0,4754.0,7.739000167646736
63110.73595819037,128405.0,76245.0,4735.0,7.7490508172195405
63110.74600883994,128425.0,76227.0,4766.0,7.759101466785069
63110.75605948951,128452.0,76250.0,4754.0,7.769152116357873
63110.76611013908,128450.0,76275.0,4766.0,7.779202765923401
63110.77616078864,128453.0,76255.0,4784.0,7.789253415488929
63110.786211438215,128446.0,76260.0,4781.0,7.799304065061733
63110.79626208778,128442.0,76243.0,4759.0,7.809354714627261
63110.806312737346,128428.0,76228.0,4754.0,7.819405364192789
63110.81636338692,128441.0,76247.0,4741.0,7.8294560137655935
63110.826414036484,128436.0,76255.0,4780.0,7.839506663331122
63110.83646468606,128444.0,76241.0,4760.0,7.849557312903926
63110.84651533562,128472.0,76240.0,4790.0,7.859607962469454
63110.85656598519,128430.0,76229.0,4764.0,7.869658612034982
63110.86661663476,128426.0,76229.0,4724.0,7.879709261607786
63110.87666728433,128442.0,76251.0,4766.0,7.889759911173314
63110.8867179339,128432.0,76245.0,4754.0,7.899810560746118
63110.896768583465,128434.0,76215.0,4771.0,7.909861210311647
63110.90681923303,128421.0,76230.0,4745.0,7.919911859877175
63110.9168698826,128430.0,76253.0,4766.0,7.929962509449979
63110.92692053217,128438.0,76274.0,4771.0,7.940013159015507
63110.93697118174,128466.0,76273.0,4783.0,7.950063808588311
63110.94702183131,128469.0,76261.0,4747.0,7.960114458153839
63110.95707248087,128445.0,76250.0,4741.0,7.970165107719367
63110.967123130446,128437.0,76240.0,4772.0,7.9802157572921715
63110.97717378001,128478.0,76249.0,4779.0,7.9902664068577
63110.987224429584,128396.0,76270.0,4752.0,8.000317056430504
63110.99727507915,128474.0,76246.0,4778.0,8.010367705996032
63111.007325728715,128441.0,76263.0,4762.0,8.02041835556156
63111.01737637829,128454.0,76239.0,4734.0,8.030469005134364
63111.02742702785,128467.0,76250.0,4769.0,8.040519654699892
63111.03747767742,128433.0,76252.0,4743.0,8.05057030426542
63111.04752832699,128434.0,76261.0,4762.0,8.060620953838225
63111.05757897656,128434.0,76233.0,4760.0,8.070671603403753
63111.06762962613,128450.0,76253.0,4751.0,8.080722252976557
63111.077680275695,128463.0,76271.0,4780.0,8.090772902542085
63111.08773092526,128448.0,76251.0,4750.0,8.100823552107613
63111.097781574834,128467.0,76261.0,4737.0,8.110874201680417
63111.1078322244,128483.0,76266.0,4740.0,8.120924851245945
63111.11788287397,128447.0,76232.0,4737.0,8.13097550081875
63111.12793352354,128461.0,76246.0,4763.0,8.141026150384278
63111.1379841731,128448.0,76255.0,4740.0,8.151076799949806
63111.148034822676,128441.0,76232.0,4760.0,8.16112744952261
63111.15808547224,128481.0,76264.0,4783.0,8.171178099088138
63111.168136121814,128473.0,76263.0,4780.0,8.181228748660942
63111.17818677138,128475.0,76264.0,4746.0,8.19127939822647
63111.188237420945,128493.0,76270.0,4774.0,8.201330047791998
63111.19828807052,128439.0,76229.0,4749.0,8.211380697364802
63111.208338720084,128464.0,76252.0,4770.0,8.22143134693033
63111.21838936966,128444.0,76254.0,4767.0,8.231481996503135
63111.22844001922,128471.0,76241.0,4749.0,8.241532646068663
63111.23849066879,128461.0,76246.0,4742.0,8.251583295634191
63111.24854131836,128458.0,76252.0,4764.0,8.261633945206995
63111.258591967926,128478.0,76257.0,4781.0,8.271684594772523
63111.26864261749,128443.0,76223.0,4750.0,8.281735244338051
63111.278693267064,128482.0,76246.0,4749.0,8.291785893910856
63111.28874391663,128469.0,76256.0,4767.0,8.301836543476384
63111.2987945662,128506.0,76266.0,4797.0,8.311887193049188
63111.30884521577,128486.0,76265.0,4739.0,8.321937842614716
63111.31889586533,128486.0,76243.0,4776.0,8.331988492180244
63111.32894651491,128469.0,76249.0,4768.0,8.342039141753048
63111.33899716447,128465.0,76258.0,4782.0,8.352089791318576
63111.349047814045,128483.0,76278.0,4795.0,8.36214044089138
63111.35909846361,128452.0,76256.0,4753.0,8.372191090456909
63111.369149113176,128480.0,76264.0,4771.0,8.382241740022437
63111.37919976275,128469.0,76228.0,4769.0,8.39229238959524
63111.389250412314,128485.0,76269.0,4772.0,8.402343039160769
63111.39930106189,128499.0,76286.0,4769.0,8.412393688733573
63111.40935171145,128489.0,76253.0,4733.0,8.422444338299101
63111.41940236102,128472.0,76248.0,4780.0,8.43249498786463
63111.42945301059,128513.0,76297.0,4804.0,8.442545637437433
63111.439503660156,128449.0,76232.0,4761.0,8.452596287002962
63111.44955430973,128458.0,76251.0,4752.0,8.462646936575766
63111.459604959295,128441.0,76226.0,4758.0,8.472697586141294
63111.46965560886,128475.0,76254.0,4756.0,8.482748235706822
63111.47970625843,128440.0,76233.0,4764.0,8.492798885279626
63111.489756908,128443.0,76244.0,4750.0,8.502849534845154
63111.499807557564,128436.0,76278.0,4752.0,8.512900184410682
63111.50985820714,128421.0,76231.0,4761.0,8.522950833983487
63111.5199088567,128409.0,76243.0,4730.0,8.533001483549015
63111.529959506275,128462.0,76276.0,4725.0,8.543052133121819
63111.54001015584,128437.0,76262.0,4752.0,8.553102782687347
63111.550060805406,128413.0,76236.0,4755.0,8.563153432252875
63111.56011145498,128428.0,76263.0,4752.0,8.57320408182568
63111.570162104545,128417.0,76256.0,4798.0,8.583254731391207
63111.58021275412,128426.0,76244.0,4757.0,8.593305380964011
63111.59026340368,128422.0,76268.0,4773.0,8.60335603052954
63111.60031405325,128385.0,76214.0,4742.0,8.613406680095068
63111.61036470282,128430.0,76271.0,4739.0,8.623457329667872
63111.62041535239,128421.0,76252.0,4756.0,8.6335079792334
63111.63046600196,128400.0,76247.0,4744.0,8.643558628806204
63111.640516651525,128423.0,76261.0,4779.0,8.653609278371732
63111.65056730109,128372.0,76242.0,4716.0,8.66365992793726
63111.66061795066,128422.0,76245.0,4751.0,8.673710577510064
63111.67066860023,128400.0,76269.0,4737.0,8.683761227075593
63111.6807192498,128420.0,76231.0,4726.0,8.693811876648397
63111.69076989937,128407.0,76245.0,4742.0,8.703862526213925
63111.70082054893,128432.0,76273.0,4753.0,8.713913175779453
63111.710871198506,128394.0,76204.0,4754.0,8.723963825352257
63111.72092184807,128437.0,76230.0,4752.0,8.734014474917785
63111.73097249764,128395.0,76231.0,4754.0,8.744065124483313
63111.74102314721,128419.0,76257.0,4755.0,8.754115774056118
63111.751073796775,128427.0,76258.0,4787.0,8.764166423621646
63111.76112444635,128401.0,76230.0,4741.0,8.77421707319445
63111.77117509591,128405.0,76271.0,4753.0,8.784267722759978
63111.78122574548,128427.0,76257.0,4760.0,8.794318372325506
63111.79127639505,128389.0,76251.0,4722.0,8.80436902189831
63111.80132704462,128396.0,76247.0,4746.0,8.814419671463838
63111.81137769419,128426.0,76231.0,4767.0,8.824470321036642
63111.821428343756,128407.0,76244.0,4758.0,8.83452097060217
63111.83147899332,128373.0,76250.0,4744.0,8.844571620167699
63111.841529642894,128377.0,76261.0,4762.0,8.854622269740503
63111.85158029246,128424.0,76273.0,4761.0,8.864672919306031
63111.86163094203,128408.0,76250.0,4746.0,8.874723568878835
63111.8716815916,128392.0,76229.0,4740.0,8.884774218444363
63111.88173224116,128421.0,76244.0,4758.0,8.894824868009891
63111.891782890736,128395.0,76246.0,4779.0,8.904875517582695
63111.9018335403,128419.0,76248.0,4759.0,8.914926167148224
63111.911884189874,128421.0,76232.0,4753.0,8.924976816721028
63111.92193483944,128432.0,76248.0,4780.0,8.935027466286556
63111.931985489005,128404.0,76213.0,4745.0,8.945078115852084
63111.94203613858,128408.0,76246.0,4741.0,8.955128765424888
63111.952086788144,128391.0,76207.0,4760.0,8.965179414990416
63111.96213743772,128413.0,76261.0,4774.0,8.97523006456322
63111.97218808728,128398.0,76223.0,4739.0,8.985280714128749
63111.98223873685,128403.0,76241.0,4752.0,8.995331363694277
63111.99228938642,128418.0,76262.0,4749.0,9.00538201326708
63112.002340035986,128422.0,76217.0,4751.0,9.015432662832609
63112.01239068555,128407.0,76236.0,4770.0,9.025483312398137
63112.022441335124,128444.0,76263.0,4759.0,9.035533961970941
63112.03249198469,128414.0,76235.0,4751.0,9.04558461153647
63112.04254263426,128418.0,76240.0,4756.0,9.055635261109273
63112.05259328383,128427.0,76240.0,4756.0,9.065685910674802
63112.062643933394,128441.0,76274.0,4782.0,9.07573656024033
63112.07269458297,128423.0,76234.0,4762.0,9.085787209813134
63112.08274523253,128402.0,76219.0,4733.0,9.095837859378662
63112.092795882105,128449.0,76249.0,4783.0,9.105888508951466
63112.10284653167,128466.0,76255.0,4753.0,9.115939158516994
63112.112897181236,128424.0,76239.0,4759.0,9.125989808082522
63112.12294783081,128411.0,76218.0,4744.0,9.136040457655326
63112.132998480374,128442.0,76260.0,4781.0,9.146091107220855
63112.14304912995,128420.0,76243.0,4742.0,9.156141756793659
63112.15309977951,128427.0,76249.0,4746.0,9.166192406359187
63112.16315042908,128430.0,76251.0,4723.0,9.176243055924715
63112.17320107865,128446.0,76261.0,4773.0,9.18629370549752
63112.18325172822,128402.0,76224.0,4724.0,9.196344355063047
63112.19330237778,128435.0,76246.0,4756.0,9.206395004628575
63112.203353027355,128424.0,76267.0,4769.0,9.21644565420138
63112.21340367692,128436.0,76233.0,4754.0,9.226496303766908
63112.22345432649,128426.0,76236.0,4750.0,9.236546953339712
63112.23350497606,128444.0,76237.0,4764.0,9.24659760290524
63112.243555625624,128425.0,76261.0,4756.0,9.256648252470768
63112.2536062752,128416.0,76229.0,4763.0,9.266698902043572
63112.26365692476,128420.0,76244.0,4739.0,9.2767495516091
63112.273707574335,128433.0,76248.0,4762.0,9.286800201181904
63112.2837582239,128482.0,76220.0,4762.0,9.296850850747433
63112.293808873466,128424.0,76229.0,4754.0,9.30690150031296
63112.30385952304,128459.0,76238.0,4763.0,9.316952149885765
63112.313910172605,128436.0,76250.0,4759.0,9.327002799451293
63112.32396082218,128430.0,76276.0,4778.0,9.337053449024097
63112.33401147174,128430.0,76224.0,4729.0,9.347104098589625
63112.34406212131,128467.0,76250.0,4768.0,9.357154748155153
63112.35411277088,128433.0,76239.0,4750.0,9.367205397727957
63112.36416342045,128417.0,76207.0,4750.0,9.377256047293486
63112.37421407002,128430.0,76219.0,4757.0,9.38730669686629
63112.384264719585,128460.0,76250.0,4768.0,9.397357346431818
63112.39431536915,128430.0,76237.0,4743.0,9.407407995997346
63112.40436601872,128438.0,76224.0,4777.0,9.41745864557015
63112.41441666829,128438.0,76237.0,4741.0,9.427509295135678
63112.42446731786,128449.0,76233.0,4779.0,9.437559944708482
63112.43451796743,128426.0,76235.0,4750.0,9.44761059427401
63112.44456861699,128429.0,76200.0,4762.0,9.457661243839539
63112.454619266566,128474.0,76265.0,4739.0,9.467711893412343
63112.46466991613,128442.0,76210.0,4774.0,9.477762542977871
63112.4747205657,128425.0,76236.0,4771.0,9.487813192543399
63112.48477121527,128430.0,76254.0,4750.0,9.497863842116203
63112.494821864835,128442.0,76225.0,4763.0,9.507914491681731
63112.50487251441,128385.0,76220.0,4724.0,9.517965141254535
63112.51492316397,128411.0,76244.0,4749.0,9.528015790820064
63112.52497381354,128387.0,76227.0,4748.0,9.538066440385592
63112.53502446311,128367.0,76221.0,4768.0,9.548117089958396
63112.54507511268,128365.0,76205.0,4735.0,9.558167739523924
63112.55512576225,128360.0,76261.0,4765.0,9.568218389096728
63112.565176411816,128388.0,76221.0,4739.0,9.578269038662256
63112.57522706138,128401.0,76206.0,4765.0,9.588319688227784
63112.585277710954,128366.0,76221.0,4734.0,9.598370337800588
63112.59532836052,128371.0,76237.0,4765.0,9.608420987366117
63112.60537901009,128373.0,76222.0,4753.0,9.61847163693892
63112.61542965966,128378.0,76217.0,4737.0,9.628522286504449
63112.62548030922,128340.0,76253.0,4745.0,9.638572936069977
63112.635530958796,128386.0,76226.0,4750.0,9.648623585642781
63112.64558160836,128355.0,76222.0,4734.0,9.65867423520831
63112.65563225793,128331.0,76199.0,4749.0,9.668724884773837
63112.6656829075,128394.0,76213.0,4739.0,9.678775534346642
63112.675733557066,128354.0,76215.0,4735.0,9.68882618391217
63112.68578420664,128362.0,76214.0,4736.0,9.698876833484974
63112.695834856204,128324.0,76213.0,4714.0,9.708927483050502
63112.70588550577,128354.0,76196.0,4744.0,9.71897813261603
63112.71593615534,128345.0,76204.0,4709.0,9.729028782188834
63112.72598680491,128345.0,76207.0,4742.0,9.739079431754362
63112.73603745448,128330.0,76184.0,4727.0,9.749130081327166
63112.746088104046,128377.0,76229.0,4760.0,9.759180730892695
63112.75613875361,128333.0,76199.0,4715.0,9.769231380458223
63112.766189403184,128341.0,76209.0,4733.0,9.779282030031027
63112.77624005275,128344.0,76215.0,4749.0,9.789332679596555
63112.78629070232,128350.0,76197.0,4736.0,9.799383329169359
63112.79634135189,128364.0,76228.0,4743.0,9.809433978734887
63112.806392001454,128340.0,76214.0,4735.0,9.819484628300415
63112.81644265103,128367.0,76231.0,4746.0,9.82953527787322
63112.82649330059,128331.0,76191.0,4722.0,9.839585927438748
63112.836543950165,128334.0,76223.0,4743.0,9.849636577011552
63112.84659459973,128340.0,76201.0,4737.0,9.85968722657708
63112.856645249296,128356.0,76228.0,4728.0,9.869737876142608
63112.86669589887,128309.0,76191.0,4710.0,9.879788525715412
63112.876746548434,128339.0,76250.0,4750.0,9.88983917528094
63112.88679719801,128323.0,76209.0,4768.0,9.899889824853744
63112.89684784757,128290.0,76183.0,4750.0,9.909940474419273
63112.90689849714,128322.0,76203.0,4729.0,9.9199911239848
63112.91694914671,128324.0,76179.0,4729.0,9.930041773557605
63112.92699979628,128320.0,76202.0,4732.0,9.940092423123133
63112.93705044584,128336.0,76196.0,4737.0,9.950143072688661
63112.947101095415,128341.0,76212.0,4716.0,9.960193722261465
63112.95715174498,128362.0,76219.0,4769.0,9.970244371826993
63112.96720239455,128313.0,76180.0,4721.0,9.980295021399797
63112.97725304412,128344.0,76218.0,4739.0,9.990345670965326
63112.987303693684,128356.0,76216.0,4724.0,10.000396320530854
63112.99735434326,128313.0,76180.0,4718.0,10.010446970103658
63113.00740499282,128360.0,76216.0,4713.0,10.020497619669186
63113.017455642395,128351.0,76213.0,4731.0,10.03054826924199
63113.02750629196,128322.0,76167.0,4739.0,10.040598918807518
63113.03755694153,128326.0,76182.0,4717.0,10.050649568373046
63113.0476075911,128315.0,76207.0,4747.0,10.06070021794585
63113.057658240665,128357.0,76199.0,4741.0,10.070750867511379
63113.06770889024,128387.0,76209.0,4757.0,10.080801517084183
63113.0777595398,128349.0,76192.0,4714.0,10.09085216664971
63113.08781018937,128369.0,76212.0,4748.0,10.100902816215239
63113.09786083894,128344.0,76208.0,4733.0,10.110953465788043
63113.10791148851,128316.0,76206.0,4709.0,10.121004115353571
63113.11796213807,128340.0,76243.0,4769.0,10.1310547649191
63113.128012787645,128380.0,76227.0,4764.0,10.141105414491904
63113.13806343721,128360.0,76205.0,4731.0,10.151156064057432
63113.14811408678,128347.0,76192.0,4733.0,10.161206713630236
63113.15816473635,128361.0,76193.0,4734.0,10.171257363195764
63113.168215385915,128399.0,76250.0,4767.0,10.181308012761292
63113.17826603549,128372.0,76210.0,4745.0,10.191358662334096
63113.18831668505,128365.0,76206.0,4743.0,10.201409311899624
63113.198367334626,128378.0,76233.0,4731.0,10.211459961472428
63113.20841798419,128356.0,76201.0,4733.0,10.221510611037957
63113.21846863376,128375.0,76220.0,4747.0,10.231561260603485
63113.22851928333,128379.0,76232.0,4753.0,10.241611910176289
63113.238569932895,128418.0,76231.0,4747.0,10.251662559741817
63113.24862058247,128388.0,76197.0,4722.0,10.261713209314621
63113.25867123203,128380.0,76221.0,4747.0,10.27176385888015
63113.2687218816,128372.0,76213.0,4744.0,10.281814508445677
63113.27877253117,128396.0,76238.0,4766.0,10.291865158018481
63113.28882318074,128359.0,76202.0,4726.0,10.30191580758401
63113.29887383031,128380.0,76211.0,4733.0,10.311966457156814
63113.308924479876,128414.0,76210.0,4762.0,10.322017106722342
63113.31897512944,128379.0,76188.0,4722.0,10.33206775628787
63113.329025779014,128386.0,76219.0,4741.0,10.342118405860674
63113.33907642858,128390.0,76218.0,4743.0,10.352169055426202
63113.34912707815,128398.0,76210.0,4738.0,10.362219704999006
63113.35917772772,128367.0,76215.0,4739.0,10.372270354564535
63113.36922837728,128386.0,76215.0,4722.0,10.382321004130063
63113.379279026856,128378.0,76222.0,4751.0,10.392371653702867
63113.38932967642,128385.0,76247.0,4740.0,10.402422303268395
63113.39938032599,128343.0,76196.0,4739.0,10.412472952833923
63113.40943097556,128374.0,76225.0,4754.0,10.422523602406727
63113.419481625126,128316.0,76215.0,4704.0,10.432574251972255
63113.4295322747,128335.0,76184.0,4700.0,10.44262490154506
63113.439582924264,128340.0,76212.0,4707.0,10.452675551110588
63113.44963357383,128361.0,76235.0,4753.0,10.462726200676116
63113.4596842234,128323.0,76217.0,4739.0,10.47277685024892
63113.46973487297,128343.0,76212.0,4734.0,10.482827499814448
63113.47978552254,128285.0,76248.0,4715.0,10.492878149387252
63113.489836172106,128360.0,76223.0,4747.0,10.50292879895278
63113.49988682167,128326.0,76186.0,4720.0,10.512979448518308
63113.509937471244,128333.0,76211.0,4728.0,10.523030098091112
63113.51998812081,128326.0,76233.0,4758.0,10.53308074765664
63113.53003877038,128327.0,76183.0,4711.0,10.543131397229445
63113.54008941995,128323.0,76191.0,4713.0,10.553182046794973
63113.550140069514,128347.0,76218.0,4729.0,10.563232696360501
63113.56019071909,128333.0,76221.0,4774.0,10.573283345933305
63113.57024136865,128322.0,76198.0,4742.0,10.583333995498833
63113.580292018225,128357.0,76208.0,4739.0,10.593384645071637
63113.59034266779,128331.0,76206.0,4740.0,10.603435294637165
63113.600393317356,128345.0,76241.0,4730.0,10.613485944202694
63113.61044396693,128296.0,76214.0,4736.0,10.623536593775498
63113.620494616494,128336.0,76230.0,4739.0,10.633587243341026
63113.63054526606,128333.0,76218.0,4735.0,10.643637892906554
63113.64059591563,128313.0,76183.0,4727.0,10.653688542479358
63113.6506465652,128301.0,76204.0,4695.0,10.663739192044886
63113.66069721477,128364.0,76228.0,4706.0,10.67378984161769
63113.67074786434,128337.0,76216.0,4732.0,10.683840491183219
63113.6807985139,128332.0,76203.0,4717.0,10.693891140748747
63113.690849163475,128334.0,76222.0,4747.0,10.70394179032155
63113.70089981304,128379.0,76257.0,4753.0,10.713992439887079
63113.71095046261,128340.0,76210.0,4728.0,10.724043089459883
63113.72100111218,128319.0,76213.0,4721.0,10.734093739025411
63113.731051761744,128348.0,76234.0,4752.0,10.74414438859094
63113.74110241132,128344.0,76220.0,4752.0,10.754195038163743
63113.75115306088,128340.0,76222.0,4729.0,10.764245687729272
63113.761203710455,128312.0,76191.0,4748.0,10.774296337302076
63113.77125436002,128357.0,76225.0,4758.0,10.784346986867604
63113.78130500959,128373.0,76208.0,4713.0,10.794397636433132
63113.79135565916,128350.0,76219.0,4736.0,10.804448286005936
63113.801406308725,128346.0,76199.0,4727.0,10.814498935571464
63113.8114569583,128356.0,76214.0,4737.0,10.824549585144268
63113.82150760786,128326.0,76203.0,4726.0,10.834600234709796
63113.83155825743,128340.0,76244.0,4729.0,10.844650884275325
63113.841608907,128372.0,76236.0,4732.0,10.854701533848129
63113.85165955657,128328.0,76219.0,4729.0,10.864752183413657
63113.86171020613,128367.0,76208.0,4763.0,10.874802832979185
63113.871760855705,128364.0,76213.0,4738.0,10.88485348255199
63113.88181150527,128359.0,76219.0,4736.0,10.894904132117517
63113.891862154844,128357.0,76221.0,4732.0,10.904954781690321
63113.90191280441,128323.0,76234.0,4709.0,10.91500543125585
63113.911963453975,128367.0,76226.0,4720.0,10.925056080821378
63113.92201410355,128369.0,76221.0,4736.0,10.935106730394182
63113.93206475311,128366.0,76223.0,4718.0,10.94515737995971
63113.942115402686,128347.0,76232.0,4724.0,10.955208029532514
63113.95216605225,128396.0,76262.0,4708.0,10.965258679098042
63113.96221670182,128356.0,76225.0,4740.0,10.97530932866357
63113.97226735139,128354.0,76223.0,4717.0,10.985359978236374
63113.982318000955,128344.0,76235.0,4730.0,10.995410627801903
63113.99236865053,128378.0,76254.0,4770.0,11.005461277374707
63114.00241930009,128366.0,76224.0,4744.0,11.015511926940235
63114.01246994966,128372.0,76245.0,4771.0,11.025562576505763
63114.02252059923,128403.0,76251.0,4741.0,11.035613226078567
63114.0325712488,128352.0,76234.0,4724.0,11.045663875644095
63114.04262189837,128379.0,76238.0,4739.0,11.0557145252169
63114.052672547936,128353.0,76218.0,4733.0,11.065765174782427
63114.0627231975,128366.0,76255.0,4738.0,11.075815824347956
63114.072773847074,128372.0,76233.0,4733.0,11.08586647392076
63114.08282449664,128386.0,76244.0,4736.0,11.095917123486288
63114.092875146205,128413.0,76249.0,4781.0,11.105967773051816
63114.10292579578,128399.0,76255.0,4752.0,11.11601842262462
63114.11297644534,128392.0,76262.0,4735.0,11.126069072190148
63114.123027094916,128376.0,76238.0,4742.0,11.136119721762952
63114.13307774448,128373.0,76227.0,4731.0,11.14617037132848
63114.14312839405,128419.0,76234.0,4747.0,11.156221020894009
63114.15317904362,128377.0,76225.0,4733.0,11.166271670466813
63114.163229693186,128389.0,76255.0,4745.0,11.176322320032341
63114.17328034276,128391.0,76252.0,4757.0,11.186372969605145
63114.183330992324,128384.0,76248.0,4769.0,11.196423619170673
63114.19338164189,128360.0,76230.0,4727.0,11.206474268736201
63114.20343229146,128388.0,76242.0,4743.0,11.216524918309005
63114.21348294103,128400.0,76236.0,4761.0,11.226575567874534
63114.2235335906,128370.0,76243.0,4726.0,11.236626217447338
63114.233584240166,128338.0,76252.0,4705.0,11.246676867012866
63114.24363488973,128355.0,76239.0,4746.0,11.256727516578394
63114.253685539305,128331.0,76224.0,4752.0,11.266778166151198
63114.26373618887,128352.0,76209.0,4717.0,11.276828815716726
63114.27378683844,128352.0,76239.0,4733.0,11.28687946528953
63114.28383748801,128355.0,76226.0,4728.0,11.296930114855058
63114.293888137574,128340.0,76227.0,4707.0,11.306980764420587
63114.30393878715,128318.0,76218.0,4710.0,11.31703141399339
63114.31398943671,128322.0,76212.0,4708.0,11.327082063558919
63114.32404008628,128349.0,76234.0,4707.0,11.337132713124447
63114.33409073585,128348.0,76227.0,4762.0,11.347183362697251
63114.344141385416,128380.0,76236.0,4711.0,11.35723401226278
63114.35419203499,128353.0,76269.0,4754.0,11.367284661835583
63114.364242684554,128275.0,76225.0,4689.0,11.377335311401112
63114.37429333412,128356.0,76204.0,4732.0,11.38738596096664
63114.38434398369,128316.0,76238.0,4722.0,11.397436610539444
63114.39439463326,128341.0,76250.0,4755.0,11.407487260104972
63114.40444528283,128308.0,76219.0,4731.0,11.417537909677776
63114.4144959324,128338.0,76238.0,4730.0,11.427588559243304
63114.42454658196,128331.0,76224.0,4709.0,11.437639208808832
63114.434597231535,128341.0,76263.0,4751.0,11.447689858381636
63114.4446478811,128339.0,76229.0,4716.0,11.457740507947165
63114.45469853067,128343.0,76230.0,4724.0,11.467791157519969
63114.46474918024,128342.0,76203.0,4749.0,11.477841807085497
63114.474799829804,128319.0,76204.0,4728.0,11.487892456651025
63114.48485047938,128351.0,76221.0,4732.0,11.497943106223829
63114.49490112894,128315.0,76221.0,4714.0,11.507993755789357
63114.504951778516,128350.0,76244.0,4751.0,11.518044405362161
63114.51500242808,128360.0,76251.0,4714.0,11.52809505492769
63114.52505307765,128368.0,76226.0,4726.0,11.538145704493218
63114.53510372722,128329.0,76221.0,4736.0,11.548196354066022
63114.545154376785,128311.0,76212.0,4707.0,11.55824700363155
63114.55520502635,128316.0,76223.0,4719.0,11.568297653197078
63114.56525567592,128352.0,76249.0,4748.0,11.578348302769882
63114.57530632549,128323.0,76221.0,4727.0,11.58839895233541
63114.58535697506,128331.0,76197.0,4722.0,11.598449601908214
63114.59540762463,128339.0,76218.0,4766.0,11.608500251473743
63114.60545827419,128343.0,76259.0,4738.0,11.61855090103927
63114.615508923765,128331.0,76234.0,4736.0,11.628601550612075
63114.62555957333,128322.0,76217.0,4745.0,11.638652200177603
63114.635610222904,128303.0,76195.0,4722.0,11.648702849750407
63114.64566087247,128309.0,76229.0,4746.0,11.658753499315935
63114.655711522035,128335.0,76234.0,4732.0,11.668804148881463
63114.66576217161,128319.0,76220.0,4720.0,11.678854798454267
63114.67581282117,128308.0,76210.0,4735.0,11.688905448019796
63114.685863470746,128326.0,76215.0,4722.0,11.6989560975926
63114.69591412031,128333.0,76228.0,4738.0,11.709006747158128
63114.70596476988,128328.0,76222.0,4733.0,11.719057396723656
63114.71601541945,128353.0,76264.0,4773.0,11.72910804629646
63114.726066069015,128347.0,76243.0,4747.0,11.739158695861988
63114.73611671859,128333.0,76236.0,4733.0,11.749209345434792
63114.746167368154,128316.0,76214.0,4716.0,11.75925999500032
63114.75621801772,128311.0,76226.0,4713.0,11.769310644565849
63114.76626866729,128314.0,76213.0,4713.0,11.779361294138653
63114.77631931686,128340.0,76235.0,4741.0,11.78941194370418
63114.78636996642,128334.0,76249.0,4761.0,11.799462593269709
63114.796420615996,128317.0,76217.0,4731.0,11.809513242842513
63114.80647126556,128344.0,76235.0,4710.0,11.819563892408041
63114.816521915134,128365.0,76241.0,4713.0,11.829614541980845
63114.8265725647,128327.0,76232.0,4737.0,11.839665191546374
63114.836623214265,128325.0,76235.0,4716.0,11.849715841111902
63114.84667386384,128337.0,76214.0,4743.0,11.859766490684706
63114.8567245134,128341.0,76246.0,4727.0,11.869817140250234
63114.86677516298,128348.0,76246.0,4732.0,11.879867789823038
63114.87682581254,128344.0,76212.0,4733.0,11.889918439388566
63114.88687646211,128387.0,76247.0,4755.0,11.899969088954094
63114.89692711168,128325.0,76206.0,4750.0,11.910019738526898
63114.906977761246,128352.0,76238.0,4733.0,11.920070388092427
63114.91702841082,128337.0,76229.0,4742.0,11.93012103766523
63114.927079060384,128333.0,76234.0,4729.0,11.940171687230759
63114.93712970995,128325.0,76221.0,4734.0,11.950222336796287
63114.94718035952,128354.0,76237.0,4745.0,11.960272986369091
63114.95723100909,128354.0,76221.0,4766.0,11.97032363593462
63114.96728165866,128343.0,76225.0,4748.0,11.980374285507423
63114.977332308226,128325.0,76243.0,4741.0,11.990424935072951
63114.98738295779,128366.0,76241.0,4746.0,12.00047558463848
63114.997433607365,128367.0,76234.0,4762.0,12.010526234211284
63115.00748425693,128326.0,76198.0,4750.0,12.020576883776812
63115.017534906496,128335.0,76201.0,4733.0,12.03062753334234
63115.02758555607,128303.0,76199.0,4714.0,12.040678182915144
63115.037636205634,128322.0,76228.0,4749.0,12.050728832480672
63115.04768685521,128317.0,76212.0,4754.0,12.060779482053476
63115.05773750477,128323.0,76240.0,4750.0,12.070830131619005
63115.06778815434,128320.0,76228.0,4733.0,12.080880781184533
63115.07783880391,128288.0,76204.0,4719.0,12.090931430757337
63115.087889453476,128297.0,76202.0,4727.0,12.100982080322865
63115.09794010305,128323.0,76237.0,4710.0,12.111032729895669
63115.107990752615,128310.0,76232.0,4733.0,12.121083379461197
63115.11804140218,128289.0,76208.0,4704.0,12.131134029026725
63115.12809205175,128293.0,76251.0,4740.0,12.14118467859953
63115.13814270132,128323.0,76216.0,4759.0,12.151235328165058
63115.14819335089,128301.0,76216.0,4719.0,12.161285977737862
63115.15824400046,128337.0,76241.0,4707.0,12.17133662730339
63115.16829465002,128309.0,76248.0,4723.0,12.181387276868918
63115.178345299595,128304.0,76233.0,4713.0,12.191437926441722
63115.18839594916,128301.0,76216.0,4723.0,12.20148857600725
63115.19844659873,128282.0,76207.0,4725.0,12.211539225580054
63115.2084972483,128321.0,76226.0,4754.0,12.221589875145582
63115.218547897864,128274.0,76222.0,4714.0,12.23164052471111
63115.22859854744,128291.0,76228.0,4720.0,12.241691174283915
63115.238649197,128302.0,76256.0,4749.0,12.251741823849443
63115.24869984657,128280.0,76207.0,4713.0,12.261792473414971
63115.25875049614,128283.0,76219.0,4718.0,12.271843122987775
63115.26880114571,128282.0,76231.0,4735.0,12.281893772553303
63115.27885179528,128309.0,76251.0,4731.0,12.291944422126107
63115.288902444845,128316.0,76229.0,4700.0,12.301995071691636
63115.29895309441,128310.0,76236.0,4725.0,12.312045721257164
63115.30900374398,128300.0,76229.0,4742.0,12.322096370829968
63115.31905439355,128295.0,76237.0,4730.0,12.332147020395496
63115.32910504312,128273.0,76205.0,4709.0,12.3421976699683
63115.33915569269,128261.0,76240.0,4747.0,12.352248319533828
63115.34920634225,128293.0,76220.0,4744.0,12.362298969099356
63115.359256991826,128309.0,76244.0,4731.0,12.37234961867216
63115.36930764139,128292.0,76221.0,4710.0,12.382400268237689
63115.379358290964,128323.0,76231.0,4748.0,12.392450917810493
63115.38940894053,128290.0,76217.0,4723.0,12.40250156737602
63115.399459590095,128295.0,76232.0,4726.0,12.412552216941549
63115.40951023967,128273.0,76232.0,4710.0,12.422602866514353
63115.41956088923,128311.0,76237.0,4748.0,12.432653516079881
63115.429611538806,128283.0,76220.0,4690.0,12.442704165652685
63115.43966218837,128287.0,76231.0,4719.0,12.452754815218213
63115.44971283794,128309.0,76228.0,4738.0,12.462805464783742
63115.45976348751,128293.0,76205.0,4741.0,12.472856114356546
63115.469814137075,128272.0,76236.0,4730.0,12.482906763922074
63115.47986478664,128303.0,76228.0,4733.0,12.492957413487602
63115.489915436214,128312.0,76225.0,4763.0,12.503008063060406
63115.49996608578,128301.0,76207.0,4741.0,12.513058712625934
63115.51001673535,128315.0,76197.0,4732.0,12.523109362198738
63115.52006738492,128313.0,76231.0,4732.0,12.533160011764267
63115.53011803448,128324.0,76261.0,4754.0,12.543210661329795
63115.540168684056,128303.0,76223.0,4711.0,12.553261310902599
63115.55021933362,128285.0,76223.0,4719.0,12.563311960468127
63115.560269983194,128317.0,76242.0,4751.0,12.573362610040931
63115.57032063276,128279.0,76207.0,4728.0,12.58341325960646
63115.580371282325,128290.0,76207.0,4723.0,12.593463909171987
63115.5904219319,128328.0,76254.0,4719.0,12.603514558744791
63115.600472581464,128307.0,76231.0,4731.0,12.61356520831032
63115.61052323104,128308.0,76224.0,4758.0,12.623615857883124
63115.6205738806,128315.0,76226.0,4731.0,12.633666507448652
63115.63062453017,128279.0,76205.0,4749.0,12.64371715701418
63115.64067517974,128312.0,76233.0,4738.0,12.653767806586984
63115.650725829306,128295.0,76196.0,4710.0,12.663818456152512
63115.66077647888,128334.0,76245.0,4728.0,12.673869105725316
63115.670827128444,128301.0,76222.0,4734.0,12.683919755290844
63115.68087777801,128311.0,76226.0,4737.0,12.693970404856373
63115.69092842758,128310.0,76213.0,4734.0,12.704021054429177
63115.70097907715,128308.0,76228.0,4761.0,12.714071703994705
63115.71102972671,128308.0,76241.0,4721.0,12.724122353560233
63115.72108037629,128311.0,76225.0,4744.0,12.734173003133037
63115.73113102585,128320.0,76231.0,4711.0,12.744223652698565
63115.741181675425,128353.0,76243.0,4731.0,12.75427430227137
63115.75123232499,128303.0,76224.0,4726.0,12.764324951836898
63115.761282974556,128317.0,76227.0,4744.0,12.774375601402426
63115.77133362413,128329.0,76245.0,4741.0,12.78442625097523
63115.781384273694,128350.0,76234.0,4754.0,12.794476900540758
63115.79143492327,128320.0,76227.0,4723.0,12.804527550113562
63115.80148557283,128333.0,76237.0,4753.0,12.81457819967909
63115.8115362224,128313.0,76241.0,4740.0,12.824628849244618
63115.82158687197,128272.0,76193.0,4721.0,12.834679498817422
63115.831637521536,128271.0,76227.0,4751.0,12.84473014838295
63115.84168817111,128309.0,76219.0,4764.0,12.854780797955755
63115.851738820675,128289.0,76224.0,4736.0,12.864831447521283
63115.86178947024,128271.0,76228.0,4706.0,12.874882097086811
63115.87184011981,128313.0,76235.0,4737.0,12.884932746659615
63115.88189076938,128249.0,76229.0,4744.0,12.894983396225143
63115.89194141895,128275.0,76212.0,4710.0,12.905034045797947
63115.90199206852,128264.0,76222.0,4737.0,12.915084695363475
63115.91204271808,128294.0,76237.0,4744.0,12.925135344929004
63115.922093367655,128255.0,76207.0,4739.0,12.935185994501808
63115.93214401722,128271.0,76231.0,4734.0,12.945236644067336
63115.942194666786,128273.0,76194.0,4750.0,12.955287293632864
63115.95224531636,128252.0,76195.0,4716.0,12.965337943205668
63115.962295965925,128228.0,76212.0,4686.0,12.975388592771196
63115.9723466155,128283.0,76232.0,4729.0,12.985439242344
63115.98239726506,128290.0,76225.0,4753.0,12.995489891909529
63115.99244791463,128263.0,76201.0,4741.0,13.005540541475057
63116.0024985642,128290.0,76211.0,4739.0,13.01559119104786
63116.01254921377,128266.0,76223.0,4723.0,13.025641840613389
63116.02259986334,128291.0,76240.0,4708.0,13.035692490186193
63116.032650512905,128261.0,76216.0,4757.0,13.045743139751721
63116.04270116247,128266.0,76253.0,4748.0,13.05579378931725
63116.05275181204,128263.0,76215.0,4732.0,13.065844438890053
63116.06280246161,128275.0,76204.0,4737.0,13.075895088455582
63116.07285311118,128256.0,76216.0,4706.0,13.085945738028386
63116.08290376075,128283.0,76225.0,4705.0,13.095996387593914
63116.09295441031,128282.0,76237.0,4740.0,13.106047037159442
63116.103005059886,128256.0,76211.0,4761.0,13.116097686732246
63116.11305570945,128254.0,76207.0,4716.0,13.126148336297774
63116.123106359024,128275.0,76255.0,4763.0,13.136198985870578
63116.13315700859,128277.0,76230.0,4730.0,13.146249635436106
63116.143207658155,128297.0,76241.0,4715.0,13.156300285001635
63116.15325830773,128277.0,76224.0,4702.0,13.166350934574439
63116.16330895729,128265.0,76219.0,4752.0,13.176401584139967
63116.17335960686,128283.0,76211.0,4731.0,13.186452233705495
63116.18341025643,128248.0,76218.0,4725.0,13.1965028832783
63116.193460906,128237.0,76227.0,4707.0,13.206553532843827
63116.20351155557,128295.0,76220.0,4744.0,13.216604182416631
63116.213562205136,128280.0,76216.0,4730.0,13.22665483198216
63116.2236128547,128254.0,76211.0,4737.0,13.236705481547688
63116.233663504274,128295.0,76227.0,4732.0,13.246756131120492
63116.24371415384,128256.0,76192.0,4713.0,13.25680678068602
63116.25376480341,128265.0,76218.0,4734.0,13.266857430258824
63116.26381545298,128226.0,76251.0,4730.0,13.276908079824352
63116.27386610254,128300.0,76230.0,4768.0,13.28695872938988
63116.283916752116,128282.0,76218.0,4750.0,13.297009378962684
63116.29396740168,128257.0,76224.0,4716.0,13.307060028528213
63116.304018051254,128280.0,76196.0,4735.0,13.317110678101017
63116.31406870082,128299.0,76243.0,4722.0,13.327161327666545
63116.324119350385,128285.0,76225.0,4749.0,13.337211977232073
63116.33416999996,128290.0,76230.0,4755.0,13.347262626804877
63116.344220649524,128283.0,76252.0,4739.0,13.357313276370405
63116.3542712991,128286.0,76211.0,4717.0,13.36736392594321
63116.36432194866,128266.0,76214.0,4709.0,13.377414575508737
63116.37437259823,128258.0,76197.0,4732.0,13.387465225074266
63116.3844232478,128294.0,76226.0,4741.0,13.39751587464707
63116.394473897366,128269.0,76222.0,4770.0,13.407566524212598
63116.40452454693,128290.0,76237.0,4757.0,13.417617173778126
63116.414575196504,128297.0,76227.0,4747.0,13.42766782335093
63116.42462584607,128283.0,76226.0,4738.0,13.437718472916458
63116.43467649564,128269.0,76213.0,4713.0,13.447769122489262
63116.44472714521,128314.0,76237.0,4713.0,13.45781977205479
63116.454777794774,128290.0,76232.0,4761.0,13.467870421620319
63116.46482844435,128290.0,76229.0,4743.0,13.477921071193123
63116.47487909391,128283.0,76186.0,4732.0,13.487971720758651
63116.484929743485,128314.0,76220.0,4762.0,13.498022370331455
63116.49498039305,128270.0,76213.0,4744.0,13.508073019896983
63116.505031042616,128291.0,76215.0,4738.0,13.518123669462511
63116.51508169219,128288.0,76229.0,4709.0,13.528174319035315
63116.525132341754,128312.0,76237.0,4749.0,13.538224968600844
63116.53518299133,128269.0,76188.0,4722.0,13.548275618173648
63116.54523364089,128299.0,76230.0,4743.0,13.558326267739176
63116.55528429046,128266.0,76243.0,4739.0,13.568376917304704
63116.56533494003,128312.0,76237.0,4761.0,13.578427566877508
63116.5753855896,128329.0,76257.0,4696.0,13.588478216443036
63116.58543623917,128294.0,76226.0,4742.0,13.59852886601584
63116.595486888735,128293.0,76240.0,4749.0,13.608579515581368
63116.6055375383,128290.0,76208.0,4735.0,13.618630165146897
63116.61558818787,128254.0,76226.0,4737.0,13.6286808147197
63116.62563883744,128323.0,76238.0,4767.0,13.638731464285229
63116.635689487004,128324.0,76210.0,4764.0,13.648782113850757
63116.64574013658,128263.0,76204.0,4750.0,13.658832763423561
63116.65579078614,128315.0,76239.0,4767.0,13.66888341298909
63116.665841435715,128291.0,76215.0,4740.0,13.678934062561893
63116.67589208528,128261.0,76226.0,4732.0,13.688984712127422
63116.685942734846,128252.0,76237.0,4739.0,13.69903536169295
63116.69599338442,128247.0,76227.0,4703.0,13.709086011265754
63116.706044033985,128260.0,76219.0,4741.0,13.719136660831282
63116.71609468356,128242.0,76202.0,4731.0,13.729187310404086
63116.72614533312,128241.0,76185.0,4724.0,13.739237959969614
63116.73619598269,128272.0,76245.0,4755.0,13.749288609535142
63116.74624663226,128254.0,76215.0,4719.0,13.759339259107946
63116.75629728183,128232.0,76183.0,4754.0,13.769389908673475
63116.7663479314,128242.0,76226.0,4752.0,13.779440558246279
63116.776398580965,128219.0,76192.0,4744.0,13.789491207811807
63116.78644923053,128243.0,76208.0,4736.0,13.799541857377335
63116.7964998801,128240.0,76197.0,4726.0,13.809592506950139
63116.80655052967,128196.0,76200.0,4734.0,13.819643156515667
63116.81660117924,128234.0,76196.0,4724.0,13.829693806088471
63116.82665182881,128235.0,76215.0,4726.0,13.839744455654
63116.83670247837,128237.0,76221.0,4726.0,13.849795105219528
63116.846753127946,128263.0,76219.0,4733.0,13.859845754792332
63116.85680377751,128210.0,76206.0,4709.0,13.86989640435786
63116.86685442708,128236.0,76226.0,4695.0,13.879947053923388
63116.87690507665,128241.0,76221.0,4738.0,13.889997703496192
63116.886955726215,128199.0,76173.0,4714.0,13.90004835306172
63116.89700637579,128228.0,76217.0,4723.0,13.910099002634524
63116.90705702535,128240.0,76187.0,4749.0,13.920149652200053
63116.91710767492,128231.0,76200.0,4735.0,13.93020030176558
63116.92715832449,128233.0,76209.0,4717.0,13.940250951338385
63116.93720897406,128243.0,76211.0,4717.0,13.950301600903913
63116.94725962363,128254.0,76239.0,4754.0,13.960352250476717
63116.957310273196,128234.0,76219.0,4729.0,13.970402900042245
63116.96736092276,128221.0,76201.0,4738.0,13.980453549607773
63116.977411572334,128237.0,76243.0,4749.0,13.990504199180577
63116.9874622219,128215.0,76196.0,4709.0,14.000554848746106
63116.99751287147,128240.0,76224.0,4736.0,14.01060549831891
63117.00756352104,128260.0,76241.0,4729.0,14.020656147884438
63117.0176141706,128253.0,76231.0,4752.0,14.030706797449966
63117.027664820176,128191.0,76181.0,4697.0,14.04075744702277
63117.03771546974,128231.0,76205.0,4735.0,14.050808096588298
63117.047766119314,128220.0,76212.0,4722.0,14.060858746161102
63117.05781676888,128267.0,76220.0,4754.0,14.07090939572663
63117.067867418446,128205.0,76188.0,4731.0,14.080960045292159
63117.07791806802,128240.0,76210.0,4734.0,14.091010694864963
63117.087968717584,128237.0,76240.0,4748.0,14.10106134443049
63117.09801936715,128209.0,76191.0,4723.0,14.111111993996019
63117.10807001672,128267.0,76240.0,4769.0,14.121162643568823
63117.11812066629,128251.0,76208.0,4735.0,14.131213293134351
63117.12817131586,128246.0,76242.0,4731.0,14.141263942707155
63117.138221965426,128224.0,76179.0,4730.0,14.151314592272684
63117.14827261499,128217.0,76198.0,4714.0,14.161365241838212
63117.158323264564,128269.0,76234.0,4755.0,14.171415891411016
63117.16837391413,128263.0,76239.0,4746.0,14.181466540976544
63117.1784245637,128237.0,76226.0,4750.0,14.191517190549348
63117.18847521327,128272.0,76215.0,4751.0,14.201567840114876
63117.198525862834,128240.0,76218.0,4737.0,14.211618489680404
63117.20857651241,128260.0,76206.0,4741.0,14.221669139253208
63117.21862716197,128248.0,76195.0,4734.0,14.231719788818737
63117.228677811545,128254.0,76206.0,4722.0,14.24177043839154
63117.23872846111,128250.0,76205.0,4768.0,14.251821087957069
63117.248779110676,128263.0,76234.0,4736.0,14.261871737522597
63117.25882976025,128260.0,76220.0,4734.0,14.271922387095401
63117.268880409814,128229.0,76230.0,4737.0,14.28197303666093
63117.27893105939,128253.0,76215.0,4725.0,14.292023686233733
63117.28898170895,128278.0,76227.0,4744.0,14.302074335799261
63117.29903235852,128282.0,76233.0,4751.0,14.31212498536479
63117.30908300809,128211.0,76198.0,4736.0,14.322175634937594
63117.31913365766,128232.0,76194.0,4723.0,14.332226284503122
63117.32918430722,128266.0,76217.0,4732.0,14.34227693406865
63117.339234956795,128269.0,76200.0,4744.0,14.352327583641454
63117.34928560636,128300.0,76252.0,4776.0,14.362378233206982
63117.35933625593,128247.0,76210.0,4736.0,14.372428882779786
63117.3693869055,128263.0,76211.0,4751.0,14.382479532345315
63117.379437555064,128268.0,76206.0,4732.0,14.392530181910843
63117.38948820464,128283.0,76228.0,4737.0,14.402580831483647
63117.3995388542,128242.0,76218.0,4747.0,14.412631481049175
63117.409589503775,128271.0,76212.0,4751.0,14.422682130621979
63117.41964015334,128237.0,76161.0,4717.0,14.432732780187507
63117.42969080291,128248.0,76198.0,4748.0,14.442783429753035
63117.43974145248,128282.0,76201.0,4741.0,14.45283407932584
63117.449792102045,128276.0,76223.0,4743.0,14.462884728891368
63117.45984275162,128314.0,76240.0,4743.0,14.472935378464172
63117.46989340118,128265.0,76220.0,4722.0,14.4829860280297
63117.47994405075,128304.0,76243.0,4761.0,14.493036677595228
63117.48999470032,128284.0,76225.0,4750.0,14.503087327168032
63117.50004534989,128288.0,76222.0,4721.0,14.51313797673356
63117.51009599946,128268.0,76208.0,4778.0,14.523188626306364
63117.520146649025,128301.0,76242.0,4761.0,14.533239275871892
63117.53019729859,128291.0,76230.0,4733.0,14.54328992543742
63117.54024794816,128298.0,76204.0,4749.0,14.553340575010225
63117.55029859773,128283.0,76214.0,4743.0,14.563391224575753
63117.560349247295,128289.0,76198.0,4720.0,14.573441874141281
63117.57039989687,128282.0,76226.0,4740.0,14.583492523714085
63117.58045054643,128275.0,76232.0,4781.0,14.593543173279613
63117.590501196006,128265.0,76221.0,4741.0,14.603593822852417
63117.60055184557,128273.0,76224.0,4727.0,14.613644472417946
63117.61060249514,128300.0,76217.0,4746.0,14.623695121983474
63117.62065314471,128298.0,76229.0,4739.0,14.633745771556278
63117.630703794275,128267.0,76252.0,4753.0,14.643796421121806
63117.64075444385,128272.0,76207.0,4731.0,14.65384707069461
63117.65080509341,128291.0,76213.0,4741.0,14.663897720260138
63117.66085574298,128281.0,76216.0,4745.0,14.673948369825666
63117.67090639255,128273.0,76215.0,4727.0,14.68399901939847
63117.68095704212,128259.0,76205.0,4731.0,14.694049668963999
63117.69100769169,128266.0,76228.0,4743.0,14.704100318536803
63117.701058341256,128243.0,76207.0,4736.0,14.71415096810233
63117.71110899082,128265.0,76194.0,4746.0,14.724201617667859
63117.721159640394,128250.0,76248.0,4751.0,14.734252267240663
63117.73121028996,128240.0,76214.0,4731.0,14.744302916806191
63117.74126093953,128241.0,76228.0,4728.0,14.754353566378995
63117.7513115891,128221.0,76197.0,4747.0,14.764404215944523
63117.76136223866,128231.0,76212.0,4737.0,14.774454865510052
63117.771412888236,128233.0,76216.0,4723.0,14.784505515082856
63117.7814635378,128240.0,76186.0,4736.0,14.794556164648384
63117.79151418737,128254.0,76185.0,4739.0,14.804606814213912
63117.80156483694,128232.0,76207.0,4737.0,14.814657463786716
63117.811615486506,128262.0,76210.0,4755.0,14.824708113352244
63117.82166613608,128217.0,76213.0,4735.0,14.834758762925048
63117.831716785644,128223.0,76183.0,4737.0,14.844809412490577
63117.84176743521,128259.0,76235.0,4741.0,14.854860062056105
63117.85181808478,128244.0,76184.0,4711.0,14.864910711628909
63117.86186873435,128239.0,76211.0,4734.0,14.874961361194437
63117.87191938392,128250.0,76200.0,4730.0,14.885012010767241
63117.881970033486,128229.0,76233.0,4755.0,14.89506266033277
63117.89202068305,128247.0,76233.0,4758.0,14.905113309898297
63117.902071332624,128242.0,76212.0,4729.0,14.915163959471101
63117.91212198219,128239.0,76193.0,4727.0,14.92521460903663
63117.92217263176,128231.0,76199.0,4721.0,14.935265258609434
63117.93222328133,128210.0,76194.0,4717.0,14.945315908174962
63117.942273930894,128243.0,76212.0,4733.0,14.95536655774049
63117.95232458047,128238.0,76232.0,4711.0,14.965417207313294
63117.96237523003,128223.0,76205.0,4705.0,14.975467856878822
63117.972425879605,128233.0,76188.0,4716.0,14.985518506451626
63117.98247652917,128250.0,76207.0,4743.0,14.995569156017154
63117.992527178736,128239.0,76208.0,4722.0,15.005619805582683
63118.00257782831,128263.0,76232.0,4762.0,15.015670455155487
63118.012628477874,128261.0,76208.0,4713.0,15.025721104721015
63118.02267912744,128264.0,76220.0,4749.0,15.035771754286543
63118.03272977701,128266.0,76234.0,4753.0,15.045822403859347
63118.04278042658,128233.0,76223.0,4729.0,15.055873053424875
63118.05283107615,128256.0,76234.0,4753.0,15.06592370299768
63118.06288172572,128259.0,76213.0,4736.0,15.075974352563208
63118.07293237528,128247.0,76218.0,4722.0,15.086025002128736
63118.082983024855,128289.0,76223.0,4707.0,15.09607565170154
63118.09303367442,128265.0,76242.0,4754.0,15.106126301267068
63118.10308432399,128248.0,76221.0,4746.0,15.116176950839872
63118.11313497356,128263.0,76223.0,4730.0,15.1262276004054
63118.123185623124,128260.0,76198.0,4741.0,15.136278249970928
63118.1332362727,128278.0,76232.0,4767.0,15.146328899543732
63118.14328692226,128262.0,76221.0,4743.0,15.15637954910926
63118.153337571835,128254.0,76203.0,4747.0,15.166430198682065
63118.1633882214,128276.0,76229.0,4764.0,15.176480848247593
63118.17343887097,128251.0,76206.0,4752.0,15.186531497813121
63118.18348952054,128266.0,76213.0,4729.0,15.196582147385925
63118.193540170105,128255.0,76211.0,4764.0,15.206632796951453
63118.20359081968,128250.0,76204.0,4713.0,15.216683446524257
63118.21364146924,128256.0,76194.0,4739.0,15.226734096089785
63118.22369211881,128301.0,76201.0,4770.0,15.236784745655314
63118.23374276838,128275.0,76215.0,4733.0,15.246835395228118
63118.24379341795,128314.0,76202.0,4754.0,15.256886044793646
63118.25384406751,128263.0,76205.0,4718.0,15.266936694359174
63118.263894717085,128310.0,76225.0,4766.0,15.276987343931978
63118.27394536665,128280.0,76233.0,4735.0,15.287037993497506
63118.283996016224,128303.0,76202.0,4745.0,15.29708864307031
63118.29404666579,128278.0,76196.0,4738.0,15.307139292635839
63118.304097315355,128284.0,76215.0,4754.0,15.317189942201367
63118.31414796493,128302.0,76225.0,4747.0,15.32724059177417
63118.32419861449,128271.0,76236.0,4749.0,15.337291241339699
63118.334249264066,128321.0,76250.0,4767.0,15.347341890912503
63118.34429991363,128313.0,76205.0,4763.0,15.357392540478031
63118.3543505632,128266.0,76191.0,4733.0,15.36744319004356
63118.36440121277,128274.0,76187.0,4742.0,15.377493839616363
63118.374451862335,128321.0,76239.0,4742.0,15.387544489181892
63118.38450251191,128298.0,76238.0,4732.0,15.397595138754696
63118.39455316147,128296.0,76232.0,4747.0,15.407645788320224
63118.40460381104,128305.0,76226.0,4747.0,15.417696437885752
63118.41465446061,128326.0,76235.0,4764.0,15.427747087458556
63118.42470511018,128297.0,76225.0,4744.0,15.437797737024084
63118.43475575975,128309.0,76224.0,4745.0,15.447848386596888
63118.444806409316,128306.0,76241.0,4740.0,15.457899036162416
63118.45485705888,128296.0,76240.0,4764.0,15.467949685727945
63118.464907708454,128301.0,76209.0,4750.0,15.478000335300749
63118.47495835802,128317.0,76237.0,4750.0,15.488050984866277
63118.485009007585,128322.0,76261.0,4757.0,15.498101634431805
63118.49505965716,128281.0,76210.0,4728.0,15.508152284004609
63118.50511030672,128310.0,76236.0,4741.0,15.518202933570137
63118.515160956296,128308.0,76225.0,4750.0,15.528253583142941
63118.52521160586,128295.0,76212.0,4745.0,15.53830423270847
63118.53526225543,128272.0,76203.0,4748.0,15.548354882273998
63118.545312905,128274.0,76245.0,4755.0,15.558405531846802
63118.555363554566,128318.0,76220.0,4751.0,15.56845618141233
63118.56541420414,128340.0,76210.0,4759.0,15.578506830985134
63118.575464853704,128307.0,76227.0,4741.0,15.588557480550662
63118.58551550327,128335.0,76203.0,4760.0,15.59860813011619
63118.59556615284,128328.0,76230.0,4752.0,15.608658779688994
63118.60561680241,128313.0,76253.0,4751.0,15.618709429254523
63118.61566745198,128311.0,76245.0,4741.0,15.628760078827327
63118.625718101546,128304.0,76234.0,4754.0,15.638810728392855
63118.63576875111,128314.0,76222.0,4748.0,15.648861377958383
63118.645819400685,128302.0,76190.0,4755.0,15.658912027531187
63118.65587005025,128349.0,76226.0,4744.0,15.668962677096715
63118.66592069982,128310.0,76204.0,4770.0,15.67901332666952
63118.67597134939,128341.0,76240.0,4744.0,15.689063976235047
63118.686021998954,128312.0,76232.0,4766.0,15.699114625800576
63118.69607264853,128365.0,76250.0,4770.0,15.70916527537338
63118.70612329809,128342.0,76209.0,4748.0,15.719215924938908
63118.71617394766,128328.0,76244.0,4744.0,15.729266574504436
63118.72622459723,128329.0,76208.0,4754.0,15.73931722407724
63118.736275246796,128327.0,76220.0,4771.0,15.749367873642768
63118.74632589637,128340.0,76209.0,4727.0,15.759418523215572
63118.756376545934,128330.0,76222.0,4763.0,15.7694691727811
63118.7664271955,128331.0,76251.0,4755.0,15.779519822346629
63118.77647784507,128331.0,76215.0,4744.0,15.789570471919433
63118.78652849464,128317.0,76227.0,4742.0,15.799621121484961
63118.79657914421,128331.0,76245.0,4744.0,15.809671771057765
63118.80662979378,128322.0,76227.0,4741.0,15.819722420623293
63118.81668044334,128302.0,76218.0,4751.0,15.829773070188821
63118.826731092915,128319.0,76238.0,4757.0,15.839823719761625
63118.83678174248,128322.0,76240.0,4764.0,15.849874369327154
63118.84683239205,128309.0,76232.0,4751.0,15.859925018899958
63118.85688304162,128296.0,76213.0,4724.0,15.869975668465486
63118.866933691184,128335.0,76254.0,4738.0,15.880026318031014
63118.87698434076,128323.0,76235.0,4768.0,15.890076967603818
63118.88703499032,128290.0,76204.0,4744.0,15.900127617169346
63118.897085639896,128309.0,76200.0,4731.0,15.91017826674215
63118.90713628946,128310.0,76253.0,4770.0,15.920228916307678
63118.91718693903,128297.0,76234.0,4727.0,15.930279565873207
63118.9272375886,128311.0,76239.0,4735.0,15.94033021544601
63118.937288238165,128335.0,76255.0,4731.0,15.950380865011539
63118.94733888773,128340.0,76255.0,4769.0,15.960431514577067
63118.9573895373,128300.0,76208.0,4732.0,15.970482164149871
63118.96744018687,128323.0,76228.0,4747.0,15.9805328137154
63118.97749083644,128307.0,76246.0,4738.0,15.990583463288203
63118.98754148601,128290.0,76228.0,4716.0,16.00063411285373
63118.99759213557,128328.0,76216.0,4747.0,16.01068476241926
63119.007642785145,128324.0,76236.0,4749.0,16.020735411992064
63119.01769343471,128339.0,76249.0,4742.0,16.030786061557592
63119.027744084284,128328.0,76258.0,4776.0,16.040836711130396
63119.03779473385,128302.0,76235.0,4731.0,16.050887360695924
63119.047845383415,128336.0,76242.0,4745.0,16.060938010261452
63119.05789603299,128362.0,76232.0,4781.0,16.070988659834256
63119.06794668255,128325.0,76212.0,4765.0,16.081039309399785
63119.077997332126,128340.0,76219.0,4747.0,16.09108995897259
63119.08804798169,128339.0,76234.0,4749.0,16.101140608538117
63119.09809863126,128333.0,76285.0,4763.0,16.111191258103645
63119.10814928083,128345.0,76221.0,4756.0,16.12124190767645
63119.118199930395,128365.0,76240.0,4778.0,16.131292557241977
63119.12825057997,128347.0,76240.0,4753.0,16.14134320681478
63119.138301229534,128316.0,76214.0,4758.0,16.15139385638031
63119.1483518791,128329.0,76240.0,4723.0,16.161444505945838
63119.15840252867,128353.0,76256.0,4768.0,16.17149515551864
63119.16845317824,128340.0,76235.0,4738.0,16.18154580508417
63119.1785038278,128328.0,76223.0,4782.0,16.191596454649698
63119.188554477376,128358.0,76267.0,4767.0,16.201647104222502
63119.19860512694,128357.0,76244.0,4770.0,16.21169775378803
63119.208655776514,128340.0,76240.0,4743.0,16.221748403360834
63119.21870642608,128342.0,76208.0,4745.0,16.231799052926362
63119.228757075645,128365.0,76256.0,4742.0,16.24184970249189
63119.23880772522,128351.0,76219.0,4740.0,16.251900352064695
63119.24885837478,128346.0,76227.0,4742.0,16.261951001630223
63119.25890902436,128352.0,76254.0,4755.0,16.272001651203027
63119.26895967392,128361.0,76256.0,4764.0,16.282052300768555
63119.27901032349,128343.0,76250.0,4734.0,16.292102950334083
63119.28906097306,128388.0,76254.0,4709.0,16.302153599906887
63119.299111622626,128359.0,76237.0,4754.0,16.312204249472416
63119.3091622722,128365.0,76248.0,4763.0,16.32225489904522
63119.319212921764,128343.0,76249.0,4728.0,16.332305548610748
63119.32926357133,128349.0,76228.0,4753.0,16.342356198176276
63119.3393142209,128375.0,76254.0,4760.0,16.35240684774908
63119.34936487047,128397.0,76243.0,4759.0,16.362457497314608
63119.35941552004,128370.0,76236.0,4737.0,16.372508146887412
63119.369466169606,128394.0,76259.0,4782.0,16.38255879645294
63119.37951681917,128386.0,76249.0,4765.0,16.39260944601847
63119.389567468745,128354.0,76250.0,4748.0,16.402660095591273
63119.39961811831,128353.0,76252.0,4737.0,16.4127107451568
63119.409668767876,128356.0,76251.0,4751.0,16.42276139472233
63119.41971941745,128368.0,76236.0,4763.0,16.432812044295133
63119.429770067014,128370.0,76245.0,4756.0,16.44286269386066
63119.43982071659,128403.0,76259.0,4777.0,16.452913343433465
63119.44987136615,128364.0,76256.0,4773.0,16.462963992998993
63119.45992201572,128391.0,76249.0,4762.0,16.47301464256452
63119.46997266529,128377.0,76235.0,4756.0,16.483065292137326
63119.480023314856,128396.0,76283.0,4771.0,16.493115941702854
63119.49007396443,128386.0,76233.0,4750.0,16.503166591275658
63119.500124613995,128414.0,76252.0,4770.0,16.513217240841186
63119.51017526356,128375.0,76211.0,4751.0,16.523267890406714
63119.52022591313,128397.0,76223.0,4771.0,16.53331853997952
63119.5302765627,128371.0,76258.0,4736.0,16.543369189545047
63119.54032721227,128405.0,76261.0,4763.0,16.55341983911785
63119.55037786184,128408.0,76295.0,4787.0,16.56347048868338
63119.5604285114,128398.0,76233.0,4770.0,16.573521138248907
63119.570479160975,128377.0,76249.0,4738.0,16.58357178782171
63119.58052981054,128403.0,76251.0,4763.0,16.59362243738724
63119.59058046011,128395.0,76242.0,4758.0,16.603673086960043
63119.60063110968,128404.0,76254.0,4792.0,16.61372373652557
63119.610681759244,128409.0,76254.0,4756.0,16.6237743860911
63119.62073240882,128412.0,76258.0,4766.0,16.633825035663904
63119.63078305838,128432.0,76237.0,4755.0,16.643875685229432
63119.64083370795,128405.0,76241.0,4742.0,16.65392633479496
63119.65088435752,128440.0,76267.0,4734.0,16.663976984367764
63119.66093500709,128416.0,76257.0,4737.0,16.674027633933292
63119.67098565666,128414.0,76262.0,4793.0,16.684078283506096
63119.681036306225,128390.0,76254.0,4755.0,16.694128933071624
63119.69108695579,128421.0,76287.0,4779.0,16.704179582637153
63119.70113760536,128395.0,76256.0,4746.0,16.714230232209957
63119.71118825493,128423.0,76272.0,4765.0,16.724280881775485
63119.7212389045,128438.0,76268.0,4774.0,16.73433153134829
63119.73128955407,128435.0,76280.0,4772.0,16.744382180913817
63119.74134020363,128402.0,76241.0,4754.0,16.754432830479345
63119.751390853206,128440.0,76272.0,4763.0,16.76448348005215
63119.76144150277,128421.0,76290.0,4759.0,16.774534129617678
63119.771492152344,128444.0,76270.0,4786.0,16.78458477919048
63119.78154280191,128437.0,76258.0,4749.0,16.79463542875601
63119.791593451475,128423.0,76270.0,4771.0,16.804686078321538
63119.80164410105,128437.0,76275.0,4771.0,16.814736727894342
63119.81169475061,128425.0,76257.0,4776.0,16.82478737745987
63119.821745400186,128382.0,76270.0,4753.0,16.834838027032674
63119.83179604975,128422.0,76270.0,4766.0,16.844888676598202
63119.84184669932,128396.0,76251.0,4768.0,16.85493932616373
63119.85189734889,128409.0,76227.0,4756.0,16.864989975736535
63119.861947998455,128425.0,76237.0,4760.0,16.875040625302063
63119.87199864803,128428.0,76265.0,4765.0,16.885091274874867
63119.882049297594,128439.0,76291.0,4768.0,16.895141924440395
63119.89209994716,128423.0,76248.0,4736.0,16.905192574005923
63119.90215059673,128433.0,76293.0,4759.0,16.915243223578727
63119.9122012463,128421.0,76260.0,4754.0,16.925293873144255
63119.92225189586,128404.0,76234.0,4759.0,16.935344522709784
63119.932302545436,128403.0,76227.0,4749.0,16.945395172282588
63119.942353195,128441.0,76283.0,4765.0,16.955445821848116
63119.952403844574,128449.0,76243.0,4776.0,16.96549647142092
63119.96245449414,128410.0,76247.0,4769.0,16.975547120986448
63119.972505143705,128423.0,76279.0,4755.0,16.985597770551976
63119.98255579328,128456.0,76280.0,4786.0,16.99564842012478
63119.992606442844,128434.0,76262.0,4762.0,17.00569906969031
63120.00265709242,128419.0,76238.0,4740.0,17.015749719263113
63120.01270774198,128455.0,76272.0,4729.0,17.02580036882864
63120.02275839155,128439.0,76245.0,4752.0,17.03585101839417
63120.03280904112,128429.0,76270.0,4758.0,17.045901667966973
63120.042859690686,128415.0,76246.0,4735.0,17.0559523175325
63120.05291034026,128444.0,76289.0,4778.0,17.066002967105305
63120.062960989824,128399.0,76274.0,4752.0,17.076053616670833
63120.07301163939,128435.0,76274.0,4756.0,17.08610426623636
63120.08306228896,128453.0,76257.0,4769.0,17.096154915809166
63120.09311293853,128440.0,76271.0,4798.0,17.106205565374694
63120.10316358809,128396.0,76236.0,4746.0,17.116256214940222
63120.11321423767,128442.0,76264.0,4740.0,17.126306864513026
63120.12326488723,128403.0,76278.0,4757.0,17.136357514078554
63120.133315536805,128417.0,76255.0,4747.0,17.14640816365136
63120.14336618637,128463.0,76301.0,4746.0,17.156458813216886
63120.153416835936,128434.0,76266.0,4779.0,17.166509462782415
63120.16346748551,128446.0,76290.0,4763.0,17.17656011235522
63120.173518135074,128422.0,76257.0,4768.0,17.186610761920747
63120.18356878465,128401.0,76266.0,4761.0,17.19666141149355
63120.19361943421,128460.0,76263.0,4779.0,17.20671206105908
63120.20367008378,128452.0,76282.0,4756.0,17.216762710624607
63120.21372073335,128423.0,76248.0,4728.0,17.22681336019741
63120.223771382916,128460.0,76279.0,4766.0,17.23686400976294
63120.23382203249,128445.0,76274.0,4783.0,17.246914659335744
63120.243872682055,128451.0,76262.0,4767.0,17.256965308901272
63120.25392333162,128439.0,76296.0,4769.0,17.2670159584668
63120.26397398119,128475.0,76289.0,4774.0,17.277066608039604
63120.27402463076,128438.0,76256.0,4765.0,17.287117257605132
63120.28407528033,128452.0,76269.0,4757.0,17.297167907177936
63120.2941259299,128438.0,76240.0,4743.0,17.307218556743464
63120.30417657946,128486.0,76300.0,4767.0,17.317269206308993
63120.314227229035,128461.0,76240.0,4749.0,17.327319855881797
63120.3242778786,128463.0,76267.0,4772.0,17.337370505447325
63120.33432852817,128502.0,76262.0,4767.0,17.34742115502013
63120.34437917774,128451.0,76247.0,4769.0,17.357471804585657
63120.354429827305,128388.0,76233.0,4734.0,17.367522454151185
63120.36448047688,128456.0,76266.0,4768.0,17.37757310372399
63120.37453112644,128477.0,76272.0,4732.0,17.387623753289517
63120.38458177601,128449.0,76251.0,4785.0,17.397674402855046
63120.39463242558,128473.0,76246.0,4759.0,17.40772505242785
63120.40468307515,128460.0,76273.0,4777.0,17.417775701993378
63120.41473372472,128464.0,76282.0,4785.0,17.427826351566182
63120.424784374285,128450.0,76260.0,4750.0,17.43787700113171
63120.43483502385,128485.0,76294.0,4769.0,17.44792765069724
63120.44488567342,128473.0,76278.0,4768.0,17.457978300270042
63120.45493632299,128461.0,76285.0,4801.0,17.46802894983557
63120.46498697256,128467.0,76246.0,4755.0,17.478079599408375
63120.47503762213,128462.0,76292.0,4783.0,17.488130248973903
63120.48508827169,128502.0,76285.0,4796.0,17.49818089853943
63120.495138921266,128468.0,76270.0,4758.0,17.508231548112235
63120.50518957083,128477.0,76269.0,4760.0,17.518282197677763
63120.515240220404,128477.0,76271.0,4755.0,17.528332847250567
63120.52529086997,128489.0,76273.0,4766.0,17.538383496816095
63120.535341519535,128474.0,76255.0,4762.0,17.548434146381624
63120.54539216911,128457.0,76282.0,4764.0,17.558484795954428
63120.55544281867,128473.0,76269.0,4754.0,17.568535445519956
63120.56549346824,128480.0,76273.0,4772.0,17.578586095085484
63120.57554411781,128486.0,76256.0,4763.0,17.588636744658288
63120.58559476738,128502.0,76272.0,4772.0,17.598687394223816
63120.59564541695,128471.0,76257.0,4773.0,17.60873804379662
63120.605696066516,128490.0,76282.0,4746.0,17.61878869336215
63120.61574671608,128476.0,76260.0,4809.0,17.628839342927677
63120.625797365654,128510.0,76288.0,4791.0,17.63888999250048
63120.63584801522,128491.0,76284.0,4754.0,17.64894064206601
63120.64589866479,128492.0,76271.0,4790.0,17.658991291638813
63120.65594931436,128506.0,76307.0,4771.0,17.66904194120434
63120.66599996392,128476.0,76258.0,4757.0,17.67909259076987
63120.676050613496,128511.0,76286.0,4796.0,17.689143240342673
63120.68610126306,128494.0,76288.0,4759.0,17.6991938899082
63120.696151912634,128504.0,76275.0,4776.0,17.709244539481006
63120.7062025622,128494.0,76299.0,4795.0,17.719295189046534
63120.716253211765,128477.0,76292.0,4759.0,17.729345838612062
63120.72630386134,128505.0,76298.0,4750.0,17.739396488184866
63120.736354510904,128518.0,76284.0,4773.0,17.749447137750394
63120.74640516048,128472.0,76260.0,4769.0,17.7594977873232
63120.75645581004,128494.0,76276.0,4762.0,17.769548436888726
63120.76650645961,128501.0,76307.0,4781.0,17.779599086454255
63120.77655710918,128500.0,76276.0,4765.0,17.78964973602706
63120.786607758746,128538.0,76275.0,4787.0,17.799700385592587
63120.79665840832,128531.0,76295.0,4762.0,17.80975103516539
63120.806709057884,128540.0,76311.0,4796.0,17.81980168473092
63120.81675970745,128520.0,76268.0,4772.0,17.829852334296447
63120.82681035702,128495.0,76266.0,4752.0,17.83990298386925
63120.83686100659,128492.0,76273.0,4773.0,17.84995363343478
63120.846911656154,128499.0,76273.0,4759.0,17.860004283000308
63120.85696230573,128507.0,76280.0,4773.0,17.87005493257311
63120.86701295529,128522.0,76296.0,4764.0,17.88010558213864
63120.877063604865,128508.0,76267.0,4765.0,17.890156231711444
63120.88711425443,128482.0,76251.0,4728.0,17.900206881276972
63120.897164903996,128494.0,76274.0,4768.0,17.9102575308425
63120.90721555357,128465.0,76275.0,4757.0,17.920308180415304
63120.917266203134,128512.0,76276.0,4754.0,17.930358829980833
63120.92731685271,128514.0,76273.0,4778.0,17.940409479553637
63120.93736750227,128511.0,76285.0,4767.0,17.950460129119165
63120.94741815184,128500.0,76292.0,4780.0,17.960510778684693
63120.95746880141,128508.0,76306.0,4792.0,17.970561428257497
63120.96751945098,128504.0,76266.0,4753.0,17.980612077823025
63120.97757010055,128511.0,76280.0,4766.0,17.99066272739583
63120.987620750115,128529.0,76298.0,4768.0,18.000713376961357
63120.99767139968,128521.0,76280.0,4746.0,18.010764026526886
63121.00772204925,128491.0,76284.0,4735.0,18.02081467609969
63121.01777269882,128512.0,76314.0,4782.0,18.030865325665218
63121.027823348384,128523.0,76300.0,4752.0,18.040915975230746
63121.03787399796,128513.0,76290.0,4783.0,18.05096662480355
63121.04792464752,128499.0,76278.0,4752.0,18.061017274369078
63121.057975297095,128518.0,76281.0,4765.0,18.071067923941882
63121.06802594666,128505.0,76270.0,4759.0,18.08111857350741
63121.078076596226,128502.0,76283.0,4761.0,18.09116922307294
63121.0881272458,128535.0,76311.0,4787.0,18.101219872645743
63121.098177895365,128516.0,76283.0,4786.0,18.11127052221127
63121.10822854494,128525.0,76304.0,4761.0,18.121321171784075
63121.1182791945,128497.0,76276.0,4789.0,18.131371821349603
63121.12832984407,128494.0,76295.0,4773.0,18.14142247091513
63121.13838049364,128505.0,76293.0,4766.0,18.151473120487935
63121.14843114321,128511.0,76260.0,4757.0,18.161523770053464
63121.15848179278,128521.0,76315.0,4775.0,18.171574419626268
63121.168532442345,128533.0,76299.0,4799.0,18.181625069191796
63121.17858309191,128501.0,76269.0,4780.0,18.191675718757324
63121.18863374148,128526.0,76283.0,4781.0,18.201726368330128
63121.19868439105,128515.0,76292.0,4779.0,18.211777017895656
63121.20873504062,128548.0,76308.0,4791.0,18.22182766746846
63121.21878569019,128514.0,76269.0,4764.0,18.23187831703399
63121.22883633975,128523.0,76297.0,4777.0,18.241928966599517
63121.238886989326,128529.0,76266.0,4774.0,18.25197961617232
63121.24893763889,128529.0,76288.0,4768.0,18.26203026573785
63121.258988288464,128513.0,76271.0,4791.0,18.272080915310653
63121.26903893803,128536.0,76281.0,4772.0,18.28213156487618
63121.279089587595,128561.0,76268.0,4783.0,18.29218221444171
63121.28914023717,128507.0,76257.0,4768.0,18.302232864014513
63121.29919088673,128526.0,76286.0,4804.0,18.31228351358004
63121.3092415363,128544.0,76288.0,4767.0,18.32233416314557
63121.31929218587,128555.0,76308.0,4781.0,18.332384812718374
63121.32934283544,128539.0,76321.0,4783.0,18.342435462283902
63121.33939348501,128531.0,76270.0,4759.0,18.352486111856706
63121.349444134576,128530.0,76297.0,4777.0,18.362536761422234
63121.35949478414,128576.0,76269.0,4776.0,18.372587410987762
63121.369545433714,128557.0,76304.0,4797.0,18.382638060560566
63121.37959608328,128567.0,76303.0,4762.0,18.392688710126095
63121.38964673285,128561.0,76289.0,4778.0,18.4027393596989
63121.39969738242,128537.0,76306.0,4811.0,18.412790009264427
63121.40974803198,128534.0,76273.0,4758.0,18.422840658829955
63121.419798681556,128563.0,76322.0,4793.0,18.43289130840276
63121.42984933112,128550.0,76280.0,4770.0,18.442941957968287
63121.439899980694,128557.0,76306.0,4762.0,18.45299260754109
63121.44995063026,128550.0,76285.0,4755.0,18.46304325710662
63121.460001279826,128567.0,76316.0,4800.0,18.473093906672148
63121.4700519294,128560.0,76295.0,4776.0,18.48314455624495
63121.480102578964,128580.0,76286.0,4792.0,18.49319520581048
63121.49015322854,128581.0,76279.0,4799.0,18.503245855383284
63121.5002038781,128559.0,76283.0,4763.0,18.513296504948812
63121.51025452767,128562.0,76294.0,4785.0,18.52334715451434
63121.52030517724,128559.0,76292.0,4760.0,18.533397804087144
63121.530355826806,128586.0,76306.0,4794.0,18.543448453652672
63121.54040647637,128535.0,76262.0,4758.0,18.5534991032182
63121.550457125944,128567.0,76311.0,4765.0,18.563549752791005
63121.56050777551,128529.0,76295.0,4775.0,18.573600402356533
63121.57055842508,128562.0,76300.0,4791.0,18.583651051929337
63121.58060907465,128597.0,76318.0,4798.0,18.593701701494865
63121.590659724214,128569.0,76282.0,4787.0,18.603752351060393
63121.60071037379,128576.0,76291.0,4769.0,18.613803000633197
63121.61076102335,128546.0,76273.0,4774.0,18.623853650198726
63121.620811672925,128554.0,76312.0,4779.0,18.63390429977153
63121.63086232249,128599.0,76299.0,4796.0,18.643954949337058
63121.640912972056,128584.0,76322.0,4785.0,18.654005598902586
63121.65096362163,128580.0,76292.0,4769.0,18.66405624847539
63121.661014271194,128608.0,76289.0,4783.0,18.674106898040918
63121.67106492077,128563.0,76268.0,4767.0,18.684157547613722
63121.68111557033,128584.0,76314.0,4784.0,18.69420819717925
63121.6911662199,128569.0,76289.0,4790.0,18.70425884674478
63121.70121686947,128552.0,76265.0,4756.0,18.714309496317583
63121.71126751904,128602.0,76285.0,4801.0,18.72436014588311
63121.72131816861,128597.0,76306.0,4786.0,18.734410795455915
63121.731368818175,128593.0,76273.0,4761.0,18.744461445021443
63121.74141946774,128591.0,76321.0,4811.0,18.75451209458697
63121.75147011731,128576.0,76283.0,4773.0,18.764562744159775
63121.76152076688,128606.0,76307.0,4781.0,18.774613393725303
63121.771571416444,128617.0,76304.0,4791.0,18.78466404329083
63121.78162206602,128618.0,76310.0,4741.0,18.794714692863636
63121.79167271558,128596.0,76295.0,4777.0,18.804765342429164
63121.801723365155,128603.0,76309.0,4780.0,18.814815992001968
63121.81177401472,128583.0,76307.0,4762.0,18.824866641567496
63121.82182466429,128587.0,76283.0,4762.0,18.834917291133024
63121.83187531386,128603.0,76300.0,4760.0,18.84496794070583
63121.841925963425,128608.0,76310.0,4782.0,18.855018590271357
63121.851976613,128616.0,76328.0,4790.0,18.86506923984416
63121.86202726256,128591.0,76280.0,4757.0,18.87511988940969
63121.87207791213,128611.0,76327.0,4750.0,18.885170538975217
63121.8821285617,128603.0,76313.0,4774.0,18.89522118854802
63121.89217921127,128578.0,76333.0,4756.0,18.90527183811355
63121.90222986084,128600.0,76331.0,4765.0,18.915322487686353
63121.912280510405,128587.0,76324.0,4780.0,18.92537313725188
63121.92233115997,128605.0,76311.0,4780.0,18.93542378681741
63121.93238180954,128612.0,76311.0,4764.0,18.945474436390214
63121.94243245911,128636.0,76311.0,4760.0,18.955525085955742
63121.95248310868,128631.0,76330.0,4793.0,18.965575735528546
63121.96253375825,128602.0,76309.0,4768.0,18.975626385094074
63121.97258440781,128589.0,76290.0,4755.0,18.985677034659602
63121.982635057386,128597.0,76318.0,4774.0,18.995727684232406
63121.99268570695,128575.0,76293.0,4754.0,19.005778333797934
63122.00273635652,128613.0,76306.0,4772.0,19.015828983363463
63122.01278700609,128603.0,76340.0,4778.0,19.025879632936267
63122.022837655655,128603.0,76322.0,4796.0,19.035930282501795
63122.03288830523,128577.0,76278.0,4780.0,19.0459809320746
63122.04293895479,128609.0,76308.0,4761.0,19.056031581640127
63122.05298960436,128571.0,76300.0,4774.0,19.066082231205655
63122.06304025393,128620.0,76301.0,4789.0,19.07613288077846
63122.0730909035,128561.0,76281.0,4773.0,19.086183530343988
63122.08314155307,128574.0,76290.0,4777.0,19.09623417991679
63122.093192202636,128596.0,76316.0,4767.0,19.10628482948232
63122.1032428522,128582.0,76294.0,4783.0,19.116335479047848
63122.113293501774,128583.0,76300.0,4780.0,19.126386128620652
63122.12334415134,128616.0,76297.0,4795.0,19.13643677818618
63122.13339480091,128598.0,76325.0,4772.0,19.146487427758984
63122.14344545048,128589.0,76298.0,4772.0,19.156538077324512
63122.15349610004,128622.0,76279.0,4766.0,19.16658872689004
63122.163546749616,128618.0,76316.0,4797.0,19.176639376462845
63122.17359739918,128617.0,76306.0,4781.0,19.186690026028373
63122.183648048755,128607.0,76296.0,4764.0,19.196740675601177
63122.19369869832,128629.0,76322.0,4786.0,19.206791325166705
63122.203749347886,128572.0,76293.0,4778.0,19.216841974732233
63122.21379999746,128582.0,76288.0,4747.0,19.226892624305037
63122.223850647024,128589.0,76282.0,4770.0,19.236943273870565
63122.23390129659,128631.0,76322.0,4766.0,19.246993923436094
63122.24395194616,128627.0,76288.0,4764.0,19.257044573008898
63122.25400259573,128609.0,76315.0,4781.0,19.267095222574426
63122.2640532453,128594.0,76293.0,4760.0,19.27714587214723
63122.274103894866,128632.0,76325.0,4795.0,19.287196521712758
63122.28415454443,128605.0,76303.0,4751.0,19.297247171278286
63122.294205194004,128611.0,76305.0,4786.0,19.30729782085109
63122.30425584357,128636.0,76321.0,4757.0,19.31734847041662
63122.31430649314,128606.0,76290.0,4762.0,19.327399119989423
63122.32435714271,128611.0,76322.0,4775.0,19.33744976955495
63122.334407792274,128628.0,76305.0,4772.0,19.34750041912048
63122.34445844185,128639.0,76339.0,4818.0,19.357551068693283
63122.35450909141,128598.0,76308.0,4766.0,19.36760171825881
63122.364559740985,128601.0,76293.0,4751.0,19.377652367831615
63122.37461039055,128621.0,76298.0,4780.0,19.387703017397143
63122.384661040116,128607.0,76330.0,4791.0,19.39775366696267
63122.39471168969,128602.0,76293.0,4760.0,19.407804316535476
63122.404762339254,128602.0,76322.0,4776.0,19.417854966101004
63122.41481298883,128620.0,76304.0,4783.0,19.427905615673808
63122.42486363839,128627.0,76306.0,4761.0,19.437956265239336
63122.43491428796,128600.0,76276.0,4790.0,19.448006914804864
63122.44496493753,128647.0,76307.0,4768.0,19.45805756437767
63122.4550155871,128624.0,76307.0,4770.0,19.468108213943196
63122.46506623666,128595.0,76315.0,4774.0,19.478158863508725
63122.475116886235,128633.0,76323.0,4757.0,19.48820951308153
63122.4851675358,128651.0,76318.0,4804.0,19.498260162647057
63122.49521818537,128622.0,76307.0,4773.0,19.50831081221986
63122.50526883494,128598.0,76292.0,4768.0,19.51836146178539
63122.515319484504,128655.0,76298.0,4795.0,19.528412111350917
63122.52537013408,128610.0,76288.0,4782.0,19.53846276092372
63122.53542078364,128628.0,76304.0,4758.0,19.54851341048925
63122.545471433215,128604.0,76286.0,4786.0,19.558564060062054
63122.55552208278,128651.0,76330.0,4786.0,19.56861470962758
63122.56557273235,128635.0,76286.0,4788.0,19.57866535919311
63122.57562338192,128613.0,76310.0,4765.0,19.588716008765914
63122.585674031485,128618.0,76271.0,4774.0,19.598766658331442
63122.59572468106,128645.0,76309.0,4790.0,19.608817307904246
63122.60577533062,128620.0,76296.0,4747.0,19.618867957469774
63122.61582598019,128658.0,76301.0,4819.0,19.628918607035303
63122.62587662976,128635.0,76322.0,4774.0,19.638969256608107
63122.63592727933,128650.0,76314.0,4777.0,19.649019906173635
63122.6459779289,128621.0,76293.0,4755.0,19.65907055574644
63122.656028578465,128661.0,76337.0,4784.0,19.669121205311967
63122.66607922803,128645.0,76309.0,4776.0,19.679171854877495
63122.676129877604,128648.0,76333.0,4812.0,19.6892225044503
63122.68618052717,128652.0,76320.0,4769.0,19.699273154015827
63122.696231176735,128662.0,76304.0,4786.0,19.709323803581356
63122.70628182631,128654.0,76323.0,4781.0,19.71937445315416
63122.71633247587,128648.0,76314.0,4764.0,19.729425102719688
63122.726383125446,128652.0,76310.0,4754.0,19.739475752292492
63122.73643377501,128664.0,76336.0,4800.0,19.74952640185802
63122.74648442458,128625.0,76292.0,4764.0,19.75957705142355
63122.75653507415,128607.0,76292.0,4771.0,19.769627700996352
63122.766585723715,128640.0,76329.0,4793.0,19.77967835056188
63122.77663637329,128668.0,76311.0,4793.0,19.789729000134685
63122.78668702285,128639.0,76316.0,4771.0,19.799779649700213
63122.79673767242,128637.0,76288.0,4762.0,19.80983029926574
63122.80678832199,128670.0,76342.0,4805.0,19.819880948838545
63122.81683897156,128657.0,76336.0,4784.0,19.829931598404073
63122.82688962113,128654.0,76321.0,4778.0,19.839982247976877
63122.836940270696,128636.0,76324.0,4777.0,19.850032897542405
