timestamp,time_from_start_sec,PPG_1,PPG_2,PPG_3
62847.559699242454,0.0,129890.0,75904.0,4710.0
62847.56974989202,0.010050649565528147,129863.0,75872.0,4730.0
62847.57980054159,0.02010129913833225,129871.0,75896.0,4741.0
62847.58985119116,0.0301519487038604,129863.0,75897.0,4735.0
62847.59990184073,0.0402025982766645,129856.0,75872.0,4742.0
62847.6099524903,0.05025324784219265,129868.0,75899.0,4756.0
62847.62000313986,0.0603038974077208,129879.0,75886.0,4736.0
62847.630053789435,0.0703545469805249,129887.0,75904.0,4716.0
62847.640104439,0.08040519654605305,129873.0,75883.0,4723.0
62847.65015508857,0.09045584611885715,129898.0,75898.0,4777.0
62847.66020573814,0.1005064956843853,129866.0,75899.0,4745.0
62847.670256387704,0.11055714524991345,129853.0,75875.0,4725.0
62847.68030703728,0.12060779482271755,129848.0,75885.0,4724.0
62847.69035768684,0.1306584443882457,129875.0,75883.0,4732.0
62847.70040833641,0.14070909395377384,129891.0,75896.0,4737.0
62847.71045898598,0.15075974352657795,129867.0,75853.0,4769.0
62847.72050963555,0.1608103930921061,129895.0,75895.0,4764.0
62847.73056028512,0.1708610426649102,129877.0,75910.0,4753.0
62847.740610934685,0.18091169223043835,129871.0,75895.0,4738.0
62847.75066158425,0.1909623417959665,129884.0,75899.0,4740.0
62847.76071223382,0.2010129913687706,129891.0,75899.0,4726.0
62847.77076288339,0.21106364093429875,129880.0,75867.0,4749.0
62847.78081353296,0.22111429050710285,129845.0,75848.0,4745.0
62847.79086418253,0.231164940072631,129891.0,75884.0,4737.0
62847.80091483209,0.24121558963815914,129879.0,75867.0,4754.0
62847.810965481665,0.25126623921096325,129888.0,75914.0,4744.0
62847.82101613123,0.2613168887764914,129875.0,75891.0,4748.0
62847.831066780804,0.2713675383492955,129903.0,75899.0,4743.0
62847.84111743037,0.28141818791482365,129883.0,75908.0,4772.0
62847.851168079935,0.2914688374803518,129864.0,75878.0,4729.0
62847.86121872951,0.3015194870531559,129865.0,75873.0,4748.0
62847.87126937907,0.31157013661868405,129882.0,75889.0,4738.0
62847.881320028646,0.32162078619148815,129872.0,75881.0,4727.0
62847.89137067821,0.3316714357570163,129883.0,75906.0,4761.0
62847.90142132778,0.34172208532254444,129858.0,75857.0,4771.0
62847.91147197735,0.35177273489534855,129842.0,75891.0,4735.0
62847.921522626915,0.3618233844608767,129819.0,75872.0,4704.0
62847.93157327648,0.37187403402640484,129816.0,75899.0,4733.0
62847.94162392605,0.38192468359920895,129853.0,75892.0,4740.0
62847.95167457562,0.3919753331647371,129833.0,75885.0,4742.0
62847.96172522519,0.4020259827375412,129825.0,75880.0,4737.0
62847.97177587476,0.41207663230306935,129815.0,75877.0,4760.0
62847.98182652432,0.4221272818685975,129864.0,75904.0,4725.0
62847.991877173896,0.4321779314414016,129830.0,75887.0,4738.0
62848.00192782346,0.44222858100692974,129847.0,75888.0,4739.0
62848.011978473034,0.45227923057973385,129838.0,75868.0,4750.0
62848.0220291226,0.462329880145262,129850.0,75892.0,4716.0
62848.032079772165,0.47238052971079014,129841.0,75888.0,4731.0
62848.04213042174,0.48243117928359425,129791.0,75896.0,4735.0
62848.0521810713,0.4924818288491224,129825.0,75868.0,4755.0
62848.062231720876,0.5025324784219265,129818.0,75893.0,4713.0
62848.07228237044,0.5125831279874546,129820.0,75882.0,4726.0
62848.08233302001,0.5226337775529828,129833.0,75871.0,4738.0
62848.09238366958,0.5326844271257869,129848.0,75867.0,4743.0
62848.102434319146,0.542735076691315,129816.0,75906.0,4739.0
62848.11248496872,0.5527857262641191,129832.0,75881.0,4734.0
62848.122535618284,0.5628363758296473,129789.0,75889.0,4724.0
62848.13258626785,0.5728870253951754,129826.0,75875.0,4730.0
62848.14263691742,0.5829376749679795,129831.0,75881.0,4718.0
62848.15268756699,0.5929883245335077,129830.0,75886.0,4727.0
62848.16273821655,0.6030389740990358,129845.0,75908.0,4735.0
62848.172788866126,0.61308962367184,129828.0,75909.0,4742.0
62848.18283951569,0.6231402732373681,129831.0,75888.0,4708.0
62848.192890165265,0.6331909228101722,129824.0,75874.0,4723.0
62848.20294081483,0.6432415723757003,129807.0,75901.0,4727.0
62848.212991464396,0.6532922219412285,129849.0,75892.0,4759.0
62848.22304211397,0.6633428715140326,129812.0,75882.0,4719.0
62848.233092763534,0.6733935210795607,129814.0,75888.0,4708.0
62848.24314341311,0.6834441706523648,129816.0,75882.0,4725.0
62848.25319406267,0.693494820217893,129863.0,75893.0,4716.0
62848.26324471224,0.7035454697834211,129839.0,75900.0,4757.0
62848.27329536181,0.7135961193562252,129813.0,75890.0,4719.0
62848.283346011376,0.7236467689217534,129820.0,75880.0,4726.0
62848.29339666095,0.7336974184945575,129830.0,75901.0,4728.0
62848.303447310514,0.7437480680600856,129808.0,75898.0,4721.0
62848.31349796008,0.7537987176256138,129839.0,75879.0,4727.0
62848.32354860965,0.7638493671984179,129833.0,75874.0,4737.0
62848.33359925922,0.773900016763946,129832.0,75886.0,4763.0
62848.34364990879,0.7839506663367501,129809.0,75854.0,4724.0
62848.35370055836,0.7940013159022783,129848.0,75878.0,4749.0
62848.36375120792,0.8040519654678064,129848.0,75890.0,4738.0
62848.373801857495,0.8141026150406105,129860.0,75885.0,4716.0
62848.38385250706,0.8241532646061387,129829.0,75886.0,4727.0
62848.393903156626,0.8342039141716668,129840.0,75869.0,4732.0
62848.4039538062,0.8442545637444709,129839.0,75885.0,4733.0
62848.414004455764,0.8543052133099991,129807.0,75876.0,4722.0
62848.42405510534,0.8643558628828032,129827.0,75859.0,4738.0
62848.4341057549,0.8744065124483313,129833.0,75885.0,4766.0
62848.44415640447,0.8844571620138595,129854.0,75882.0,4729.0
62848.45420705404,0.8945078115866636,129826.0,75879.0,4714.0
62848.46425770361,0.9045584611521917,129867.0,75890.0,4769.0
62848.47430835318,0.9146091107249958,129812.0,75860.0,4724.0
62848.484359002745,0.924659760290524,129845.0,75886.0,4736.0
62848.49440965231,0.9347104098560521,129807.0,75886.0,4709.0
62848.50446030188,0.9447610594288562,129834.0,75858.0,4731.0
62848.51451095145,0.9548117089943844,129832.0,75875.0,4739.0
62848.52456160102,0.9648623585671885,129841.0,75881.0,4738.0
62848.53461225059,0.9749130081327166,129829.0,75909.0,4749.0
62848.54466290015,0.9849636576982448,129834.0,75873.0,4753.0
62848.554713549725,0.9950143072710489,129836.0,75881.0,4736.0
62848.56476419929,1.005064956836577,129853.0,75888.0,4739.0
62848.574814848864,1.0151156064093811,129866.0,75852.0,4747.0
62848.58486549843,1.0251662559749093,129825.0,75856.0,4740.0
62848.594916147995,1.0352169055404374,129864.0,75864.0,4745.0
62848.60496679757,1.0452675551132415,129845.0,75887.0,4747.0
62848.61501744713,1.0553182046787697,129835.0,75876.0,4731.0
62848.6250680967,1.0653688542442978,129881.0,75865.0,4759.0
62848.63511874627,1.075419503817102,129886.0,75916.0,4763.0
62848.64516939584,1.08547015338263,129873.0,75895.0,4739.0
62848.65522004541,1.0955208029554342,129856.0,75879.0,4761.0
62848.665270694975,1.1055714525209623,129869.0,75873.0,4741.0
62848.67532134454,1.1156221020864905,129884.0,75875.0,4753.0
62848.685371994114,1.1256727516592946,129865.0,75891.0,4723.0
62848.69542264368,1.1357234012248227,129855.0,75888.0,4754.0
62848.70547329325,1.1457740507976268,129900.0,75934.0,4814.0
62848.71552394282,1.155824700363155,129847.0,75871.0,4739.0
62848.72557459238,1.1658753499286831,129862.0,75884.0,4749.0
62848.735625241956,1.1759259995014872,129855.0,75885.0,4740.0
62848.74567589152,1.1859766490670154,129895.0,75915.0,4722.0
62848.755726541094,1.1960272986398195,129878.0,75873.0,4714.0
62848.76577719066,1.2060779482053476,129902.0,75899.0,4774.0
62848.775827840225,1.2161285977708758,129880.0,75913.0,4731.0
62848.7858784898,1.22617924734368,129901.0,75870.0,4726.0
62848.79592913936,1.236229896909208,129853.0,75859.0,4729.0
62848.80597978894,1.2462805464820121,129888.0,75904.0,4748.0
62848.8160304385,1.2563311960475403,129855.0,75887.0,4743.0
62848.82608108807,1.2663818456130684,129849.0,75908.0,4758.0
62848.83613173764,1.2764324951858725,129831.0,75888.0,4738.0
62848.846182387206,1.2864831447514007,129797.0,75869.0,4745.0
62848.85623303677,1.2965337943169288,129813.0,75875.0,4735.0
62848.866283686344,1.306584443889733,129811.0,75872.0,4723.0
62848.87633433591,1.316635093455261,129837.0,75895.0,4737.0
62848.88638498548,1.3266857430280652,129801.0,75846.0,4713.0
62848.89643563505,1.3367363925935933,129818.0,75879.0,4732.0
62848.90648628461,1.3467870421591215,129805.0,75877.0,4725.0
62848.916536934186,1.3568376917319256,129833.0,75884.0,4749.0
62848.92658758375,1.3668883412974537,129823.0,75894.0,4761.0
62848.936638233325,1.3769389908702578,129817.0,75882.0,4733.0
62848.94668888289,1.386989640435786,129829.0,75900.0,4701.0
62848.956739532456,1.3970402900013141,129801.0,75875.0,4745.0
62848.96679018203,1.4070909395741182,129807.0,75879.0,4730.0
62848.976840831594,1.4171415891396464,129819.0,75883.0,4727.0
62848.98689148117,1.4271922387124505,129830.0,75875.0,4744.0
62848.99694213073,1.4372428882779786,129775.0,75864.0,4710.0
62849.0069927803,1.4472935378435068,129829.0,75890.0,4727.0
62849.01704342987,1.4573441874163109,129809.0,75874.0,4733.0
62849.027094079436,1.467394836981839,129796.0,75872.0,4745.0
62849.03714472901,1.4774454865546431,129783.0,75869.0,4713.0
62849.047195378575,1.4874961361201713,129807.0,75898.0,4753.0
62849.05724602814,1.4975467856856994,129809.0,75868.0,4738.0
62849.06729667771,1.5075974352585035,129815.0,75871.0,4716.0
62849.07734732728,1.5176480848240317,129810.0,75886.0,4723.0
62849.087397976844,1.5276987343895598,129817.0,75890.0,4747.0
62849.09744862642,1.537749383962364,129808.0,75877.0,4743.0
62849.10749927598,1.547800033527892,129816.0,75892.0,4731.0
62849.117549925555,1.5578506831006962,129794.0,75903.0,4734.0
62849.12760057512,1.5679013326662243,129782.0,75857.0,4708.0
62849.137651224686,1.5779519822317525,129812.0,75870.0,4724.0
62849.14770187426,1.5880026318045566,129819.0,75877.0,4712.0
62849.157752523824,1.5980532813700847,129826.0,75887.0,4747.0
62849.1678031734,1.6081039309428888,129785.0,75864.0,4712.0
62849.17785382296,1.618154580508417,129822.0,75885.0,4730.0
62849.18790447253,1.6282052300739451,129800.0,75891.0,4736.0
62849.1979551221,1.6382558796467492,129825.0,75882.0,4753.0
62849.20800577167,1.6483065292122774,129811.0,75881.0,4704.0
62849.21805642124,1.6583571787850815,129830.0,75893.0,4747.0
62849.228107070805,1.6684078283506096,129813.0,75896.0,4728.0
62849.23815772037,1.6784584779161378,129763.0,75875.0,4705.0
62849.24820836994,1.6885091274889419,129806.0,75903.0,4743.0
62849.25825901951,1.69855977705447,129848.0,75877.0,4752.0
62849.26830966908,1.7086104266272741,129821.0,75879.0,4732.0
62849.27836031865,1.7186610761928023,129798.0,75866.0,4740.0
62849.28841096821,1.7287117257583304,129846.0,75897.0,4750.0
62849.298461617786,1.7387623753311345,129803.0,75866.0,4743.0
62849.30851226735,1.7488130248966627,129815.0,75879.0,4743.0
62849.31856291692,1.7588636744621908,129795.0,75895.0,4719.0
62849.32861356649,1.768914324034995,129849.0,75899.0,4769.0
62849.338664216055,1.778964973600523,129803.0,75871.0,4739.0
62849.34871486563,1.7890156231733272,129833.0,75876.0,4740.0
62849.35876551519,1.7990662727388553,129823.0,75888.0,4750.0
62849.36881616476,1.8091169223043835,129815.0,75884.0,4753.0
62849.37886681433,1.8191675718771876,129793.0,75858.0,4700.0
62849.3889174639,1.8292182214427157,129838.0,75881.0,4731.0
62849.39896811347,1.8392688710155198,129839.0,75886.0,4761.0
62849.409018763035,1.849319520581048,129799.0,75862.0,4737.0
62849.4190694126,1.8593701701465761,129849.0,75857.0,4733.0
62849.429120062174,1.8694208197193802,129836.0,75890.0,4728.0
62849.43917071174,1.8794714692849084,129827.0,75889.0,4739.0
62849.44922136131,1.8895221188577125,129808.0,75878.0,4719.0
62849.45927201088,1.8995727684232406,129856.0,75915.0,4755.0
62849.46932266044,1.9096234179887688,129847.0,75886.0,4740.0
62849.479373310016,1.9196740675615729,129831.0,75862.0,4738.0
62849.48942395958,1.929724717127101,129855.0,75860.0,4749.0
62849.499474609154,1.9397753666999051,129875.0,75917.0,4740.0
62849.50952525872,1.9498260162654333,129862.0,75879.0,4773.0
62849.519575908285,1.9598766658309614,129812.0,75906.0,4740.0
62849.52962655786,1.9699273154037655,129854.0,75885.0,4762.0
62849.539677207424,1.9799779649692937,129858.0,75875.0,4748.0
62849.54972785699,1.9900286145348218,129846.0,75892.0,4744.0
62849.55977850656,2.000079264107626,129840.0,75869.0,4722.0
62849.56982915613,2.010129913673154,129869.0,75918.0,4756.0
62849.5798798057,2.020180563245958,129843.0,75879.0,4757.0
62849.589930455266,2.0302312128114863,129856.0,75885.0,4743.0
62849.59998110483,2.0402818623770145,129854.0,75876.0,4731.0
62849.610031754404,2.0503325119498186,129882.0,75894.0,4744.0
62849.62008240397,2.0603831615153467,129852.0,75866.0,4738.0
62849.63013305354,2.070433811088151,129854.0,75890.0,4750.0
62849.64018370311,2.080484460653679,129853.0,75864.0,4738.0
62849.65023435267,2.090535110219207,129850.0,75863.0,4721.0
62849.66028500225,2.1005857597920112,129831.0,75870.0,4725.0
62849.67033565181,2.1106364093575394,129864.0,75888.0,4740.0
62849.680386301385,2.1206870589303435,129857.0,75868.0,4737.0
62849.69043695095,2.1307377084958716,129838.0,75854.0,4729.0
62849.700487600516,2.1407883580613998,129857.0,75888.0,4719.0
62849.71053825009,2.150839007634204,129865.0,75894.0,4716.0
62849.720588899654,2.160889657199732,129862.0,75881.0,4771.0
62849.73063954923,2.170940306772536,129862.0,75884.0,4738.0
62849.74069019879,2.1809909563380643,129885.0,75924.0,4752.0
62849.75074084836,2.1910416059035924,129889.0,75891.0,4726.0
62849.76079149793,2.2010922554763965,129879.0,75903.0,4743.0
62849.770842147496,2.2111429050419247,129890.0,75888.0,4714.0
62849.78089279706,2.221193554607453,129866.0,75909.0,4758.0
62849.790943446635,2.231244204180257,129838.0,75857.0,4710.0
62849.8009940962,2.241294853745785,129843.0,75894.0,4739.0
62849.81104474577,2.251345503318589,129843.0,75905.0,4745.0
62849.82109539534,2.2613961528841173,129816.0,75880.0,4731.0
62849.831146044904,2.2714468024496455,129851.0,75903.0,4727.0
62849.84119669448,2.2814974520224496,129829.0,75901.0,4733.0
62849.85124734404,2.2915481015879777,129821.0,75892.0,4755.0
62849.861297993615,2.301598751160782,129794.0,75866.0,4717.0
62849.87134864318,2.31164940072631,129795.0,75893.0,4734.0
62849.881399292746,2.321700050291838,129814.0,75881.0,4742.0
62849.89144994232,2.3317506998646422,129848.0,75883.0,4713.0
62849.901500591885,2.3418013494301704,129807.0,75874.0,4729.0
62849.91155124146,2.3518519990029745,129832.0,75895.0,4754.0
62849.92160189102,2.3619026485685026,129817.0,75886.0,4742.0
62849.93165254059,2.3719532981340308,129797.0,75853.0,4715.0
62849.94170319016,2.382003947706835,129826.0,75904.0,4762.0
62849.95175383973,2.392054597272363,129837.0,75888.0,4758.0
62849.9618044893,2.402105246845167,129811.0,75883.0,4730.0
62849.971855138865,2.4121558964106953,129789.0,75867.0,4729.0
62849.98190578843,2.4222065459762234,129845.0,75890.0,4730.0
62849.991956438,2.4322571955490275,129784.0,75848.0,4717.0
62850.00200708757,2.4423078451145557,129812.0,75879.0,4734.0
62850.012057737134,2.452358494680084,129793.0,75870.0,4726.0
62850.02210838671,2.462409144252888,129796.0,75881.0,4719.0
62850.03215903627,2.472459793818416,129800.0,75856.0,4733.0
62850.042209685846,2.48251044339122,129810.0,75878.0,4755.0
62850.05226033541,2.4925610929567483,129805.0,75879.0,4752.0
62850.06231098498,2.5026117425222765,129779.0,75855.0,4724.0
62850.07236163455,2.5126623920950806,129789.0,75886.0,4718.0
62850.082412284115,2.5227130416606087,129816.0,75870.0,4732.0
62850.09246293369,2.532763691233413,129850.0,75877.0,4749.0
62850.10251358325,2.542814340798941,129812.0,75852.0,4727.0
62850.11256423282,2.552864990364469,129811.0,75848.0,4729.0
62850.12261488239,2.5629156399372732,129830.0,75884.0,4733.0
62850.13266553196,2.5729662895028014,129798.0,75891.0,4732.0
62850.14271618153,2.5830169390756055,129799.0,75870.0,4708.0
62850.152766831096,2.5930675886411336,129824.0,75906.0,4735.0
62850.16281748066,2.6031182382066618,129824.0,75873.0,4732.0
62850.172868130234,2.613168887779466,129817.0,75854.0,4730.0
62850.1829187798,2.623219537344994,129818.0,75847.0,4718.0
62850.19296942937,2.633270186917798,129854.0,75887.0,4743.0
62850.20302007894,2.6433208364833263,129839.0,75890.0,4731.0
62850.2130707285,2.6533714860488544,129817.0,75866.0,4743.0
62850.223121378076,2.6634221356216585,129860.0,75899.0,4760.0
62850.23317202764,2.6734727851871867,129835.0,75883.0,4735.0
62850.24322267721,2.683523434752715,129831.0,75888.0,4734.0
62850.25327332678,2.693574084325519,129836.0,75870.0,4728.0
62850.263323976345,2.703624733891047,129849.0,75915.0,4719.0
62850.27337462592,2.713675383463851,129842.0,75865.0,4750.0
62850.283425275484,2.7237260330293793,129844.0,75886.0,4734.0
62850.29347592505,2.7337766825949075,129843.0,75906.0,4731.0
62850.30352657462,2.7438273321677116,129859.0,75923.0,4728.0
62850.31357722419,2.7538779817332397,129816.0,75854.0,4712.0
62850.32362787376,2.763928631306044,129826.0,75906.0,4753.0
62850.333678523326,2.773979280871572,129849.0,75880.0,4740.0
62850.34372917289,2.7840299304371,129805.0,75884.0,4709.0
62850.353779822464,2.7940805800099042,129850.0,75909.0,4735.0
62850.36383047203,2.8041312295754324,129857.0,75904.0,4756.0
62850.3738811216,2.8141818791482365,129847.0,75884.0,4748.0
62850.38393177117,2.8242325287137646,129824.0,75870.0,4723.0
62850.393982420734,2.8342831782792928,129840.0,75893.0,4714.0
62850.40403307031,2.844333827852097,129865.0,75894.0,4754.0
62850.41408371987,2.854384477417625,129850.0,75890.0,4741.0
62850.424134369445,2.864435126990429,129849.0,75893.0,4732.0
62850.43418501901,2.8744857765559573,129874.0,75896.0,4773.0
62850.444235668576,2.8845364261214854,129857.0,75880.0,4731.0
62850.45428631815,2.8945870756942895,129852.0,75885.0,4731.0
62850.464336967714,2.9046377252598177,129866.0,75905.0,4714.0
62850.47438761728,2.914688374825346,129878.0,75903.0,4752.0
62850.48443826685,2.92473902439815,129828.0,75863.0,4720.0
62850.49448891642,2.934789673963678,129857.0,75891.0,4739.0
62850.50453956599,2.944840323536482,129843.0,75911.0,4728.0
62850.51459021556,2.9548909731020103,129883.0,75903.0,4749.0
62850.52464086512,2.9649416226675385,129882.0,75911.0,4764.0
62850.534691514695,2.9749922722403426,129856.0,75888.0,4727.0
62850.54474216426,2.9850429218058707,129863.0,75873.0,4761.0
62850.55479281383,2.995093571378675,129847.0,75870.0,4717.0
62850.5648434634,3.005144220944203,129850.0,75896.0,4732.0
62850.574894112964,3.015194870509731,129878.0,75914.0,4763.0
62850.58494476254,3.0252455200825352,129873.0,75904.0,4733.0
62850.5949954121,3.0352961696480634,129830.0,75873.0,4739.0
62850.605046061675,3.0453468192208675,129887.0,75883.0,4723.0
62850.61509671124,3.0553974687863956,129879.0,75897.0,4742.0
62850.625147360806,3.0654481183519238,129863.0,75902.0,4733.0
62850.63519801038,3.075498767924728,129855.0,75911.0,4742.0
62850.645248659945,3.085549417490256,129862.0,75868.0,4718.0
62850.65529930952,3.09560006706306,129883.0,75900.0,4742.0
62850.66534995908,3.1056507166285883,129854.0,75872.0,4742.0
62850.67540060865,3.1157013661941164,129868.0,75873.0,4724.0
62850.68545125822,3.1257520157669205,129877.0,75879.0,4723.0
62850.69550190779,3.1358026653324487,129894.0,75899.0,4728.0
62850.70555255735,3.145853314897977,129877.0,75898.0,4764.0
62850.715603206925,3.155903964470781,129913.0,75900.0,4769.0
62850.72565385649,3.165954614036309,129896.0,75892.0,4719.0
62850.73570450606,3.176005263609113,129898.0,75893.0,4771.0
62850.74575515563,3.1860559131746413,129908.0,75926.0,4749.0
62850.755805805195,3.1961065627401695,129868.0,75884.0,4742.0
62850.76585645477,3.2061572123129736,129898.0,75900.0,4738.0
62850.77590710433,3.2162078618785017,129904.0,75898.0,4759.0
62850.785957753906,3.226258511451306,129869.0,75881.0,4745.0
62850.79600840347,3.236309161016834,129849.0,75860.0,4725.0
62850.80605905304,3.246359810582362,129843.0,75865.0,4731.0
62850.81610970261,3.256410460155166,129872.0,75912.0,4753.0
62850.826160352175,3.2664611097206944,129850.0,75882.0,4735.0
62850.83621100175,3.2765117592934985,129822.0,75874.0,4728.0
62850.84626165131,3.2865624088590266,129821.0,75870.0,4719.0
62850.85631230088,3.2966130584245548,129823.0,75871.0,4745.0
62850.86636295045,3.306663707997359,129842.0,75882.0,4733.0
62850.87641360002,3.316714357562887,129867.0,75871.0,4757.0
62850.88646424959,3.326765007135691,129822.0,75864.0,4736.0
62850.896514899156,3.3368156567012193,129878.0,75895.0,4732.0
62850.90656554872,3.3468663062667474,129844.0,75883.0,4731.0
62850.916616198294,3.3569169558395515,129833.0,75871.0,4747.0
62850.92666684786,3.3669676054050797,129830.0,75894.0,4735.0
62850.936717497425,3.377018254970608,129870.0,75902.0,4743.0
62850.946768147,3.387068904543412,129840.0,75889.0,4736.0
62850.95681879656,3.39711955410894,129807.0,75862.0,4746.0
62850.966869446136,3.407170203681744,129818.0,75879.0,4711.0
62850.9769200957,3.4172208532472723,129846.0,75873.0,4754.0
62850.98697074527,3.4272715028128005,129841.0,75892.0,4735.0
62850.99702139484,3.4373221523856046,129823.0,75858.0,4736.0
62851.007072044406,3.4473728019511327,129813.0,75894.0,4730.0
62851.01712269398,3.457423451523937,129861.0,75896.0,4753.0
62851.027173343544,3.467474101089465,129847.0,75893.0,4732.0
62851.03722399311,3.477524750654993,129839.0,75874.0,4770.0
62851.04727464268,3.487575400227797,129828.0,75872.0,4740.0
62851.05732529225,3.4976260497933254,129807.0,75891.0,4745.0
62851.06737594182,3.5076766993661295,129842.0,75891.0,4730.0
62851.077426591386,3.5177273489316576,129828.0,75867.0,4732.0
62851.08747724095,3.5277779984971858,129831.0,75887.0,4751.0
62851.097527890524,3.53782864806999,129850.0,75868.0,4749.0
62851.10757854009,3.547879297635518,129820.0,75858.0,4724.0
62851.11762918966,3.557929947208322,129823.0,75880.0,4720.0
62851.12767983923,3.5679805967738503,129819.0,75908.0,4749.0
62851.137730488794,3.5780312463393784,129856.0,75911.0,4748.0
62851.14778113837,3.5880818959121825,129850.0,75892.0,4740.0
62851.15783178793,3.5981325454777107,129866.0,75888.0,4716.0
62851.1678824375,3.608183195043239,129843.0,75873.0,4711.0
62851.17793308707,3.618233844616043,129841.0,75858.0,4731.0
62851.187983736636,3.628284494181571,129848.0,75895.0,4734.0
62851.19803438621,3.638335143754375,129883.0,75908.0,4729.0
62851.208085035774,3.6483857933199033,129877.0,75901.0,4753.0
62851.21813568534,3.6584364428854315,129834.0,75851.0,4742.0
62851.22818633491,3.6684870924582356,129862.0,75887.0,4733.0
62851.23823698448,3.6785377420237637,129851.0,75854.0,4712.0
62851.24828763405,3.688588391596568,129823.0,75874.0,4724.0
62851.25833828362,3.698639041162096,129822.0,75873.0,4717.0
62851.26838893318,3.708689690727624,129831.0,75892.0,4710.0
62851.278439582755,3.718740340300428,129873.0,75866.0,4719.0
62851.28849023232,3.7287909898659564,129889.0,75919.0,4713.0
62851.29854088189,3.7388416394387605,129896.0,75913.0,4753.0
62851.30859153146,3.7488922890042886,129901.0,75925.0,4716.0
62851.318642181024,3.7589429385698168,129871.0,75894.0,4735.0
62851.3286928306,3.768993588142621,129866.0,75871.0,4736.0
62851.33874348016,3.779044237708149,129865.0,75929.0,4744.0
62851.348794129735,3.789094887280953,129869.0,75887.0,4716.0
62851.3588447793,3.7991455368464813,129873.0,75898.0,4748.0
62851.36889542887,3.8091961864120094,129864.0,75929.0,4749.0
62851.37894607844,3.8192468359848135,129833.0,75871.0,4718.0
62851.388996728005,3.8292974855503417,129858.0,75910.0,4745.0
62851.39904737757,3.83934813511587,129872.0,75879.0,4743.0
62851.40909802714,3.849398784688674,129888.0,75892.0,4736.0
62851.41914867671,3.859449434254202,129884.0,75914.0,4768.0
62851.42919932628,3.869500083827006,129851.0,75885.0,4722.0
62851.43924997585,3.8795507333925343,129881.0,75894.0,4740.0
62851.44930062541,3.8896013829580625,129901.0,75910.0,4716.0
62851.459351274985,3.8996520325308666,129875.0,75882.0,4758.0
62851.46940192455,3.9097026820963947,129861.0,75884.0,4735.0
62851.47945257412,3.919753331669199,129871.0,75887.0,4742.0
62851.48950322369,3.929803981234727,129884.0,75884.0,4718.0
62851.499553873255,3.939854630800255,129888.0,75877.0,4726.0
62851.50960452283,3.949905280373059,129912.0,75904.0,4744.0
62851.51965517239,3.9599559299385874,129896.0,75893.0,4742.0
62851.529705821966,3.9700065795113915,129849.0,75907.0,4733.0
62851.53975647153,3.9800572290769196,129877.0,75886.0,4724.0
62851.5498071211,3.9901078786424478,129861.0,75910.0,4747.0
62851.55985777067,4.000158528215252,129889.0,75891.0,4740.0
62851.569908420235,4.01020917778078,129888.0,75896.0,4727.0
62851.57995906981,4.020259827353584,129874.0,75887.0,4731.0
62851.59000971937,4.030310476919112,129855.0,75894.0,4727.0
62851.60006036894,4.04036112648464,129887.0,75894.0,4734.0
62851.61011101851,4.0504117760574445,129895.0,75901.0,4719.0
62851.62016166808,4.060462425622973,129902.0,75919.0,4757.0
62851.63021231765,4.070513075195777,129887.0,75904.0,4723.0
62851.640262967216,4.080563724761305,129927.0,75920.0,4748.0
62851.65031361678,4.090614374326833,129909.0,75908.0,4720.0
62851.660364266354,4.100665023899637,129909.0,75906.0,4756.0
62851.67041491592,4.110715673465165,129907.0,75904.0,4758.0
62851.680465565485,4.1207663230306935,129879.0,75899.0,4738.0
62851.69051621506,4.130816972603498,129865.0,75873.0,4734.0
62851.70056686462,4.140867622169026,129865.0,75871.0,4740.0
62851.710617514196,4.15091827174183,129836.0,75899.0,4749.0
62851.72066816376,4.160968921307358,129864.0,75899.0,4756.0
62851.73071881333,4.171019570872886,129869.0,75914.0,4735.0
62851.7407694629,4.18107022044569,129829.0,75883.0,4719.0
62851.750820112466,4.191120870011218,129875.0,75918.0,4750.0
62851.76087076204,4.2011715195840225,129843.0,75891.0,4738.0
62851.770921411604,4.211222169149551,129863.0,75892.0,4745.0
62851.78097206117,4.221272818715079,129840.0,75894.0,4718.0
62851.79102271074,4.231323468287883,129839.0,75862.0,4706.0
62851.80107336031,4.241374117853411,129876.0,75893.0,4754.0
62851.81112400988,4.251424767426215,129860.0,75918.0,4740.0
62851.821174659446,4.261475416991743,129834.0,75893.0,4722.0
62851.83122530901,4.271526066557271,129877.0,75886.0,4757.0
62851.841275958584,4.2815767161300755,129836.0,75873.0,4731.0
62851.85132660815,4.291627365695604,129854.0,75893.0,4735.0
62851.86137725772,4.301678015268408,129841.0,75911.0,4759.0
62851.87142790729,4.311728664833936,129843.0,75875.0,4737.0
62851.881478556854,4.321779314399464,129827.0,75889.0,4726.0
62851.89152920643,4.331829963972268,129868.0,75876.0,4735.0
62851.90157985599,4.341880613537796,129866.0,75873.0,4685.0
62851.91163050556,4.3519312631033245,129853.0,75867.0,4726.0
62851.92168115513,4.361981912676129,129855.0,75872.0,4741.0
62851.931731804696,4.372032562241657,129858.0,75896.0,4730.0
62851.94178245427,4.382083211814461,129857.0,75909.0,4737.0
62851.951833103834,4.392133861379989,129865.0,75884.0,4721.0
62851.9618837534,4.402184510945517,129884.0,75908.0,4761.0
62851.97193440297,4.412235160518321,129876.0,75893.0,4734.0
62851.98198505254,4.422285810083849,129897.0,75915.0,4738.0
62851.99203570211,4.4323364596566535,129903.0,75903.0,4757.0
62852.00208635168,4.442387109222182,129872.0,75873.0,4749.0
62852.01213700124,4.45243775878771,129874.0,75889.0,4738.0
62852.022187650815,4.462488408360514,129847.0,75903.0,4725.0
62852.03223830038,4.472539057926042,129886.0,75909.0,4780.0
62852.04228894995,4.482589707498846,129853.0,75843.0,4749.0
62852.05233959952,4.492640357064374,129857.0,75899.0,4734.0
62852.062390249084,4.502691006629902,129869.0,75908.0,4759.0
62852.07244089866,4.5127416562027065,129874.0,75912.0,4723.0
62852.08249154822,4.522792305768235,129850.0,75897.0,4741.0
62852.092542197795,4.532842955341039,129866.0,75887.0,4733.0
62852.10259284736,4.542893604906567,129894.0,75892.0,4731.0
62852.11264349693,4.552944254472095,129884.0,75920.0,4720.0
62852.1226941465,4.562994904044899,129856.0,75870.0,4715.0
62852.132744796065,4.573045553610427,129864.0,75891.0,4738.0
62852.14279544563,4.5830962031759555,129898.0,75924.0,4753.0
62852.1528460952,4.59314685274876,129865.0,75875.0,4708.0
62852.16289674477,4.603197502314288,129903.0,75893.0,4747.0
62852.17294739434,4.613248151887092,129852.0,75875.0,4758.0
62852.18299804391,4.62329880145262,129857.0,75887.0,4710.0
62852.19304869347,4.633349451018148,129871.0,75880.0,4719.0
62852.203099343045,4.643400100590952,129881.0,75909.0,4741.0
62852.21314999261,4.65345075015648,129876.0,75900.0,4731.0
62852.223200642184,4.6635013997292845,129878.0,75884.0,4760.0
62852.23325129175,4.673552049294813,129877.0,75898.0,4733.0
62852.243301941315,4.683602698860341,129906.0,75891.0,4753.0
62852.25335259089,4.693653348433145,129854.0,75895.0,4727.0
62852.26340324045,4.703703997998673,129883.0,75868.0,4735.0
62852.273453890026,4.713754647571477,129894.0,75915.0,4720.0
62852.28350453959,4.723805297137005,129879.0,75875.0,4708.0
62852.29355518916,4.733855946702533,129910.0,75902.0,4768.0
62852.30360583873,4.7439065962753375,129887.0,75953.0,4756.0
62852.313656488295,4.753957245840866,129883.0,75879.0,4728.0
62852.32370713787,4.76400789541367,129853.0,75888.0,4723.0
62852.33375778743,4.774058544979198,129914.0,75914.0,4720.0
62852.343808437,4.784109194544726,129896.0,75906.0,4744.0
62852.35385908657,4.79415984411753,129887.0,75909.0,4746.0
62852.36390973614,4.804210493683058,129921.0,75923.0,4773.0
62852.3739603857,4.8142611432485864,129906.0,75887.0,4764.0
62852.384011035276,4.8243117928213906,129892.0,75901.0,4747.0
62852.39406168484,4.834362442386919,129887.0,75902.0,4723.0
62852.404112334414,4.844413091959723,129921.0,75922.0,4725.0
62852.41416298398,4.854463741525251,129894.0,75910.0,4771.0
62852.424213633545,4.864514391090779,129901.0,75904.0,4732.0
62852.43426428312,4.874565040663583,129894.0,75909.0,4719.0
62852.44431493268,4.884615690229111,129902.0,75918.0,4767.0
62852.454365582256,4.8946663398019155,129907.0,75904.0,4774.0
62852.46441623182,4.904716989367444,129899.0,75901.0,4746.0
62852.47446688139,4.914767638932972,129890.0,75888.0,4715.0
62852.48451753096,4.924818288505776,129904.0,75910.0,4728.0
62852.494568180526,4.934868938071304,129900.0,75887.0,4734.0
62852.5046188301,4.944919587644108,129897.0,75902.0,4743.0
62852.514669479664,4.954970237209636,129869.0,75919.0,4746.0
62852.52472012923,4.965020886775164,129873.0,75897.0,4734.0
62852.5347707788,4.9750715363479685,129880.0,75897.0,4721.0
62852.54482142837,4.985122185913497,129871.0,75896.0,4739.0
62852.55487207794,4.995172835486301,129864.0,75922.0,4759.0
62852.564922727506,5.005223485051829,129824.0,75886.0,4724.0
62852.57497337707,5.015274134617357,129833.0,75933.0,4770.0
62852.585024026645,5.025324784190161,129858.0,75889.0,4733.0
62852.59507467621,5.035375433755689,129845.0,75893.0,4736.0
62852.605125325776,5.0454260833212174,129869.0,75908.0,4749.0
62852.61517597535,5.0554767328940216,129866.0,75898.0,4757.0
62852.625226624914,5.06552738245955,129852.0,75890.0,4736.0
62852.63527727449,5.075578032032354,129815.0,75884.0,4734.0
62852.64532792405,5.085628681597882,129820.0,75891.0,4717.0
62852.65537857362,5.09567933116341,129866.0,75895.0,4761.0
62852.66542922319,5.105729980736214,129841.0,75892.0,4727.0
62852.675479872756,5.115780630301742,129835.0,75876.0,4743.0
62852.68553052233,5.1258312798745465,129861.0,75903.0,4720.0
62852.695581171894,5.135881929440075,129821.0,75884.0,4739.0
62852.70563182146,5.145932579005603,129838.0,75878.0,4714.0
62852.71568247103,5.155983228578407,129819.0,75906.0,4749.0
62852.7257331206,5.166033878143935,129878.0,75898.0,4754.0
62852.73578377017,5.176084527716739,129838.0,75866.0,4738.0
62852.74583441974,5.186135177282267,129851.0,75899.0,4736.0
62852.7558850693,5.196185826847795,129856.0,75892.0,4742.0
62852.765935718875,5.2062364764205995,129866.0,75918.0,4750.0
62852.77598636844,5.216287125986128,129811.0,75890.0,4719.0
62852.78603701801,5.226337775558932,129869.0,75904.0,4760.0
62852.79608766758,5.23638842512446,129848.0,75912.0,4733.0
62852.806138317144,5.246439074689988,129837.0,75876.0,4749.0
62852.81618896672,5.256489724262792,129860.0,75871.0,4731.0
62852.82623961628,5.26654037382832,129875.0,75916.0,4748.0
62852.83629026585,5.2765910233938484,129852.0,75881.0,4748.0
62852.84634091542,5.2866416729666525,129830.0,75886.0,4722.0
62852.85639156499,5.296692322532181,129867.0,75925.0,4761.0
62852.86644221456,5.306742972104985,129866.0,75887.0,4744.0
62852.876492864125,5.316793621670513,129851.0,75891.0,4736.0
62852.88654351369,5.326844271236041,129854.0,75871.0,4717.0
62852.89659416326,5.336894920808845,129866.0,75913.0,4735.0
62852.90664481283,5.346945570374373,129866.0,75876.0,4715.0
62852.9166954624,5.3569962199471775,129858.0,75896.0,4723.0
62852.92674611197,5.367046869512706,129871.0,75902.0,4724.0
62852.93679676153,5.377097519078234,129867.0,75893.0,4752.0
62852.946847411105,5.387148168651038,129825.0,75889.0,4704.0
62852.95689806067,5.397198818216566,129857.0,75895.0,4734.0
62852.966948710244,5.40724946778937,129863.0,75906.0,4734.0
62852.97699935981,5.417300117354898,129844.0,75873.0,4730.0
62852.987050009375,5.427350766920426,129866.0,75898.0,4757.0
62852.99710065895,5.4374014164932305,129862.0,75904.0,4742.0
62853.00715130851,5.447452066058759,129864.0,75893.0,4737.0
62853.017201958086,5.457502715631563,129856.0,75873.0,4726.0
62853.02725260765,5.467553365197091,129891.0,75906.0,4711.0
62853.03730325722,5.477604014762619,129867.0,75904.0,4746.0
62853.04735390679,5.487654664335423,129852.0,75900.0,4761.0
62853.057404556355,5.497705313900951,129855.0,75883.0,4727.0
62853.06745520592,5.507755963466479,129876.0,75904.0,4758.0
62853.077505855494,5.5178066130392835,129884.0,75894.0,4739.0
62853.08755650506,5.527857262604812,129906.0,75910.0,4730.0
62853.09760715463,5.537907912177616,129902.0,75918.0,4740.0
62853.1076578042,5.547958561743144,129851.0,75922.0,4719.0
62853.11770845376,5.558009211308672,129873.0,75899.0,4752.0
62853.127759103336,5.568059860881476,129839.0,75888.0,4728.0
62853.1378097529,5.578110510447004,129873.0,75929.0,4759.0
62853.147860402474,5.5881611600198084,129878.0,75895.0,4753.0
62853.15791105204,5.598211809585337,129880.0,75905.0,4740.0
62853.167961701605,5.608262459150865,129860.0,75899.0,4740.0
62853.17801235118,5.618313108723669,129859.0,75909.0,4761.0
62853.18806300074,5.628363758289197,129884.0,75900.0,4726.0
62853.19811365032,5.638414407862001,129882.0,75911.0,4732.0
62853.20816429988,5.648465057427529,129857.0,75928.0,4734.0
62853.21821494945,5.658515706993057,129859.0,75907.0,4730.0
62853.22826559902,5.6685663565658615,129870.0,75893.0,4744.0
62853.238316248586,5.67861700613139,129883.0,75908.0,4750.0
62853.24836689816,5.688667655704194,129877.0,75911.0,4745.0
62853.258417547724,5.698718305269722,129859.0,75886.0,4728.0
62853.26846819729,5.70876895483525,129852.0,75900.0,4730.0
62853.27851884686,5.718819604408054,129905.0,75909.0,4760.0
62853.28856949643,5.728870253973582,129888.0,75912.0,4746.0
62853.29862014599,5.73892090353911,129885.0,75899.0,4713.0
62853.308670795566,5.7489715531119145,129895.0,75929.0,4776.0
62853.31872144513,5.759022202677443,129852.0,75886.0,4731.0
62853.328772094705,5.769072852250247,129881.0,75896.0,4739.0
62853.33882274427,5.779123501815775,129851.0,75895.0,4705.0
62853.348873393836,5.789174151381303,129864.0,75893.0,4741.0
62853.35892404341,5.799224800954107,129860.0,75882.0,4737.0
62853.368974692974,5.809275450519635,129868.0,75879.0,4731.0
62853.37902534255,5.8193261000924394,129834.0,75913.0,4765.0
62853.38907599211,5.829376749657968,129812.0,75860.0,4736.0
62853.39912664168,5.839427399223496,129817.0,75882.0,4727.0
62853.40917729125,5.8494780487963,129844.0,75894.0,4735.0
62853.419227940816,5.859528698361828,129878.0,75866.0,4752.0
62853.42927859039,5.869579347934632,129815.0,75867.0,4712.0
62853.439329239955,5.87962999750016,129831.0,75871.0,4720.0
62853.44937988952,5.889680647065688,129848.0,75890.0,4729.0
62853.45943053909,5.8997312966384925,129802.0,75894.0,4736.0
62853.46948118866,5.909781946204021,129810.0,75879.0,4702.0
62853.47953183823,5.919832595776825,129828.0,75902.0,4738.0
62853.4895824878,5.929883245342353,129835.0,75883.0,4725.0
62853.49963313736,5.939933894907881,129793.0,75860.0,4706.0
62853.509683786935,5.949984544480685,129833.0,75860.0,4731.0
62853.5197344365,5.960035194046213,129843.0,75902.0,4737.0
62853.529785086066,5.970085843611741,129845.0,75886.0,4729.0
62853.53983573564,5.9801364931845455,129821.0,75875.0,4755.0
62853.549886385204,5.990187142750074,129836.0,75892.0,4726.0
62853.55993703478,6.000237792322878,129839.0,75914.0,4741.0
62853.56998768434,6.010288441888406,129830.0,75881.0,4729.0
62853.58003833391,6.020339091453934,129820.0,75867.0,4720.0
62853.59008898348,6.030389741026738,129854.0,75910.0,4715.0
62853.60013963305,6.040440390592266,129831.0,75883.0,4726.0
62853.61019028262,6.0504910401650704,129838.0,75898.0,4734.0
62853.620240932185,6.060541689730599,129860.0,75898.0,4762.0
62853.63029158175,6.070592339296127,129851.0,75939.0,4749.0
62853.64034223132,6.080642988868931,129812.0,75877.0,4709.0
62853.65039288089,6.090693638434459,129827.0,75897.0,4728.0
62853.66044353046,6.100744288007263,129828.0,75891.0,4715.0
62853.67049418003,6.110794937572791,129826.0,75879.0,4752.0
62853.68054482959,6.120845587138319,129831.0,75902.0,4730.0
62853.690595479165,6.1308962367111235,129829.0,75894.0,4727.0
62853.70064612873,6.140946886276652,129847.0,75865.0,4711.0
62853.710696778304,6.150997535849456,129805.0,75901.0,4712.0
62853.72074742787,6.161048185414984,129834.0,75901.0,4702.0
62853.730798077435,6.171098834980512,129833.0,75890.0,4743.0
62853.74084872701,6.181149484553316,129833.0,75926.0,4738.0
62853.75089937657,6.191200134118844,129811.0,75888.0,4710.0
62853.76095002614,6.201250783684372,129821.0,75872.0,4718.0
62853.77100067571,6.2113014332571765,129806.0,75919.0,4713.0
62853.78105132528,6.221352082822705,129820.0,75864.0,4737.0
62853.79110197485,6.231402732395509,129830.0,75882.0,4714.0
62853.801152624415,6.241453381961037,129827.0,75876.0,4761.0
62853.81120327398,6.251504031526565,129838.0,75903.0,4737.0
62853.821253923554,6.261554681099369,129834.0,75927.0,4733.0
62853.83130457312,6.271605330664897,129824.0,75908.0,4741.0
62853.84135522269,6.281655980237701,129872.0,75903.0,4757.0
62853.85140587226,6.29170662980323,129831.0,75881.0,4731.0
62853.86145652182,6.301757279368758,129838.0,75893.0,4734.0
62853.871507171396,6.311807928941562,129835.0,75894.0,4740.0
62853.88155782096,6.32185857850709,129858.0,75923.0,4751.0
62853.891608470534,6.331909228079894,129821.0,75912.0,4738.0
62853.9016591201,6.341959877645422,129873.0,75926.0,4752.0
62853.911709769665,6.35201052721095,129867.0,75885.0,4757.0
62853.92176041924,6.3620611767837545,129840.0,75888.0,4711.0
62853.931811068804,6.372111826349283,129851.0,75887.0,4740.0
62853.94186171838,6.382162475922087,129840.0,75899.0,4738.0
62853.95191236794,6.392213125487615,129874.0,75921.0,4752.0
62853.96196301751,6.402263775053143,129835.0,75878.0,4711.0
62853.97201366708,6.412314424625947,129828.0,75902.0,4720.0
62853.982064316646,6.422365074191475,129845.0,75887.0,4733.0
62853.99211496621,6.432415723757003,129830.0,75855.0,4731.0
62854.002165615784,6.4424663733298075,129874.0,75923.0,4752.0
62854.01221626535,6.452517022895336,129845.0,75902.0,4722.0
62854.02226691492,6.46256767246814,129844.0,75897.0,4738.0
62854.03231756449,6.472618322033668,129833.0,75898.0,4731.0
62854.04236821405,6.482668971599196,129853.0,75923.0,4756.0
62854.05241886363,6.492719621172,129858.0,75886.0,4751.0
62854.06246951319,6.502770270737528,129844.0,75898.0,4741.0
62854.072520162765,6.512820920310332,129827.0,75881.0,4729.0
62854.08257081233,6.522871569875861,129892.0,75908.0,4751.0
62854.092621461896,6.532922219441389,129865.0,75912.0,4757.0
62854.10267211147,6.542972869014193,129862.0,75890.0,4746.0
62854.112722761034,6.553023518579721,129875.0,75895.0,4755.0
62854.12277341061,6.563074168152525,129833.0,75892.0,4737.0
62854.13282406017,6.573124817718053,129832.0,75892.0,4708.0
62854.14287470974,6.583175467283581,129866.0,75904.0,4745.0
62854.15292535931,6.5932261168563855,129873.0,75915.0,4733.0
62854.162976008876,6.603276766421914,129859.0,75893.0,4762.0
62854.17302665845,6.613327415994718,129886.0,75904.0,4776.0
62854.183077308015,6.623378065560246,129849.0,75906.0,4740.0
62854.19312795758,6.633428715125774,129873.0,75910.0,4735.0
62854.20317860715,6.643479364698578,129837.0,75880.0,4734.0
62854.21322925672,6.653530014264106,129873.0,75905.0,4716.0
62854.223279906284,6.663580663829634,129837.0,75901.0,4730.0
62854.23333055586,6.6736313134024385,129832.0,75870.0,4752.0
62854.24338120542,6.683681962967967,129790.0,75866.0,4711.0
62854.253431854995,6.693732612540771,129800.0,75898.0,4733.0
62854.26348250456,6.703783262106299,129803.0,75885.0,4722.0
62854.273533154126,6.713833911671827,129797.0,75888.0,4731.0
62854.2835838037,6.723884561244631,129780.0,75875.0,4733.0
62854.293634453265,6.733935210810159,129815.0,75865.0,4748.0
62854.30368510284,6.743985860382963,129783.0,75857.0,4733.0
62854.3137357524,6.754036509948492,129808.0,75900.0,4726.0
62854.32378640197,6.76408715951402,129805.0,75910.0,4726.0
62854.33383705154,6.774137809086824,129792.0,75899.0,4739.0
62854.34388770111,6.784188458652352,129820.0,75911.0,4753.0
62854.35393835068,6.794239108225156,129803.0,75893.0,4736.0
62854.363989000245,6.804289757790684,129777.0,75861.0,4733.0
62854.37403964981,6.814340407356212,129765.0,75846.0,4711.0
62854.38409029938,6.8243910569290165,129801.0,75899.0,4750.0
62854.39414094895,6.834441706494545,129798.0,75878.0,4731.0
62854.40419159852,6.844492356067349,129830.0,75880.0,4754.0
62854.41424224809,6.854543005632877,129791.0,75889.0,4705.0
62854.42429289765,6.864593655198405,129803.0,75877.0,4755.0
62854.434343547226,6.874644304771209,129760.0,75868.0,4718.0
62854.44439419679,6.884694954336737,129764.0,75876.0,4738.0
62854.45444484636,6.894745603902265,129771.0,75856.0,4725.0
62854.46449549593,6.9047962534750695,129788.0,75893.0,4746.0
62854.474546145495,6.914846903040598,129800.0,75876.0,4735.0
62854.48459679507,6.924897552613402,129818.0,75873.0,4740.0
62854.49464744463,6.93494820217893,129842.0,75898.0,4750.0
62854.5046980942,6.944998851744458,129794.0,75888.0,4735.0
62854.51474874377,6.955049501317262,129786.0,75894.0,4739.0
62854.52479939334,6.96510015088279,129816.0,75909.0,4734.0
62854.53485004291,6.975150800455594,129815.0,75918.0,4742.0
62854.544900692475,6.985201450021123,129768.0,75872.0,4728.0
62854.55495134204,6.995252099586651,129793.0,75890.0,4736.0
62854.565001991614,7.005302749159455,129816.0,75914.0,4695.0
62854.57505264118,7.015353398724983,129792.0,75884.0,4721.0
62854.58510329075,7.025404048297787,129751.0,75874.0,4708.0
62854.59515394032,7.035454697863315,129798.0,75885.0,4728.0
62854.60520458988,7.045505347428843,129788.0,75890.0,4732.0
62854.615255239456,7.0555559970016475,129776.0,75887.0,4723.0
62854.62530588902,7.065606646567176,129811.0,75900.0,4732.0
62854.635356538594,7.07565729613998,129803.0,75881.0,4733.0
62854.64540718816,7.085707945705508,129816.0,75920.0,4727.0
62854.655457837725,7.095758595271036,129802.0,75861.0,4727.0
62854.6655084873,7.10580924484384,129787.0,75860.0,4717.0
62854.675559136864,7.115859894409368,129794.0,75889.0,4736.0
62854.68560978643,7.125910543974896,129796.0,75872.0,4723.0
62854.695660436,7.1359611935477005,129806.0,75896.0,4724.0
62854.70571108557,7.146011843113229,129789.0,75859.0,4719.0
62854.71576173514,7.156062492686033,129800.0,75883.0,4761.0
62854.725812384706,7.166113142251561,129798.0,75899.0,4746.0
62854.73586303427,7.176163791817089,129814.0,75898.0,4744.0
62854.745913683844,7.186214441389893,129804.0,75901.0,4755.0
62854.75596433341,7.196265090955421,129807.0,75886.0,4736.0
62854.76601498298,7.206315740528225,129811.0,75893.0,4734.0
62854.77606563255,7.216366390093754,129808.0,75880.0,4725.0
62854.786116282114,7.226417039659282,129796.0,75881.0,4716.0
62854.79616693169,7.236467689232086,129795.0,75869.0,4743.0
62854.80621758125,7.246518338797614,129819.0,75887.0,4729.0
62854.816268230825,7.256568988370418,129807.0,75856.0,4727.0
62854.82631888039,7.266619637935946,129841.0,75899.0,4735.0
62854.836369529956,7.276670287501474,129785.0,75881.0,4717.0
62854.84642017953,7.2867209370742785,129813.0,75880.0,4738.0
62854.856470829094,7.296771586639807,129818.0,75888.0,4762.0
62854.86652147867,7.306822236212611,129826.0,75918.0,4753.0
62854.87657212823,7.316872885778139,129778.0,75890.0,4723.0
62854.8866227778,7.326923535343667,129821.0,75880.0,4736.0
62854.89667342737,7.336974184916471,129833.0,75888.0,4750.0
62854.90672407694,7.347024834481999,129797.0,75868.0,4742.0
62854.9167747265,7.357075484047527,129824.0,75848.0,4755.0
62854.926825376075,7.3671261336203315,129823.0,75899.0,4745.0
62854.93687602564,7.37717678318586,129815.0,75895.0,4739.0
62854.94692667521,7.387227432758664,129785.0,75887.0,4715.0
62854.95697732478,7.397278082324192,129846.0,75910.0,4759.0
62854.967027974344,7.40732873188972,129821.0,75881.0,4713.0
62854.97707862392,7.417379381462524,129832.0,75885.0,4715.0
62854.98712927348,7.427430031028052,129832.0,75906.0,4773.0
62854.997179923055,7.437480680600856,129829.0,75894.0,4762.0
62855.00723057262,7.447531330166385,129824.0,75886.0,4729.0
62855.017281222186,7.457581979731913,129815.0,75868.0,4735.0
62855.02733187176,7.467632629304717,129852.0,75908.0,4766.0
62855.037382521325,7.477683278870245,129815.0,75877.0,4751.0
62855.0474331709,7.487733928443049,129831.0,75892.0,4733.0
62855.05748382046,7.497784578008577,129822.0,75864.0,4750.0
62855.06753447003,7.507835227574105,129852.0,75917.0,4754.0
62855.0775851196,7.5178858771469095,129831.0,75872.0,4727.0
62855.08763576917,7.527936526712438,129820.0,75891.0,4738.0
62855.09768641874,7.537987176285242,129837.0,75877.0,4749.0
62855.107737068305,7.54803782585077,129815.0,75863.0,4726.0
62855.11778771787,7.558088475416298,129805.0,75865.0,4770.0
62855.12783836744,7.568139124989102,129790.0,75884.0,4734.0
62855.13788901701,7.57818977455463,129765.0,75872.0,4726.0
62855.147939666575,7.588240424120158,129788.0,75867.0,4732.0
62855.15799031615,7.5982910736929625,129787.0,75907.0,4739.0
62855.16804096571,7.608341723258491,129781.0,75885.0,4741.0
62855.178091615286,7.618392372831295,129772.0,75872.0,4724.0
62855.18814226485,7.628443022396823,129769.0,75852.0,4727.0
62855.19819291442,7.638493671962351,129777.0,75899.0,4721.0
62855.20824356399,7.648544321535155,129765.0,75875.0,4735.0
62855.218294213555,7.658594971100683,129769.0,75904.0,4743.0
62855.22834486313,7.668645620673487,129758.0,75858.0,4759.0
62855.23839551269,7.678696270239016,129780.0,75864.0,4759.0
62855.24844616226,7.688746919804544,129758.0,75884.0,4714.0
62855.25849681183,7.698797569377348,129757.0,75853.0,4726.0
62855.2685474614,7.708848218942876,129797.0,75891.0,4725.0
62855.27859811097,7.71889886851568,129761.0,75882.0,4718.0
62855.288648760536,7.728949518081208,129742.0,75872.0,4734.0
62855.2986994101,7.739000167646736,129756.0,75877.0,4723.0
62855.308750059674,7.7490508172195405,129768.0,75856.0,4734.0
62855.31880070924,7.759101466785069,129754.0,75857.0,4731.0
62855.32885135881,7.769152116357873,129769.0,75902.0,4745.0
62855.33890200838,7.779202765923401,129750.0,75871.0,4721.0
62855.34895265794,7.789253415488929,129747.0,75867.0,4739.0
62855.359003307516,7.799304065061733,129748.0,75868.0,4717.0
62855.36905395708,7.809354714627261,129739.0,75879.0,4769.0
62855.37910460665,7.819405364192789,129747.0,75872.0,4732.0
62855.38915525622,7.8294560137655935,129730.0,75864.0,4707.0
62855.399205905785,7.839506663331122,129770.0,75896.0,4708.0
62855.40925655536,7.849557312903926,129754.0,75863.0,4698.0
62855.419307204924,7.859607962469454,129757.0,75873.0,4731.0
62855.42935785449,7.869658612034982,129745.0,75864.0,4721.0
62855.43940850406,7.879709261607786,129778.0,75890.0,4755.0
62855.44945915363,7.889759911173314,129720.0,75866.0,4703.0
62855.4595098032,7.899810560746118,129758.0,75877.0,4732.0
62855.469560452766,7.909861210311647,129786.0,75885.0,4715.0
62855.47961110233,7.919911859877175,129766.0,75892.0,4758.0
62855.489661751904,7.929962509449979,129728.0,75859.0,4718.0
62855.49971240147,7.940013159015507,129757.0,75890.0,4732.0
62855.50976305104,7.950063808588311,129763.0,75889.0,4750.0
62855.51981370061,7.960114458153839,129723.0,75869.0,4706.0
62855.529864350174,7.970165107719367,129755.0,75911.0,4700.0
62855.53991499975,7.9802157572921715,129770.0,75864.0,4736.0
62855.54996564931,7.9902664068577,129753.0,75896.0,4739.0
62855.560016298885,8.000317056430504,129738.0,75861.0,4718.0
62855.57006694845,8.010367705996032,129758.0,75894.0,4748.0
62855.580117598016,8.02041835556156,129761.0,75878.0,4727.0
62855.59016824759,8.030469005134364,129780.0,75864.0,4721.0
62855.600218897154,8.040519654699892,129747.0,75878.0,4719.0
62855.61026954672,8.05057030426542,129796.0,75903.0,4763.0
62855.62032019629,8.060620953838225,129771.0,75881.0,4740.0
62855.63037084586,8.070671603403753,129726.0,75846.0,4711.0
62855.64042149543,8.080722252976557,129729.0,75894.0,4726.0
62855.650472145,8.090772902542085,129777.0,75872.0,4764.0
62855.66052279456,8.100823552107613,129764.0,75873.0,4741.0
62855.670573444135,8.110874201680417,129756.0,75863.0,4724.0
62855.6806240937,8.120924851245945,129777.0,75863.0,4764.0
62855.69067474327,8.13097550081875,129763.0,75862.0,4737.0
62855.70072539284,8.141026150384278,129761.0,75887.0,4720.0
62855.710776042404,8.151076799949806,129739.0,75882.0,4712.0
62855.72082669198,8.16112744952261,129769.0,75888.0,4733.0
62855.73087734154,8.171178099088138,129754.0,75855.0,4743.0
62855.740927991115,8.181228748660942,129766.0,75872.0,4720.0
62855.75097864068,8.19127939822647,129770.0,75866.0,4754.0
62855.76102929025,8.201330047791998,129732.0,75855.0,4736.0
62855.77107993982,8.211380697364802,129736.0,75880.0,4706.0
62855.781130589385,8.22143134693033,129782.0,75875.0,4758.0
62855.79118123896,8.231481996503135,129777.0,75871.0,4730.0
62855.80123188852,8.241532646068663,129762.0,75851.0,4740.0
62855.81128253809,8.251583295634191,129795.0,75868.0,4739.0
62855.82133318766,8.261633945206995,129775.0,75888.0,4745.0
62855.83138383723,8.271684594772523,129776.0,75879.0,4732.0
62855.84143448679,8.281735244338051,129765.0,75891.0,4739.0
62855.851485136365,8.291785893910856,129810.0,75903.0,4760.0
62855.86153578593,8.301836543476384,129780.0,75881.0,4727.0
62855.8715864355,8.311887193049188,129784.0,75893.0,4746.0
62855.88163708507,8.321937842614716,129771.0,75853.0,4732.0
62855.891687734635,8.331988492180244,129804.0,75906.0,4769.0
62855.90173838421,8.342039141753048,129743.0,75843.0,4701.0
62855.91178903377,8.352089791318576,129781.0,75881.0,4737.0
62855.921839683346,8.36214044089138,129808.0,75886.0,4759.0
62855.93189033291,8.372191090456909,129798.0,75871.0,4740.0
62855.94194098248,8.382241740022437,129785.0,75853.0,4758.0
62855.95199163205,8.39229238959524,129795.0,75882.0,4742.0
62855.962042281615,8.402343039160769,129823.0,75906.0,4736.0
62855.97209293119,8.412393688733573,129795.0,75890.0,4759.0
62855.98214358075,8.422444338299101,129786.0,75879.0,4733.0
62855.99219423032,8.43249498786463,129802.0,75879.0,4741.0
62856.00224487989,8.442545637437433,129818.0,75905.0,4743.0
62856.01229552946,8.452596287002962,129810.0,75855.0,4729.0
62856.02234617903,8.462646936575766,129812.0,75884.0,4716.0
62856.032396828596,8.472697586141294,129817.0,75887.0,4759.0
62856.04244747816,8.482748235706822,129787.0,75880.0,4761.0
62856.052498127734,8.492798885279626,129752.0,75864.0,4712.0
62856.0625487773,8.502849534845154,129770.0,75847.0,4745.0
62856.072599426865,8.512900184410682,129761.0,75879.0,4736.0
62856.08265007644,8.522950833983487,129748.0,75872.0,4722.0
62856.092700726,8.533001483549015,129727.0,75858.0,4740.0
62856.102751375576,8.543052133121819,129751.0,75862.0,4741.0
62856.11280202514,8.553102782687347,129742.0,75876.0,4728.0
62856.12285267471,8.563153432252875,129715.0,75874.0,4705.0
62856.13290332428,8.57320408182568,129738.0,75895.0,4753.0
62856.142953973846,8.583254731391207,129735.0,75861.0,4703.0
62856.15300462342,8.593305380964011,129741.0,75869.0,4728.0
62856.163055272984,8.60335603052954,129759.0,75897.0,4723.0
62856.17310592255,8.613406680095068,129706.0,75853.0,4748.0
62856.18315657212,8.623457329667872,129754.0,75887.0,4752.0
62856.19320722169,8.6335079792334,129738.0,75867.0,4737.0
62856.20325787126,8.643558628806204,129730.0,75888.0,4741.0
62856.213308520826,8.653609278371732,129747.0,75863.0,4720.0
62856.22335917039,8.66365992793726,129719.0,75876.0,4721.0
62856.233409819964,8.673710577510064,129739.0,75873.0,4748.0
62856.24346046953,8.683761227075593,129724.0,75876.0,4726.0
62856.2535111191,8.693811876648397,129706.0,75851.0,4705.0
62856.26356176867,8.703862526213925,129753.0,75889.0,4754.0
62856.273612418234,8.713913175779453,129750.0,75862.0,4748.0
62856.28366306781,8.723963825352257,129720.0,75855.0,4726.0
62856.29371371737,8.734014474917785,129736.0,75858.0,4713.0
62856.30376436694,8.744065124483313,129725.0,75877.0,4746.0
62856.31381501651,8.754115774056118,129713.0,75855.0,4734.0
62856.323865666076,8.764166423621646,129724.0,75869.0,4719.0
62856.33391631565,8.77421707319445,129711.0,75882.0,4724.0
62856.343966965214,8.784267722759978,129728.0,75884.0,4724.0
62856.35401761478,8.794318372325506,129707.0,75849.0,4734.0
62856.36406826435,8.80436902189831,129743.0,75875.0,4723.0
62856.37411891392,8.814419671463838,129746.0,75889.0,4749.0
62856.38416956349,8.824470321036642,129723.0,75856.0,4717.0
62856.39422021306,8.83452097060217,129705.0,75868.0,4698.0
62856.40427086262,8.844571620167699,129738.0,75879.0,4728.0
62856.414321512195,8.854622269740503,129748.0,75874.0,4745.0
62856.42437216176,8.864672919306031,129711.0,75852.0,4730.0
62856.43442281133,8.874723568878835,129716.0,75838.0,4694.0
62856.4444734609,8.884774218444363,129742.0,75869.0,4732.0
62856.454524110464,8.894824868009891,129758.0,75889.0,4750.0
62856.46457476004,8.904875517582695,129753.0,75902.0,4754.0
62856.4746254096,8.914926167148224,129762.0,75883.0,4750.0
62856.484676059175,8.924976816721028,129747.0,75885.0,4730.0
62856.49472670874,8.935027466286556,129723.0,75844.0,4736.0
62856.50477735831,8.945078115852084,129775.0,75884.0,4737.0
62856.51482800788,8.955128765424888,129770.0,75898.0,4725.0
62856.524878657445,8.965179414990416,129750.0,75881.0,4735.0
62856.53492930701,8.975230064555944,129751.0,75857.0,4734.0
62856.54497995658,8.985280714128749,129756.0,75882.0,4714.0
62856.55503060615,8.995331363694277,129765.0,75870.0,4748.0
62856.56508125572,9.00538201326708,129741.0,75859.0,4706.0
62856.57513190529,9.015432662832609,129741.0,75847.0,4745.0
62856.58518255485,9.025483312398137,129783.0,75892.0,4723.0
62856.595233204425,9.035533961970941,129753.0,75856.0,4709.0
62856.60528385399,9.04558461153647,129764.0,75875.0,4738.0
62856.615334503564,9.055635261109273,129756.0,75888.0,4736.0
62856.62538515313,9.065685910674802,129780.0,75890.0,4755.0
62856.635435802695,9.07573656024033,129738.0,75860.0,4709.0
62856.64548645227,9.085787209813134,129763.0,75879.0,4733.0
62856.65553710183,9.095837859378662,129801.0,75907.0,4748.0
62856.665587751406,9.105888508951466,129755.0,75872.0,4713.0
62856.67563840097,9.115939158516994,129765.0,75896.0,4755.0
62856.68568905054,9.125989808082522,129781.0,75882.0,4740.0
62856.69573970011,9.136040457655326,129736.0,75839.0,4709.0
62856.705790349675,9.146091107220855,129736.0,75847.0,4723.0
62856.71584099925,9.156141756793659,129798.0,75896.0,4718.0
62856.72589164881,9.166192406359187,129773.0,75886.0,4763.0
62856.73594229838,9.176243055924715,129777.0,75884.0,4735.0
62856.74599294795,9.18629370549752,129771.0,75878.0,4737.0
62856.75604359752,9.196344355063047,129788.0,75890.0,4755.0
62856.76609424708,9.206395004628575,129775.0,75883.0,4709.0
62856.776144896656,9.21644565420138,129772.0,75870.0,4734.0
62856.78619554622,9.226496303766908,129767.0,75879.0,4723.0
62856.796246195794,9.236546953339712,129774.0,75851.0,4735.0
62856.80629684536,9.24659760290524,129742.0,75875.0,4720.0
62856.816347494925,9.256648252470768,129775.0,75889.0,4740.0
62856.8263981445,9.266698902043572,129765.0,75917.0,4743.0
62856.83644879406,9.2767495516091,129751.0,75882.0,4726.0
62856.846499443636,9.286800201181904,129773.0,75873.0,4720.0
62856.8565500932,9.296850850747433,129777.0,75876.0,4738.0
62856.86660074277,9.30690150031296,129781.0,75871.0,4741.0
62856.87665139234,9.316952149885765,129774.0,75898.0,4735.0
62856.886702041906,9.327002799451293,129769.0,75863.0,4740.0
62856.89675269148,9.337053449024097,129789.0,75879.0,4737.0
62856.906803341044,9.347104098589625,129816.0,75897.0,4730.0
62856.91685399061,9.357154748155153,129809.0,75885.0,4716.0
62856.92690464018,9.367205397727957,129814.0,75892.0,4732.0
62856.93695528975,9.377256047293486,129788.0,75893.0,4736.0
62856.94700593932,9.38730669686629,129768.0,75852.0,4727.0
62856.957056588886,9.397357346431818,129748.0,75884.0,4721.0
62856.96710723845,9.407407995997346,129810.0,75901.0,4785.0
62856.977157888025,9.41745864557015,129760.0,75861.0,4737.0
62856.98720853759,9.427509295135678,129739.0,75868.0,4702.0
62856.997259187156,9.437559944701206,129765.0,75911.0,4749.0
62857.00730983673,9.44761059427401,129705.0,75853.0,4716.0
62857.017360486294,9.457661243839539,129744.0,75871.0,4734.0
62857.02741113587,9.467711893412343,129715.0,75849.0,4723.0
62857.03746178543,9.477762542977871,129761.0,75900.0,4746.0
62857.047512435,9.487813192543399,129747.0,75854.0,4741.0
62857.05756308457,9.497863842116203,129738.0,75875.0,4727.0
62857.067613734136,9.507914491681731,129716.0,75894.0,4755.0
62857.07766438371,9.517965141254535,129688.0,75860.0,4711.0
62857.087715033274,9.528015790820064,129714.0,75858.0,4714.0
62857.09776568284,9.538066440385592,129725.0,75868.0,4738.0
62857.10781633241,9.548117089958396,129729.0,75865.0,4751.0
62857.11786698198,9.558167739523924,129704.0,75853.0,4727.0
62857.12791763155,9.568218389096728,129691.0,75853.0,4702.0
62857.13796828112,9.578269038662256,129728.0,75868.0,4733.0
62857.14801893068,9.588319688227784,129747.0,75891.0,4733.0
62857.158069580255,9.598370337800588,129696.0,75872.0,4710.0
62857.16812022982,9.608420987366117,129723.0,75878.0,4727.0
62857.17817087939,9.61847163693892,129713.0,75871.0,4723.0
62857.18822152896,9.628522286504449,129709.0,75854.0,4725.0
62857.198272178524,9.638572936069977,129733.0,75855.0,4730.0
62857.2083228281,9.648623585642781,129736.0,75887.0,4715.0
62857.21837347766,9.65867423520831,129719.0,75874.0,4729.0
62857.22842412723,9.668724884773837,129708.0,75853.0,4736.0
62857.2384747768,9.678775534346642,129738.0,75913.0,4738.0
62857.24852542637,9.68882618391217,129746.0,75902.0,4751.0
62857.25857607594,9.698876833484974,129723.0,75874.0,4735.0
62857.268626725505,9.708927483050502,129732.0,75868.0,4732.0
62857.27867737507,9.71897813261603,129737.0,75882.0,4744.0
62857.28872802464,9.729028782188834,129718.0,75861.0,4760.0
62857.29877867421,9.739079431754362,129754.0,75858.0,4757.0
62857.30882932378,9.749130081327166,129737.0,75886.0,4724.0
62857.31887997335,9.759180730892695,129739.0,75891.0,4746.0
62857.32893062291,9.769231380458223,129726.0,75867.0,4717.0
62857.338981272485,9.779282030031027,129738.0,75877.0,4712.0
62857.34903192205,9.789332679596555,129727.0,75872.0,4727.0
62857.359082571624,9.799383329169359,129705.0,75822.0,4725.0
62857.36913322119,9.809433978734887,129722.0,75873.0,4722.0
62857.379183870755,9.819484628300415,129732.0,75860.0,4742.0
62857.38923452033,9.82953527787322,129734.0,75871.0,4730.0
62857.39928516989,9.839585927438748,129716.0,75841.0,4720.0
62857.409335819466,9.849636577011552,129730.0,75877.0,4717.0
62857.41938646903,9.85968722657708,129720.0,75873.0,4734.0
62857.4294371186,9.869737876142608,129736.0,75876.0,4729.0
62857.43948776817,9.879788525715412,129727.0,75870.0,4716.0
62857.449538417735,9.88983917528094,129725.0,75899.0,4725.0
62857.4595890673,9.899889824846468,129725.0,75874.0,4721.0
62857.469639716874,9.909940474419273,129744.0,75869.0,4733.0
62857.47969036644,9.9199911239848,129761.0,75895.0,4715.0
62857.48974101601,9.930041773557605,129775.0,75892.0,4739.0
62857.49979166558,9.940092423123133,129728.0,75863.0,4712.0
62857.50984231514,9.950143072688661,129751.0,75884.0,4735.0
62857.519892964716,9.960193722261465,129762.0,75908.0,4746.0
62857.52994361428,9.970244371826993,129782.0,75896.0,4745.0
62857.539994263854,9.980295021399797,129760.0,75862.0,4741.0
62857.55004491342,9.990345670965326,129759.0,75876.0,4722.0
62857.560095562985,10.000396320530854,129774.0,75866.0,4729.0
62857.57014621256,10.010446970103658,129772.0,75904.0,4688.0
62857.58019686212,10.020497619669186,129768.0,75912.0,4763.0
62857.590247511696,10.03054826924199,129760.0,75892.0,4723.0
62857.60029816126,10.040598918807518,129794.0,75884.0,4764.0
62857.61034881083,10.050649568373046,129749.0,75871.0,4723.0
62857.6203994604,10.06070021794585,129751.0,75876.0,4716.0
62857.630450109966,10.070750867511379,129773.0,75892.0,4754.0
62857.64050075954,10.080801517084183,129751.0,75914.0,4744.0
62857.650551409104,10.09085216664971,129756.0,75915.0,4740.0
62857.66060205867,10.100902816215239,129764.0,75885.0,4736.0
62857.67065270824,10.110953465788043,129763.0,75874.0,4730.0
62857.68070335781,10.121004115353571,129760.0,75876.0,4729.0
62857.69075400737,10.1310547649191,129771.0,75862.0,4736.0
62857.700804656946,10.141105414491904,129738.0,75865.0,4718.0
62857.71085530651,10.151156064057432,129770.0,75887.0,4727.0
62857.720905956085,10.161206713630236,129748.0,75857.0,4744.0
62857.73095660565,10.171257363195764,129749.0,75869.0,4751.0
62857.741007255216,10.181308012761292,129788.0,75908.0,4761.0
62857.75105790479,10.191358662334096,129753.0,75892.0,4717.0
62857.761108554354,10.201409311899624,129770.0,75846.0,4747.0
62857.77115920393,10.211459961472428,129778.0,75914.0,4753.0
62857.78120985349,10.221510611037957,129744.0,75884.0,4711.0
62857.79126050306,10.231561260603485,129761.0,75878.0,4729.0
62857.80131115263,10.241611910176289,129764.0,75883.0,4732.0
62857.811361802196,10.251662559741817,129738.0,75868.0,4735.0
62857.82141245177,10.261713209314621,129727.0,75877.0,4722.0
62857.831463101335,10.27176385888015,129742.0,75863.0,4718.0
62857.8415137509,10.281814508445677,129722.0,75876.0,4738.0
62857.85156440047,10.291865158018481,129732.0,75887.0,4745.0
62857.86161505004,10.30191580758401,129700.0,75853.0,4706.0
62857.87166569961,10.311966457156814,129732.0,75889.0,4743.0
62857.88171634918,10.322017106722342,129726.0,75873.0,4725.0
62857.89176699874,10.33206775628787,129698.0,75855.0,4698.0
62857.901817648315,10.342118405860674,129694.0,75865.0,4742.0
62857.91186829788,10.352169055426202,129713.0,75894.0,4754.0
62857.921918947446,10.36221970499173,129713.0,75873.0,4719.0
62857.93196959702,10.372270354564535,129699.0,75863.0,4731.0
62857.942020246584,10.382321004130063,129705.0,75882.0,4715.0
62857.95207089616,10.392371653702867,129732.0,75873.0,4751.0
62857.96212154572,10.402422303268395,129708.0,75875.0,4729.0
62857.97217219529,10.412472952833923,129734.0,75854.0,4715.0
62857.98222284486,10.422523602406727,129735.0,75896.0,4735.0
62857.99227349443,10.432574251972255,129697.0,75845.0,4720.0
62858.002324144,10.44262490154506,129721.0,75868.0,4730.0
62858.012374793565,10.452675551110588,129699.0,75857.0,4720.0
62858.02242544313,10.462726200676116,129734.0,75889.0,4717.0
62858.0324760927,10.47277685024892,129710.0,75847.0,4711.0
62858.04252674227,10.482827499814448,129704.0,75874.0,4737.0
62858.05257739184,10.492878149387252,129712.0,75859.0,4719.0
62858.06262804141,10.50292879895278,129736.0,75884.0,4734.0
62858.07267869097,10.512979448518308,129697.0,75879.0,4705.0
62858.082729340545,10.523030098091112,129728.0,75882.0,4724.0
62858.09277999011,10.53308074765664,129717.0,75869.0,4706.0
62858.102830639684,10.543131397229445,129748.0,75892.0,4730.0
62858.11288128925,10.553182046794973,129733.0,75871.0,4713.0
62858.122931938815,10.563232696360501,129719.0,75871.0,4717.0
62858.13298258839,10.573283345933305,129742.0,75902.0,4693.0
62858.14303323795,10.583333995498833,129723.0,75849.0,4707.0
62858.15308388752,10.593384645064361,129722.0,75888.0,4721.0
62858.16313453709,10.603435294637165,129716.0,75861.0,4742.0
62858.17318518666,10.613485944202694,129705.0,75862.0,4714.0
62858.18323583623,10.623536593775498,129702.0,75862.0,4706.0
62858.193286485795,10.633587243341026,129698.0,75855.0,4715.0
62858.20333713536,10.643637892906554,129724.0,75873.0,4722.0
62858.213387784934,10.653688542479358,129722.0,75893.0,4726.0
62858.2234384345,10.663739192044886,129708.0,75880.0,4713.0
62858.23348908407,10.67378984161769,129750.0,75897.0,4742.0
62858.24353973364,10.683840491183219,129682.0,75873.0,4701.0
62858.2535903832,10.693891140748747,129736.0,75871.0,4726.0
62858.263641032776,10.70394179032155,129728.0,75893.0,4698.0
62858.27369168234,10.713992439887079,129697.0,75877.0,4731.0
62858.283742331914,10.724043089459883,129742.0,75875.0,4754.0
62858.29379298148,10.734093739025411,129710.0,75901.0,4734.0
62858.303843631045,10.74414438859094,129743.0,75857.0,4727.0
62858.31389428062,10.754195038163743,129751.0,75878.0,4730.0
62858.323944930184,10.764245687729272,129727.0,75886.0,4717.0
62858.33399557976,10.774296337302076,129736.0,75881.0,4735.0
62858.34404622932,10.784346986867604,129726.0,75860.0,4723.0
62858.35409687889,10.794397636433132,129711.0,75856.0,4714.0
62858.36414752846,10.804448286005936,129720.0,75888.0,4737.0
62858.374198178026,10.814498935571464,129741.0,75879.0,4725.0
62858.38424882759,10.824549585136992,129728.0,75860.0,4732.0
62858.394299477164,10.834600234709796,129759.0,75892.0,4738.0
62858.40435012673,10.844650884275325,129735.0,75905.0,4736.0
62858.4144007763,10.854701533848129,129751.0,75869.0,4731.0
62858.42445142587,10.864752183413657,129717.0,75851.0,4701.0
62858.43450207543,10.874802832979185,129723.0,75904.0,4735.0
62858.444552725006,10.88485348255199,129762.0,75871.0,4756.0
62858.45460337457,10.894904132117517,129741.0,75870.0,4733.0
62858.464654024145,10.904954781690321,129730.0,75862.0,4728.0
62858.47470467371,10.91500543125585,129726.0,75886.0,4728.0
62858.484755323276,10.925056080821378,129749.0,75906.0,4752.0
62858.49480597285,10.935106730394182,129743.0,75872.0,4727.0
62858.504856622414,10.94515737995971,129711.0,75897.0,4748.0
62858.51490727199,10.955208029532514,129772.0,75870.0,4762.0
62858.52495792155,10.965258679098042,129743.0,75856.0,4738.0
62858.53500857112,10.97530932866357,129744.0,75878.0,4739.0
62858.54505922069,10.985359978236374,129745.0,75871.0,4747.0
62858.555109870256,10.995410627801903,129717.0,75886.0,4721.0
62858.56516051983,11.005461277374707,129731.0,75884.0,4722.0
62858.575211169395,11.015511926940235,129760.0,75869.0,4731.0
62858.58526181896,11.025562576505763,129786.0,75900.0,4739.0
62858.59531246853,11.035613226078567,129780.0,75907.0,4742.0
62858.6053631181,11.045663875644095,129750.0,75877.0,4756.0
62858.615413767664,11.055714525209623,129748.0,75887.0,4735.0
62858.62546441724,11.065765174782427,129769.0,75880.0,4754.0
62858.6355150668,11.075815824347956,129706.0,75886.0,4725.0
62858.645565716375,11.08586647392076,129736.0,75900.0,4739.0
62858.65561636594,11.095917123486288,129719.0,75871.0,4736.0
62858.665667015506,11.105967773051816,129719.0,75861.0,4718.0
62858.67571766508,11.11601842262462,129714.0,75883.0,4752.0
62858.685768314645,11.126069072190148,129722.0,75892.0,4711.0
62858.69581896422,11.136119721762952,129682.0,75878.0,4712.0
62858.70586961378,11.14617037132848,129692.0,75868.0,4739.0
62858.71592026335,11.156221020894009,129710.0,75889.0,4735.0
62858.72597091292,11.166271670466813,129704.0,75842.0,4735.0
62858.73602156249,11.176322320032341,129693.0,75874.0,4694.0
62858.74607221206,11.186372969605145,129697.0,75848.0,4727.0
62858.756122861625,11.196423619170673,129707.0,75889.0,4745.0
62858.76617351119,11.206474268736201,129701.0,75846.0,4689.0
62858.77622416076,11.216524918309005,129692.0,75873.0,4720.0
62858.78627481033,11.226575567874534,129710.0,75895.0,4714.0
62858.7963254599,11.236626217447338,129686.0,75864.0,4693.0
62858.80637610947,11.246676867012866,129686.0,75842.0,4712.0
62858.81642675903,11.256727516578394,129701.0,75894.0,4730.0
62858.826477408606,11.266778166151198,129677.0,75846.0,4733.0
62858.83652805817,11.276828815716726,129674.0,75859.0,4717.0
62858.84657870774,11.286879465282254,129691.0,75863.0,4707.0
62858.85662935731,11.296930114855058,129714.0,75882.0,4742.0
62858.866680006875,11.306980764420587,129692.0,75872.0,4719.0
62858.87673065645,11.31703141399339,129691.0,75883.0,4740.0
62858.88678130601,11.327082063558919,129711.0,75883.0,4698.0
62858.89683195558,11.337132713124447,129692.0,75859.0,4698.0
62858.90688260515,11.347183362697251,129701.0,75871.0,4722.0
62858.91693325472,11.35723401226278,129704.0,75863.0,4715.0
62858.92698390429,11.367284661835583,129706.0,75884.0,4747.0
62858.937034553855,11.377335311401112,129691.0,75869.0,4716.0
62858.94708520342,11.38738596096664,129704.0,75881.0,4726.0
62858.957135852994,11.397436610539444,129722.0,75868.0,4714.0
62858.96718650256,11.407487260104972,129701.0,75873.0,4717.0
62858.97723715213,11.417537909677776,129678.0,75843.0,4706.0
62858.9872878017,11.427588559243304,129695.0,75878.0,4718.0
62858.99733845126,11.437639208808832,129709.0,75905.0,4729.0
62859.007389100836,11.447689858381636,129689.0,75882.0,4727.0
62859.0174397504,11.457740507947165,129705.0,75863.0,4727.0
62859.027490399974,11.467791157519969,129703.0,75875.0,4723.0
62859.03754104954,11.477841807085497,129698.0,75899.0,4744.0
62859.047591699105,11.487892456651025,129671.0,75850.0,4725.0
62859.05764234868,11.497943106223829,129694.0,75901.0,4722.0
62859.067692998244,11.507993755789357,129703.0,75872.0,4711.0
62859.07774364781,11.518044405354885,129699.0,75858.0,4705.0
62859.08779429738,11.52809505492769,129698.0,75860.0,4696.0
62859.09784494695,11.538145704493218,129691.0,75871.0,4712.0
62859.10789559652,11.548196354066022,129706.0,75876.0,4719.0
62859.117946246086,11.55824700363155,129709.0,75872.0,4715.0
62859.12799689565,11.568297653197078,129667.0,75908.0,4715.0
62859.138047545224,11.578348302769882,129738.0,75882.0,4747.0
62859.14809819479,11.58839895233541,129714.0,75884.0,4725.0
62859.15814884436,11.598449601908214,129695.0,75863.0,4726.0
62859.16819949393,11.608500251473743,129740.0,75874.0,4748.0
62859.178250143494,11.61855090103927,129701.0,75859.0,4736.0
62859.18830079307,11.628601550612075,129730.0,75880.0,4716.0
62859.19835144263,11.638652200177603,129680.0,75870.0,4717.0
62859.208402092205,11.648702849750407,129732.0,75889.0,4748.0
62859.21845274177,11.658753499315935,129742.0,75881.0,4718.0
62859.228503391336,11.668804148881463,129713.0,75875.0,4732.0
62859.23855404091,11.678854798454267,129665.0,75879.0,4724.0
62859.248604690474,11.688905448019796,129707.0,75875.0,4737.0
62859.25865534005,11.6989560975926,129715.0,75880.0,4713.0
62859.26870598961,11.709006747158128,129728.0,75883.0,4743.0
62859.27875663918,11.719057396723656,129681.0,75881.0,4728.0
62859.28880728875,11.72910804629646,129676.0,75852.0,4719.0
62859.298857938316,11.739158695861988,129695.0,75894.0,4758.0
62859.30890858788,11.749209345427516,129694.0,75904.0,4752.0
62859.318959237455,11.75925999500032,129697.0,75893.0,4744.0
62859.32900988702,11.769310644565849,129670.0,75871.0,4703.0
62859.33906053659,11.779361294138653,129714.0,75907.0,4759.0
62859.34911118616,11.78941194370418,129710.0,75880.0,4724.0
62859.359161835724,11.799462593269709,129671.0,75871.0,4725.0
62859.3692124853,11.809513242842513,129680.0,75864.0,4720.0
62859.37926313486,11.819563892408041,129731.0,75908.0,4736.0
62859.389313784435,11.829614541980845,129696.0,75873.0,4722.0
62859.399364434,11.839665191546374,129707.0,75900.0,4727.0
62859.409415083566,11.849715841111902,129722.0,75895.0,4757.0
62859.41946573314,11.859766490684706,129739.0,75908.0,4702.0
62859.429516382705,11.869817140250234,129707.0,75878.0,4719.0
62859.43956703228,11.879867789823038,129696.0,75886.0,4724.0
62859.44961768184,11.889918439388566,129718.0,75913.0,4708.0
62859.45966833141,11.899969088954094,129676.0,75888.0,4736.0
62859.46971898098,11.910019738526898,129680.0,75885.0,4745.0
62859.47976963055,11.920070388092427,129674.0,75896.0,4722.0
62859.48982028012,11.93012103766523,129692.0,75871.0,4746.0
62859.499870929685,11.940171687230759,129667.0,75881.0,4733.0
62859.50992157925,11.950222336796287,129644.0,75898.0,4706.0
62859.51997222882,11.960272986369091,129640.0,75875.0,4730.0
62859.53002287839,11.97032363593462,129635.0,75882.0,4708.0
62859.54007352796,11.980374285507423,129639.0,75868.0,4711.0
62859.55012417753,11.990424935072951,129648.0,75896.0,4746.0
62859.56017482709,12.00047558463848,129643.0,75884.0,4717.0
62859.570225476666,12.010526234211284,129645.0,75892.0,4697.0
62859.58027612623,12.020576883776812,129650.0,75880.0,4718.0
62859.5903267758,12.03062753334234,129647.0,75894.0,4738.0
62859.60037742537,12.040678182915144,129640.0,75885.0,4723.0
62859.610428074935,12.050728832480672,129630.0,75870.0,4699.0
62859.62047872451,12.060779482053476,129655.0,75933.0,4736.0
62859.63052937407,12.070830131619005,129590.0,75877.0,4705.0
62859.64058002364,12.080880781184533,129632.0,75867.0,4718.0
62859.65063067321,12.090931430757337,129620.0,75869.0,4708.0
62859.66068132278,12.100982080322865,129647.0,75888.0,4742.0
62859.67073197235,12.111032729895669,129636.0,75891.0,4708.0
62859.680782621916,12.121083379461197,129635.0,75875.0,4719.0
62859.69083327148,12.131134029026725,129606.0,75912.0,4739.0
62859.700883921054,12.14118467859953,129660.0,75878.0,4741.0
62859.71093457062,12.151235328165058,129654.0,75897.0,4702.0
62859.72098522019,12.161285977737862,129639.0,75881.0,4740.0
62859.73103586976,12.17133662730339,129642.0,75899.0,4713.0
62859.74108651932,12.181387276868918,129611.0,75848.0,4704.0
62859.751137168896,12.191437926441722,129605.0,75896.0,4708.0
62859.76118781846,12.20148857600725,129677.0,75905.0,4760.0
62859.771238468034,12.211539225580054,129628.0,75901.0,4716.0
62859.7812891176,12.221589875145582,129619.0,75851.0,4722.0
62859.791339767165,12.23164052471111,129650.0,75896.0,4719.0
62859.80139041674,12.241691174283915,129621.0,75870.0,4724.0
62859.811441066304,12.251741823849443,129624.0,75885.0,4722.0
62859.82149171587,12.261792473414971,129613.0,75875.0,4701.0
62859.83154236544,12.271843122987775,129623.0,75877.0,4706.0
62859.84159301501,12.281893772553303,129618.0,75860.0,4724.0
62859.85164366458,12.291944422126107,129632.0,75878.0,4711.0
62859.861694314146,12.301995071691636,129618.0,75845.0,4715.0
62859.87174496371,12.312045721257164,129616.0,75888.0,4729.0
62859.881795613284,12.322096370829968,129618.0,75879.0,4697.0
62859.89184626285,12.332147020395496,129633.0,75880.0,4718.0
62859.90189691242,12.3421976699683,129661.0,75883.0,4719.0
62859.91194756199,12.352248319533828,129634.0,75879.0,4698.0
62859.921998211554,12.362298969099356,129648.0,75875.0,4743.0
62859.93204886113,12.37234961867216,129649.0,75881.0,4723.0
62859.94209951069,12.382400268237689,129683.0,75914.0,4740.0
62859.952150160265,12.392450917810493,129647.0,75874.0,4708.0
62859.96220080983,12.40250156737602,129672.0,75905.0,4732.0
62859.972251459396,12.412552216941549,129647.0,75889.0,4714.0
62859.98230210897,12.422602866514353,129632.0,75864.0,4734.0
62859.992352758534,12.432653516079881,129670.0,75887.0,4721.0
62860.00240340811,12.442704165652685,129651.0,75876.0,4737.0
62860.01245405767,12.452754815218213,129659.0,75883.0,4716.0
62860.02250470724,12.462805464783742,129655.0,75861.0,4742.0
62860.03255535681,12.472856114356546,129632.0,75893.0,4729.0
62860.04260600638,12.482906763922074,129659.0,75869.0,4737.0
62860.05265665594,12.492957413487602,129655.0,75881.0,4719.0
62860.062707305515,12.503008063060406,129664.0,75868.0,4699.0
62860.07275795508,12.513058712625934,129689.0,75918.0,4706.0
62860.08280860465,12.523109362198738,129655.0,75896.0,4754.0
62860.09285925422,12.533160011764267,129657.0,75888.0,4723.0
62860.102909903784,12.543210661329795,129662.0,75891.0,4727.0
62860.11296055336,12.553261310902599,129645.0,75858.0,4739.0
62860.12301120292,12.563311960468127,129652.0,75889.0,4708.0
62860.133061852495,12.573362610040931,129674.0,75881.0,4733.0
62860.14311250206,12.58341325960646,129696.0,75911.0,4737.0
62860.153163151626,12.593463909171987,129647.0,75884.0,4738.0
62860.1632138012,12.603514558744791,129657.0,75895.0,4719.0
62860.173264450765,12.61356520831032,129667.0,75868.0,4723.0
62860.18331510034,12.623615857883124,129682.0,75906.0,4739.0
62860.1933657499,12.633666507448652,129662.0,75878.0,4711.0
62860.20341639947,12.64371715701418,129676.0,75893.0,4702.0
62860.21346704904,12.653767806586984,129677.0,75892.0,4745.0
62860.22351769861,12.663818456152512,129677.0,75896.0,4743.0
62860.23356834818,12.673869105725316,129706.0,75910.0,4745.0
62860.243618997745,12.683919755290844,129684.0,75924.0,4743.0
62860.25366964731,12.693970404856373,129691.0,75890.0,4723.0
62860.26372029688,12.704021054429177,129685.0,75896.0,4729.0
62860.27377094645,12.714071703994705,129677.0,75889.0,4717.0
62860.283821596015,12.724122353560233,129699.0,75911.0,4750.0
62860.29387224559,12.734173003133037,129634.0,75843.0,4706.0
62860.30392289515,12.744223652698565,129672.0,75891.0,4729.0
62860.313973544726,12.75427430227137,129695.0,75917.0,4731.0
62860.32402419429,12.764324951836898,129688.0,75888.0,4748.0
62860.33407484386,12.774375601402426,129695.0,75913.0,4741.0
62860.34412549343,12.78442625097523,129663.0,75887.0,4722.0
62860.354176142995,12.794476900540758,129654.0,75899.0,4749.0
62860.36422679257,12.804527550113562,129617.0,75860.0,4707.0
62860.37427744213,12.81457819967909,129592.0,75882.0,4698.0
62860.3843280917,12.824628849244618,129634.0,75878.0,4723.0
62860.39437874127,12.834679498817422,129636.0,75874.0,4749.0
62860.40442939084,12.84473014838295,129606.0,75863.0,4710.0
62860.41448004041,12.854780797955755,129653.0,75893.0,4735.0
62860.424530689976,12.864831447521283,129611.0,75882.0,4704.0
62860.43458133954,12.874882097086811,129593.0,75871.0,4719.0
62860.444631989114,12.884932746659615,129589.0,75906.0,4723.0
62860.45468263868,12.894983396225143,129646.0,75901.0,4727.0
62860.46473328825,12.905034045797947,129610.0,75871.0,4716.0
62860.47478393782,12.915084695363475,129630.0,75893.0,4695.0
62860.48483458738,12.925135344929004,129636.0,75893.0,4739.0
62860.494885236956,12.935185994501808,129624.0,75912.0,4739.0
62860.50493588652,12.945236644067336,129614.0,75879.0,4722.0
62860.51498653609,12.955287293632864,129588.0,75874.0,4700.0
62860.52503718566,12.965337943205668,129635.0,75867.0,4737.0
62860.535087835226,12.975388592771196,129607.0,75867.0,4687.0
62860.5451384848,12.985439242344,129600.0,75875.0,4716.0
62860.555189134364,12.995489891909529,129614.0,75878.0,4710.0
62860.56523978393,13.005540541475057,129587.0,75857.0,4721.0
62860.5752904335,13.01559119104786,129597.0,75854.0,4712.0
62860.58534108307,13.025641840613389,129619.0,75888.0,4711.0
62860.59539173264,13.035692490186193,129618.0,75897.0,4712.0
62860.605442382206,13.045743139751721,129614.0,75879.0,4724.0
62860.61549303177,13.05579378931725,129651.0,75896.0,4725.0
62860.625543681344,13.065844438890053,129622.0,75879.0,4717.0
62860.63559433091,13.075895088455582,129633.0,75895.0,4746.0
62860.64564498048,13.085945738028386,129598.0,75883.0,4705.0
62860.65569563005,13.095996387593914,129616.0,75890.0,4712.0
62860.665746279614,13.106047037159442,129617.0,75879.0,4712.0
62860.67579692919,13.116097686732246,129604.0,75856.0,4728.0
62860.68584757875,13.126148336297774,129661.0,75910.0,4740.0
62860.695898228325,13.136198985870578,129641.0,75895.0,4713.0
62860.70594887789,13.146249635436106,129618.0,75872.0,4730.0
62860.715999527456,13.156300285001635,129595.0,75866.0,4727.0
62860.72605017703,13.166350934574439,129646.0,75912.0,4742.0
62860.736100826594,13.176401584139967,129583.0,75861.0,4732.0
62860.74615147616,13.186452233705495,129594.0,75881.0,4704.0
62860.75620212573,13.1965028832783,129625.0,75879.0,4718.0
62860.7662527753,13.206553532843827,129640.0,75895.0,4730.0
62860.77630342487,13.216604182416631,129630.0,75891.0,4748.0
62860.78635407444,13.22665483198216,129593.0,75865.0,4733.0
62860.796404724,13.236705481547688,129622.0,75880.0,4727.0
62860.806455373575,13.246756131120492,129658.0,75901.0,4731.0
62860.81650602314,13.25680678068602,129624.0,75886.0,4702.0
62860.82655667271,13.266857430258824,129648.0,75887.0,4699.0
62860.83660732228,13.276908079824352,129633.0,75866.0,4726.0
62860.846657971844,13.28695872938988,129619.0,75859.0,4738.0
62860.85670862142,13.297009378962684,129607.0,75868.0,4693.0
62860.86675927098,13.307060028528213,129622.0,75881.0,4716.0
62860.876809920555,13.317110678101017,129636.0,75878.0,4720.0
62860.88686057012,13.327161327666545,129625.0,75863.0,4712.0
62860.89691121969,13.337211977232073,129654.0,75865.0,4734.0
62860.90696186926,13.347262626804877,129651.0,75909.0,4749.0
62860.917012518825,13.357313276370405,129646.0,75885.0,4723.0
62860.9270631684,13.36736392594321,129663.0,75885.0,4722.0
62860.93711381796,13.377414575508737,129632.0,75912.0,4734.0
62860.94716446753,13.387465225074266,129639.0,75882.0,4721.0
62860.9572151171,13.39751587464707,129636.0,75856.0,4702.0
62860.96726576667,13.407566524212598,129632.0,75885.0,4713.0
62860.97731641623,13.417617173778126,129644.0,75881.0,4711.0
62860.987367065805,13.42766782335093,129646.0,75877.0,4734.0
62860.99741771537,13.437718472916458,129656.0,75887.0,4720.0
62861.00746836494,13.447769122489262,129680.0,75916.0,4720.0
62861.01751901451,13.45781977205479,129687.0,75892.0,4732.0
62861.027569664075,13.467870421620319,129680.0,75893.0,4722.0
62861.03762031365,13.477921071193123,129654.0,75885.0,4732.0
62861.04767096321,13.487971720758651,129651.0,75877.0,4738.0
62861.057721612786,13.498022370331455,129648.0,75879.0,4715.0
62861.06777226235,13.508073019896983,129675.0,75907.0,4717.0
62861.07782291192,13.518123669462511,129672.0,75893.0,4731.0
62861.08787356149,13.528174319035315,129630.0,75876.0,4740.0
62861.097924211055,13.538224968600844,129668.0,75915.0,4751.0
62861.10797486063,13.548275618173648,129666.0,75868.0,4727.0
62861.11802551019,13.558326267739176,129670.0,75898.0,4728.0
62861.12807615976,13.568376917304704,129664.0,75891.0,4699.0
62861.13812680933,13.578427566877508,129682.0,75907.0,4755.0
62861.1481774589,13.588478216443036,129665.0,75890.0,4728.0
62861.15822810847,13.59852886601584,129679.0,75883.0,4723.0
62861.168278758036,13.608579515581368,129660.0,75872.0,4714.0
62861.1783294076,13.618630165146897,129689.0,75882.0,4729.0
62861.188380057174,13.6286808147197,129658.0,75872.0,4737.0
62861.19843070674,13.638731464285229,129677.0,75889.0,4699.0
62861.208481356305,13.648782113850757,129643.0,75896.0,4746.0
62861.21853200588,13.658832763423561,129650.0,75891.0,4731.0
62861.22858265544,13.66888341298909,129662.0,75880.0,4716.0
62861.238633305016,13.678934062561893,129659.0,75895.0,4696.0
62861.24868395458,13.688984712127422,129672.0,75880.0,4728.0
62861.25873460415,13.69903536169295,129665.0,75900.0,4719.0
62861.26878525372,13.709086011265754,129638.0,75887.0,4713.0
62861.278835903286,13.719136660831282,129676.0,75889.0,4741.0
62861.28888655286,13.729187310404086,129643.0,75914.0,4727.0
62861.298937202424,13.739237959969614,129625.0,75863.0,4718.0
62861.30898785199,13.749288609535142,129602.0,75877.0,4703.0
62861.31903850156,13.759339259107946,129607.0,75886.0,4712.0
62861.32908915113,13.769389908673475,129630.0,75878.0,4727.0
62861.3391398007,13.779440558246279,129599.0,75869.0,4709.0
62861.349190450266,13.789491207811807,129601.0,75849.0,4712.0
62861.35924109983,13.799541857377335,129615.0,75880.0,4702.0
62861.369291749405,13.809592506950139,129607.0,75884.0,4717.0
62861.37934239897,13.819643156515667,129597.0,75851.0,4711.0
62861.38939304854,13.829693806088471,129581.0,75849.0,4709.0
62861.39944369811,13.839744455654,129630.0,75898.0,4726.0
62861.409494347674,13.849795105219528,129609.0,75875.0,4717.0
62861.41954499725,13.859845754792332,129617.0,75889.0,4712.0
62861.42959564681,13.86989640435786,129589.0,75884.0,4723.0
62861.43964629638,13.879947053923388,129624.0,75888.0,4743.0
62861.44969694595,13.889997703496192,129616.0,75880.0,4716.0
62861.459747595516,13.90004835306172,129606.0,75862.0,4718.0
62861.46979824509,13.910099002634524,129600.0,75873.0,4700.0
62861.479848894654,13.920149652200053,129574.0,75877.0,4715.0
62861.48989954422,13.93020030176558,129582.0,75866.0,4744.0
62861.49995019379,13.940250951338385,129591.0,75865.0,4720.0
62861.51000084336,13.950301600903913,129582.0,75873.0,4696.0
62861.52005149293,13.960352250476717,129600.0,75868.0,4714.0
62861.5301021425,13.970402900042245,129600.0,75892.0,4709.0
62861.54015279206,13.980453549607773,129592.0,75855.0,4712.0
62861.550203441635,13.990504199180577,129634.0,75870.0,4739.0
62861.5602540912,14.000554848746106,129623.0,75909.0,4734.0
62861.57030474077,14.01060549831891,129607.0,75892.0,4719.0
62861.58035539034,14.020656147884438,129582.0,75882.0,4707.0
62861.590406039904,14.030706797449966,129641.0,75904.0,4719.0
62861.60045668948,14.04075744702277,129613.0,75858.0,4718.0
62861.61050733904,14.050808096588298,129610.0,75893.0,4719.0
62861.620557988615,14.060858746161102,129607.0,75893.0,4713.0
62861.63060863818,14.07090939572663,129613.0,75866.0,4707.0
62861.64065928775,14.080960045292159,129629.0,75891.0,4747.0
62861.65070993732,14.091010694864963,129615.0,75886.0,4721.0
62861.660760586885,14.10106134443049,129624.0,75869.0,4708.0
62861.67081123645,14.111111993996019,129632.0,75895.0,4740.0
62861.68086188602,14.121162643568823,129633.0,75909.0,4727.0
62861.69091253559,14.131213293134351,129611.0,75884.0,4715.0
62861.70096318516,14.141263942707155,129616.0,75898.0,4723.0
62861.71101383473,14.151314592272684,129644.0,75892.0,4725.0
62861.72106448429,14.161365241838212,129628.0,75865.0,4732.0
62861.731115133865,14.171415891411016,129591.0,75881.0,4699.0
62861.74116578343,14.181466540976544,129661.0,75893.0,4718.0
62861.751216433004,14.191517190549348,129614.0,75909.0,4753.0
62861.76126708257,14.201567840114876,129624.0,75871.0,4698.0
62861.771317732135,14.211618489680404,129634.0,75874.0,4720.0
62861.78136838171,14.221669139253208,129622.0,75865.0,4736.0
62861.79141903127,14.231719788818737,129619.0,75882.0,4710.0
62861.801469680846,14.24177043839154,129610.0,75863.0,4697.0
62861.81152033041,14.251821087957069,129656.0,75892.0,4692.0
62861.82157097998,14.261871737522597,129622.0,75890.0,4725.0
62861.83162162955,14.271922387095401,129624.0,75879.0,4716.0
62861.841672279115,14.28197303666093,129637.0,75896.0,4717.0
62861.85172292869,14.292023686233733,129612.0,75908.0,4732.0
62861.86177357825,14.302074335799261,129652.0,75892.0,4726.0
62861.87182422782,14.31212498536479,129644.0,75886.0,4709.0
62861.88187487739,14.322175634937594,129659.0,75899.0,4700.0
62861.89192552696,14.332226284503122,129653.0,75895.0,4743.0
62861.90197617652,14.34227693406865,129637.0,75882.0,4731.0
62861.912026826096,14.352327583641454,129614.0,75893.0,4711.0
62861.92207747566,14.362378233206982,129644.0,75903.0,4747.0
62861.932128125234,14.372428882779786,129634.0,75905.0,4723.0
62861.9421787748,14.382479532345315,129651.0,75884.0,4725.0
62861.952229424365,14.392530181910843,129633.0,75876.0,4703.0
62861.96228007394,14.402580831483647,129642.0,75903.0,4742.0
62861.9723307235,14.412631481049175,129662.0,75903.0,4749.0
62861.982381373076,14.422682130621979,129648.0,75875.0,4730.0
62861.99243202264,14.432732780187507,129618.0,75911.0,4721.0
62862.00248267221,14.442783429753035,129671.0,75872.0,4732.0
62862.01253332178,14.45283407932584,129630.0,75887.0,4738.0
62862.022583971346,14.462884728891368,129673.0,75893.0,4736.0
62862.03263462092,14.472935378464172,129645.0,75904.0,4737.0
62862.042685270484,14.4829860280297,129625.0,75870.0,4726.0
62862.05273592005,14.493036677595228,129628.0,75910.0,4733.0
62862.06278656962,14.503087327168032,129657.0,75894.0,4738.0
62862.07283721919,14.51313797673356,129693.0,75887.0,4755.0
62862.08288786876,14.523188626306364,129651.0,75895.0,4713.0
62862.092938518326,14.533239275871892,129626.0,75897.0,4702.0
62862.10298916789,14.54328992543742,129671.0,75890.0,4730.0
62862.113039817465,14.553340575010225,129643.0,75894.0,4731.0
62862.12309046703,14.563391224575753,129641.0,75902.0,4725.0
62862.133141116596,14.573441874141281,129678.0,75911.0,4758.0
62862.14319176617,14.583492523714085,129672.0,75897.0,4728.0
62862.153242415734,14.593543173279613,129651.0,75876.0,4726.0
62862.16329306531,14.603593822852417,129687.0,75906.0,4739.0
62862.17334371487,14.613644472417946,129652.0,75869.0,4756.0
62862.18339436444,14.623695121983474,129668.0,75893.0,4726.0
62862.19344501401,14.633745771556278,129662.0,75898.0,4751.0
62862.203495663576,14.643796421121806,129653.0,75902.0,4710.0
62862.21354631315,14.65384707069461,129679.0,75850.0,4746.0
62862.223596962715,14.663897720260138,129660.0,75889.0,4733.0
62862.23364761228,14.673948369825666,129657.0,75875.0,4732.0
62862.24369826185,14.68399901939847,129636.0,75885.0,4736.0
62862.25374891142,14.694049668963999,129628.0,75866.0,4709.0
62862.26379956099,14.704100318536803,129647.0,75890.0,4757.0
62862.27385021056,14.71415096810233,129627.0,75902.0,4727.0
62862.28390086012,14.724201617667859,129576.0,75817.0,4717.0
62862.293951509695,14.734252267240663,129596.0,75861.0,4736.0
62862.30400215926,14.744302916806191,129631.0,75888.0,4730.0
62862.31405280883,14.754353566378995,129611.0,75875.0,4717.0
62862.3241034584,14.764404215944523,129589.0,75869.0,4710.0
62862.334154107964,14.774454865510052,129628.0,75888.0,4745.0
62862.34420475754,14.784505515082856,129611.0,75865.0,4731.0
62862.3542554071,14.794556164648384,129606.0,75881.0,4718.0
62862.36430605667,14.804606814213912,129578.0,75855.0,4714.0
62862.37435670624,14.814657463786716,129646.0,75902.0,4699.0
62862.38440735581,14.824708113352244,129587.0,75874.0,4704.0
62862.39445800538,14.834758762925048,129598.0,75877.0,4721.0
62862.404508654945,14.844809412490577,129594.0,75877.0,4728.0
62862.41455930451,14.854860062056105,129617.0,75892.0,4733.0
62862.42460995408,14.864910711628909,129582.0,75825.0,4701.0
62862.43466060365,14.874961361194437,129603.0,75880.0,4730.0
62862.44471125322,14.885012010767241,129618.0,75895.0,4714.0
62862.45476190279,14.89506266033277,129603.0,75874.0,4708.0
62862.46481255235,14.905113309898297,129597.0,75884.0,4717.0
62862.474863201925,14.915163959471101,129605.0,75877.0,4721.0
62862.48491385149,14.92521460903663,129617.0,75872.0,4714.0
62862.494964501064,14.935265258609434,129586.0,75885.0,4714.0
62862.50501515063,14.945315908174962,129610.0,75895.0,4701.0
62862.515065800195,14.95536655774049,129604.0,75871.0,4727.0
62862.52511644977,14.965417207313294,129595.0,75894.0,4748.0
62862.53516709933,14.975467856878822,129619.0,75890.0,4715.0
62862.545217748906,14.985518506451626,129621.0,75910.0,4735.0
62862.55526839847,14.995569156017154,129600.0,75884.0,4719.0
62862.56531904804,15.005619805582683,129594.0,75858.0,4710.0
62862.57536969761,15.015670455155487,129621.0,75892.0,4699.0
62862.585420347175,15.025721104721015,129614.0,75860.0,4695.0
62862.59547099674,15.035771754286543,129624.0,75883.0,4724.0
62862.605521646314,15.045822403859347,129601.0,75871.0,4711.0
62862.61557229588,15.055873053424875,129604.0,75911.0,4732.0
62862.62562294545,15.06592370299768,129600.0,75884.0,4712.0
62862.63567359502,15.075974352563208,129619.0,75870.0,4717.0
62862.64572424458,15.086025002128736,129616.0,75880.0,4697.0
62862.655774894156,15.09607565170154,129622.0,75903.0,4744.0
62862.66582554372,15.106126301267068,129586.0,75880.0,4702.0
62862.675876193294,15.116176950839872,129616.0,75882.0,4718.0
62862.68592684286,15.1262276004054,129598.0,75881.0,4709.0
62862.695977492425,15.136278249970928,129589.0,75877.0,4703.0
62862.706028142,15.146328899543732,129637.0,75887.0,4746.0
62862.71607879156,15.15637954910926,129620.0,75882.0,4735.0
62862.72612944114,15.166430198682065,129607.0,75900.0,4728.0
62862.7361800907,15.176480848247593,129623.0,75873.0,4721.0
62862.74623074027,15.186531497813121,129606.0,75886.0,4727.0
62862.75628138984,15.196582147385925,129624.0,75888.0,4713.0
62862.766332039406,15.206632796951453,129633.0,75878.0,4726.0
62862.77638268898,15.216683446524257,129638.0,75874.0,4695.0
62862.786433338544,15.226734096089785,129644.0,75898.0,4740.0
62862.79648398811,15.236784745655314,129604.0,75871.0,4731.0
62862.80653463768,15.246835395228118,129630.0,75895.0,4727.0
62862.81658528725,15.256886044793646,129609.0,75891.0,4717.0
62862.82663593681,15.266936694359174,129663.0,75897.0,4751.0
62862.836686586386,15.276987343931978,129618.0,75869.0,4714.0
62862.84673723595,15.287037993497506,129629.0,75882.0,4722.0
62862.856787885525,15.29708864307031,129651.0,75874.0,4723.0
62862.86683853509,15.307139292635839,129627.0,75900.0,4746.0
62862.876889184656,15.317189942201367,129625.0,75885.0,4690.0
62862.88693983423,15.32724059177417,129646.0,75879.0,4728.0
62862.896990483794,15.337291241339699,129638.0,75882.0,4713.0
62862.90704113337,15.347341890912503,129662.0,75902.0,4735.0
62862.91709178293,15.357392540478031,129652.0,75875.0,4730.0
62862.9271424325,15.36744319004356,129657.0,75883.0,4734.0
62862.93719308207,15.377493839616363,129661.0,75906.0,4745.0
62862.947243731636,15.387544489181892,129618.0,75887.0,4702.0
62862.95729438121,15.397595138754696,129667.0,75891.0,4746.0
62862.967345030775,15.407645788320224,129650.0,75878.0,4730.0
62862.97739568034,15.417696437885752,129638.0,75871.0,4731.0
62862.98744632991,15.427747087458556,129650.0,75862.0,4728.0
62862.99749697948,15.437797737024084,129632.0,75893.0,4739.0
62863.00754762905,15.447848386596888,129651.0,75889.0,4718.0
62863.01759827862,15.457899036162416,129642.0,75873.0,4737.0
62863.02764892818,15.467949685727945,129668.0,75904.0,4727.0
62863.037699577755,15.478000335300749,129663.0,75881.0,4758.0
62863.04775022732,15.488050984866277,129653.0,75890.0,4738.0
62863.057800876886,15.498101634431805,129625.0,75882.0,4710.0
62863.06785152646,15.508152284004609,129670.0,75915.0,4731.0
62863.077902176025,15.518202933570137,129660.0,75874.0,4719.0
62863.0879528256,15.528253583142941,129638.0,75888.0,4735.0
62863.09800347516,15.53830423270847,129680.0,75898.0,4748.0
62863.10805412473,15.548354882273998,129657.0,75857.0,4728.0
62863.1181047743,15.558405531846802,129662.0,75865.0,4736.0
62863.12815542387,15.56845618141233,129684.0,75902.0,4729.0
62863.13820607344,15.578506830985134,129690.0,75916.0,4715.0
62863.148256723005,15.588557480550662,129669.0,75875.0,4702.0
62863.15830737257,15.59860813011619,129682.0,75889.0,4735.0
62863.16835802214,15.608658779688994,129677.0,75903.0,4743.0
62863.17840867171,15.618709429254523,129692.0,75894.0,4737.0
62863.18845932128,15.628760078827327,129684.0,75898.0,4725.0
62863.19850997085,15.638810728392855,129681.0,75905.0,4733.0
62863.20856062041,15.648861377958383,129662.0,75907.0,4762.0
62863.218611269986,15.658912027531187,129607.0,75868.0,4731.0
62863.22866191955,15.668962677096715,129609.0,75868.0,4710.0
62863.238712569124,15.67901332666952,129644.0,75901.0,4757.0
62863.24876321869,15.689063976235047,129602.0,75879.0,4713.0
62863.258813868255,15.699114625800576,129609.0,75874.0,4733.0
62863.26886451783,15.70916527537338,129596.0,75876.0,4706.0
62863.27891516739,15.719215924938908,129623.0,75896.0,4745.0
62863.28896581696,15.729266574504436,129614.0,75881.0,4718.0
62863.29901646653,15.73931722407724,129610.0,75867.0,4724.0
62863.3090671161,15.749367873642768,129589.0,75897.0,4714.0
62863.31911776567,15.759418523215572,129572.0,75875.0,4712.0
62863.329168415235,15.7694691727811,129640.0,75912.0,4705.0
62863.3392190648,15.779519822346629,129601.0,75881.0,4717.0
62863.349269714374,15.789570471919433,129592.0,75870.0,4717.0
62863.35932036394,15.799621121484961,129566.0,75857.0,4712.0
62863.36937101351,15.809671771057765,129581.0,75914.0,4744.0
62863.37942166308,15.819722420623293,129611.0,75890.0,4716.0
62863.38947231264,15.829773070188821,129649.0,75874.0,4731.0
62863.399522962216,15.839823719761625,129614.0,75884.0,4699.0
62863.40957361178,15.849874369327154,129612.0,75898.0,4738.0
62863.419624261354,15.859925018899958,129591.0,75880.0,4724.0
62863.42967491092,15.869975668465486,129566.0,75892.0,4717.0
62863.439725560485,15.880026318031014,129582.0,75879.0,4709.0
62863.44977621006,15.890076967603818,129609.0,75905.0,4732.0
62863.459826859624,15.900127617169346,129608.0,75883.0,4711.0
62863.4698775092,15.91017826674215,129576.0,75859.0,4718.0
62863.47992815876,15.920228916307678,129600.0,75851.0,4716.0
62863.48997880833,15.930279565873207,129604.0,75893.0,4745.0
62863.5000294579,15.94033021544601,129608.0,75878.0,4715.0
62863.510080107466,15.950380865011539,129553.0,75879.0,4707.0
62863.52013075703,15.960431514577067,129603.0,75875.0,4696.0
62863.530181406604,15.970482164149871,129596.0,75887.0,4730.0
62863.54023205617,15.9805328137154,129619.0,75880.0,4721.0
62863.55028270574,15.990583463288203,129584.0,75865.0,4715.0
62863.56033335531,16.00063411285373,129620.0,75917.0,4746.0
62863.57038400487,16.01068476241926,129558.0,75902.0,4731.0
62863.58043465445,16.020735411992064,129613.0,75883.0,4720.0
62863.59048530401,16.030786061557592,129607.0,75886.0,4750.0
62863.600535953585,16.040836711130396,129593.0,75872.0,4706.0
62863.61058660315,16.050887360695924,129600.0,75851.0,4711.0
62863.620637252716,16.060938010261452,129626.0,75898.0,4727.0
62863.63068790229,16.070988659834256,129589.0,75901.0,4730.0
62863.640738551854,16.081039309399785,129593.0,75875.0,4710.0
62863.65078920143,16.09108995897259,129617.0,75887.0,4727.0
62863.66083985099,16.101140608538117,129624.0,75895.0,4730.0
62863.67089050056,16.111191258103645,129591.0,75856.0,4723.0
62863.68094115013,16.12124190767645,129604.0,75869.0,4710.0
62863.690991799696,16.131292557241977,129642.0,75902.0,4736.0
62863.70104244927,16.14134320681478,129633.0,75886.0,4711.0
62863.711093098835,16.15139385638031,129604.0,75888.0,4734.0
62863.7211437484,16.161444505945838,129651.0,75894.0,4762.0
62863.73119439797,16.17149515551864,129645.0,75901.0,4747.0
62863.74124504754,16.18154580508417,129613.0,75891.0,4706.0
62863.751295697104,16.191596454649698,129625.0,75894.0,4708.0
62863.76134634668,16.201647104222502,129646.0,75902.0,4708.0
62863.77139699624,16.21169775378803,129621.0,75883.0,4732.0
62863.781447645815,16.221748403360834,129633.0,75878.0,4725.0
62863.79149829538,16.231799052926362,129646.0,75896.0,4725.0
62863.801548944946,16.24184970249189,129640.0,75874.0,4726.0
62863.81159959452,16.251900352064695,129617.0,75883.0,4694.0
62863.821650244085,16.261951001630223,129664.0,75922.0,4757.0
62863.83170089366,16.272001651203027,129648.0,75893.0,4727.0
62863.84175154322,16.282052300768555,129639.0,75903.0,4759.0
62863.85180219279,16.292102950334083,129624.0,75893.0,4718.0
62863.86185284236,16.302153599906887,129624.0,75915.0,4734.0
62863.87190349193,16.312204249472416,129658.0,75901.0,4730.0
62863.8819541415,16.32225489904522,129656.0,75860.0,4696.0
62863.892004791065,16.332305548610748,129640.0,75904.0,4704.0
62863.90205544063,16.342356198176276,129632.0,75869.0,4721.0
62863.9121060902,16.35240684774908,129650.0,75898.0,4735.0
62863.92215673977,16.362457497314608,129639.0,75878.0,4724.0
62863.93220738934,16.372508146887412,129656.0,75919.0,4753.0
62863.94225803891,16.38255879645294,129675.0,75892.0,4765.0
62863.95230868847,16.39260944601847,129658.0,75898.0,4735.0
62863.962359338046,16.402660095591273,129646.0,75890.0,4723.0
62863.97240998761,16.4127107451568,129673.0,75907.0,4755.0
62863.98246063718,16.42276139472233,129611.0,75875.0,4731.0
62863.99251128675,16.432812044295133,129661.0,75903.0,4726.0
62864.002561936315,16.44286269386066,129651.0,75925.0,4739.0
62864.01261258589,16.452913343433465,129636.0,75891.0,4755.0
62864.02266323545,16.462963992998993,129645.0,75857.0,4706.0
62864.03271388502,16.47301464256452,129651.0,75902.0,4736.0
62864.04276453459,16.483065292137326,129672.0,75911.0,4756.0
62864.05281518416,16.493115941702854,129635.0,75878.0,4738.0
62864.06286583373,16.503166591275658,129632.0,75897.0,4719.0
62864.072916483296,16.513217240841186,129651.0,75900.0,4733.0
62864.08296713286,16.523267890406714,129687.0,75911.0,4752.0
62864.093017782434,16.53331853997952,129644.0,75871.0,4738.0
62864.103068432,16.543369189545047,129696.0,75919.0,4740.0
62864.11311908157,16.55341983911785,129668.0,75907.0,4738.0
62864.12316973114,16.56347048868338,129678.0,75927.0,4753.0
62864.1332203807,16.573521138248907,129683.0,75911.0,4762.0
62864.143271030276,16.58357178782171,129656.0,75931.0,4753.0
62864.15332167984,16.59362243738724,129603.0,75888.0,4748.0
62864.163372329414,16.603673086960043,129614.0,75868.0,4723.0
62864.17342297898,16.61372373652557,129601.0,75869.0,4719.0
62864.183473628545,16.6237743860911,129638.0,75914.0,4745.0
62864.19352427812,16.633825035663904,129612.0,75891.0,4718.0
62864.203574927684,16.643875685229432,129595.0,75870.0,4750.0
62864.21362557725,16.65392633479496,129646.0,75897.0,4748.0
62864.22367622682,16.663976984367764,129612.0,75874.0,4704.0
62864.23372687639,16.674027633933292,129596.0,75894.0,4704.0
62864.24377752596,16.684078283506096,129610.0,75861.0,4719.0
62864.253828175526,16.694128933071624,129611.0,75896.0,4694.0
62864.26387882509,16.704179582637153,129631.0,75886.0,4766.0
62864.273929474664,16.714230232209957,129620.0,75886.0,4752.0
62864.28398012423,16.724280881775485,129619.0,75932.0,4719.0
62864.2940307738,16.73433153134829,129608.0,75877.0,4714.0
62864.30408142337,16.744382180913817,129600.0,75893.0,4743.0
62864.314132072934,16.754432830479345,129620.0,75914.0,4744.0
62864.32418272251,16.76448348005215,129604.0,75877.0,4733.0
62864.33423337207,16.774534129617678,129558.0,75907.0,4725.0
62864.344284021645,16.78458477919048,129580.0,75865.0,4735.0
62864.35433467121,16.79463542875601,129625.0,75917.0,4742.0
62864.364385320776,16.804686078321538,129591.0,75898.0,4727.0
62864.37443597035,16.814736727894342,129630.0,75880.0,4756.0
62864.384486619914,16.82478737745987,129618.0,75901.0,4707.0
62864.39453726949,16.834838027032674,129631.0,75909.0,4737.0
62864.40458791905,16.844888676598202,129602.0,75887.0,4726.0
62864.41463856862,16.85493932616373,129623.0,75892.0,4737.0
62864.42468921819,16.864989975736535,129624.0,75906.0,4739.0
62864.43473986776,16.875040625302063,129586.0,75864.0,4708.0
62864.44479051732,16.88509127486759,129611.0,75880.0,4725.0
62864.454841166895,16.895141924440395,129597.0,75858.0,4726.0
62864.46489181646,16.905192574005923,129614.0,75864.0,4726.0
62864.47494246603,16.915243223578727,129606.0,75880.0,4740.0
62864.4849931156,16.925293873144255,129612.0,75894.0,4725.0
62864.495043765164,16.935344522709784,129621.0,75876.0,4711.0
62864.50509441474,16.945395172282588,129629.0,75891.0,4741.0
62864.5151450643,16.955445821848116,129634.0,75912.0,4699.0
62864.525195713875,16.96549647142092,129616.0,75897.0,4726.0
62864.53524636344,16.975547120986448,129598.0,75882.0,4720.0
62864.545297013006,16.985597770551976,129605.0,75914.0,4680.0
62864.55534766258,16.99564842012478,129574.0,75894.0,4707.0
62864.565398312145,17.00569906969031,129610.0,75890.0,4725.0
62864.57544896172,17.015749719263113,129646.0,75889.0,4743.0
62864.58549961128,17.02580036882864,129644.0,75907.0,4707.0
62864.59555026085,17.03585101839417,129616.0,75893.0,4707.0
62864.60560091042,17.045901667966973,129625.0,75900.0,4713.0
62864.61565155999,17.0559523175325,129601.0,75887.0,4708.0
62864.62570220956,17.066002967105305,129623.0,75913.0,4700.0
62864.635752859125,17.076053616670833,129599.0,75886.0,4709.0
62864.64580350869,17.08610426623636,129627.0,75899.0,4724.0
62864.65585415826,17.096154915809166,129620.0,75876.0,4724.0
62864.66590480783,17.106205565374694,129666.0,75912.0,4740.0
62864.675955457395,17.116256214940222,129632.0,75921.0,4694.0
62864.68600610697,17.126306864513026,129614.0,75893.0,4702.0
62864.69605675653,17.136357514078554,129592.0,75890.0,4724.0
62864.706107406106,17.14640816365136,129627.0,75897.0,4723.0
62864.71615805567,17.156458813216886,129630.0,75887.0,4718.0
62864.72620870524,17.166509462782415,129628.0,75898.0,4730.0
62864.73625935481,17.17656011235522,129632.0,75910.0,4739.0
62864.746310004375,17.186610761920747,129652.0,75919.0,4709.0
62864.75636065395,17.19666141149355,129637.0,75881.0,4711.0
62864.76641130351,17.20671206105908,129622.0,75873.0,4712.0
62864.77646195308,17.216762710624607,129643.0,75895.0,4729.0
62864.78651260265,17.22681336019741,129629.0,75891.0,4723.0
62864.79656325222,17.23686400976294,129617.0,75906.0,4733.0
62864.80661390179,17.246914659335744,129643.0,75899.0,4702.0
62864.816664551356,17.256965308901272,129634.0,75892.0,4718.0
62864.82671520092,17.2670159584668,129623.0,75888.0,4743.0
62864.836765850494,17.277066608039604,129636.0,75914.0,4740.0
62864.84681650006,17.287117257605132,129643.0,75927.0,4746.0
62864.85686714963,17.297167907177936,129656.0,75902.0,4730.0
62864.8669177992,17.307218556743464,129674.0,75897.0,4763.0
62864.87696844876,17.317269206308993,129639.0,75882.0,4731.0
62864.887019098336,17.327319855881797,129674.0,75918.0,4750.0
62864.8970697479,17.337370505447325,129666.0,75902.0,4730.0
62864.90712039747,17.347421155012853,129632.0,75902.0,4731.0
62864.91717104704,17.357471804585657,129641.0,75887.0,4721.0
62864.927221696606,17.367522454151185,129662.0,75905.0,4763.0
62864.93727234618,17.37757310372399,129648.0,75903.0,4732.0
62864.947322995744,17.387623753289517,129661.0,75890.0,4725.0
62864.95737364531,17.397674402855046,129675.0,75888.0,4743.0
62864.96742429488,17.40772505242785,129639.0,75900.0,4735.0
62864.97747494445,17.417775701993378,129658.0,75905.0,4726.0
62864.98752559402,17.427826351566182,129661.0,75907.0,4737.0
62864.997576243586,17.43787700113171,129639.0,75887.0,4697.0
62865.00762689315,17.44792765069724,129657.0,75891.0,4736.0
62865.017677542724,17.457978300270042,129667.0,75908.0,4737.0
62865.02772819229,17.46802894983557,129659.0,75898.0,4748.0
62865.03777884186,17.478079599408375,129689.0,75922.0,4743.0
62865.04782949143,17.488130248973903,129638.0,75904.0,4707.0
62865.057880140994,17.49818089853943,129669.0,75905.0,4731.0
62865.06793079057,17.508231548112235,129675.0,75901.0,4754.0
62865.07798144013,17.518282197677763,129619.0,75875.0,4709.0
62865.088032089705,17.528332847250567,129654.0,75908.0,4733.0
62865.09808273927,17.538383496816095,129633.0,75889.0,4734.0
62865.108133388836,17.548434146381624,129637.0,75914.0,4751.0
62865.11818403841,17.558484795954428,129617.0,75884.0,4719.0
62865.128234687974,17.568535445519956,129630.0,75921.0,4740.0
62865.13828533754,17.578586095085484,129607.0,75891.0,4730.0
62865.14833598711,17.588636744658288,129570.0,75867.0,4735.0
62865.15838663668,17.598687394223816,129603.0,75867.0,4717.0
62865.16843728625,17.60873804379662,129623.0,75911.0,4737.0
62865.17848793582,17.61878869336215,129605.0,75890.0,4701.0
62865.18853858538,17.628839342927677,129596.0,75883.0,4756.0
62865.198589234955,17.63888999250048,129633.0,75901.0,4716.0
62865.20863988452,17.64894064206601,129623.0,75886.0,4743.0
62865.21869053409,17.658991291638813,129587.0,75880.0,4737.0
62865.22874118366,17.66904194120434,129575.0,75869.0,4737.0
62865.238791833224,17.67909259076987,129622.0,75896.0,4730.0
62865.2488424828,17.689143240342673,129589.0,75874.0,4707.0
62865.25889313236,17.6991938899082,129600.0,75904.0,4715.0
62865.268943781935,17.709244539481006,129607.0,75892.0,4719.0
62865.2789944315,17.719295189046534,129616.0,75922.0,4727.0
62865.28904508107,17.729345838612062,129587.0,75879.0,4702.0
62865.29909573064,17.739396488184866,129619.0,75907.0,4693.0
62865.309146380205,17.749447137750394,129599.0,75892.0,4715.0
62865.31919702978,17.7594977873232,129594.0,75891.0,4723.0
62865.32924767934,17.769548436888726,129595.0,75888.0,4725.0
62865.33929832891,17.779599086454255,129581.0,75868.0,4715.0
62865.34934897848,17.78964973602706,129587.0,75880.0,4712.0
62865.35939962805,17.799700385592587,129598.0,75879.0,4711.0
62865.36945027761,17.809751035158115,129605.0,75910.0,4707.0
62865.379500927185,17.81980168473092,129609.0,75901.0,4744.0
62865.38955157675,17.829852334296447,129608.0,75889.0,4722.0
62865.39960222632,17.83990298386925,129595.0,75875.0,4702.0
62865.40965287589,17.84995363343478,129640.0,75903.0,4737.0
62865.419703525455,17.860004283000308,129594.0,75892.0,4710.0
62865.42975417503,17.87005493257311,129605.0,75888.0,4711.0
62865.43980482459,17.88010558213864,129609.0,75902.0,4716.0
62865.449855474166,17.890156231711444,129600.0,75876.0,4700.0
62865.45990612373,17.900206881276972,129581.0,75888.0,4718.0
62865.4699567733,17.9102575308425,129614.0,75898.0,4721.0
62865.48000742287,17.920308180415304,129580.0,75884.0,4717.0
62865.490058072435,17.930358829980833,129573.0,75870.0,4700.0
62865.50010872201,17.940409479553637,129589.0,75890.0,4725.0
62865.51015937157,17.950460129119165,129607.0,75894.0,4723.0
62865.52021002114,17.960510778684693,129588.0,75908.0,4757.0
62865.53026067071,17.970561428257497,129594.0,75875.0,4705.0
62865.54031132028,17.980612077823025,129589.0,75881.0,4719.0
62865.55036196985,17.99066272739583,129616.0,75891.0,4728.0
62865.560412619416,18.000713376961357,129595.0,75888.0,4723.0
62865.57046326898,18.010764026526886,129614.0,75888.0,4705.0
62865.580513918554,18.02081467609969,129587.0,75886.0,4705.0
62865.59056456812,18.030865325665218,129621.0,75901.0,4726.0
62865.600615217685,18.040915975230746,129609.0,75879.0,4701.0
62865.61066586726,18.05096662480355,129632.0,75934.0,4733.0
62865.62071651682,18.061017274369078,129612.0,75906.0,4729.0
62865.630767166396,18.071067923941882,129618.0,75894.0,4725.0
62865.64081781596,18.08111857350741,129612.0,75885.0,4701.0
62865.65086846553,18.09116922307294,129624.0,75884.0,4724.0
62865.6609191151,18.101219872645743,129596.0,75863.0,4732.0
62865.670969764666,18.11127052221127,129635.0,75900.0,4703.0
62865.68102041424,18.121321171784075,129601.0,75895.0,4740.0
62865.691071063804,18.131371821349603,129652.0,75901.0,4731.0
62865.70112171337,18.14142247091513,129616.0,75879.0,4726.0
62865.71117236294,18.151473120487935,129635.0,75905.0,4724.0
62865.72122301251,18.161523770053464,129640.0,75882.0,4708.0
62865.73127366208,18.171574419626268,129614.0,75895.0,4739.0
62865.741324311646,18.181625069191796,129626.0,75898.0,4705.0
62865.75137496121,18.191675718757324,129679.0,75929.0,4756.0
62865.761425610784,18.201726368330128,129640.0,75927.0,4725.0
62865.77147626035,18.211777017895656,129625.0,75872.0,4737.0
62865.78152690992,18.22182766746846,129667.0,75891.0,4754.0
62865.79157755949,18.23187831703399,129663.0,75933.0,4733.0
62865.801628209054,18.241928966599517,129645.0,75898.0,4734.0
62865.81167885863,18.25197961617232,129631.0,75894.0,4717.0
62865.82172950819,18.26203026573785,129674.0,75918.0,4747.0
62865.83178015776,18.272080915303377,129639.0,75885.0,4736.0
62865.84183080733,18.28213156487618,129639.0,75899.0,4732.0
62865.851881456896,18.29218221444171,129660.0,75903.0,4755.0
62865.86193210647,18.302232864014513,129677.0,75919.0,4729.0
62865.871982756034,18.31228351358004,129651.0,75877.0,4707.0
62865.8820334056,18.32233416314557,129648.0,75894.0,4733.0
62865.89208405517,18.332384812718374,129652.0,75901.0,4749.0
62865.90213470474,18.342435462283902,129667.0,75886.0,4732.0
62865.91218535431,18.352486111856706,129636.0,75890.0,4706.0
62865.92223600388,18.362536761422234,129661.0,75901.0,4736.0
62865.93228665344,18.372587410987762,129688.0,75929.0,4734.0
62865.942337303015,18.382638060560566,129668.0,75878.0,4726.0
62865.95238795258,18.392688710126095,129678.0,75921.0,4724.0
62865.96243860215,18.4027393596989,129662.0,75911.0,4738.0
62865.97248925172,18.412790009264427,129687.0,75914.0,4731.0
62865.982539901284,18.422840658829955,129647.0,75892.0,4718.0
62865.99259055086,18.43289130840276,129689.0,75929.0,4723.0
62866.00264120042,18.442941957968287,129663.0,75905.0,4729.0
62866.012691849995,18.45299260754109,129626.0,75883.0,4758.0
62866.02274249956,18.46304325710662,129640.0,75890.0,4725.0
62866.03279314913,18.473093906672148,129641.0,75885.0,4749.0
62866.0428437987,18.48314455624495,129639.0,75886.0,4720.0
62866.052894448265,18.49319520581048,129568.0,75852.0,4708.0
62866.06294509783,18.503245855376008,129614.0,75905.0,4706.0
62866.0729957474,18.513296504948812,129621.0,75900.0,4746.0
62866.08304639697,18.52334715451434,129605.0,75894.0,4728.0
62866.09309704654,18.533397804087144,129586.0,75868.0,4714.0
62866.10314769611,18.543448453652672,129584.0,75906.0,4735.0
62866.11319834567,18.5534991032182,129588.0,75896.0,4697.0
62866.123248995245,18.563549752791005,129612.0,75897.0,4714.0
62866.13329964481,18.573600402356533,129615.0,75907.0,4706.0
62866.143350294384,18.583651051929337,129608.0,75908.0,4732.0
62866.15340094395,18.593701701494865,129572.0,75886.0,4707.0
62866.163451593515,18.603752351060393,129594.0,75890.0,4716.0
62866.17350224309,18.613803000633197,129572.0,75897.0,4725.0
62866.18355289265,18.623853650198726,129609.0,75912.0,4729.0
62866.193603542226,18.63390429977153,129559.0,75869.0,4721.0
62866.20365419179,18.643954949337058,129594.0,75896.0,4724.0
62866.21370484136,18.654005598902586,129574.0,75865.0,4713.0
62866.22375549093,18.66405624847539,129581.0,75896.0,4705.0
62866.233806140495,18.674106898040918,129571.0,75874.0,4696.0
62866.24385679007,18.684157547613722,129603.0,75892.0,4740.0
62866.25390743963,18.69420819717925,129582.0,75911.0,4723.0
62866.2639580892,18.70425884674478,129580.0,75872.0,4708.0
62866.27400873877,18.714309496317583,129631.0,75916.0,4727.0
62866.28405938834,18.72436014588311,129582.0,75886.0,4705.0
62866.2941100379,18.73441079544864,129585.0,75884.0,4713.0
62866.304160687476,18.744461445021443,129559.0,75896.0,4716.0
62866.31421133704,18.75451209458697,129615.0,75906.0,4733.0
62866.324261986614,18.764562744159775,129582.0,75893.0,4697.0
62866.33431263618,18.774613393725303,129602.0,75898.0,4723.0
62866.344363285745,18.78466404329083,129571.0,75859.0,4708.0
62866.35441393532,18.794714692863636,129613.0,75915.0,4729.0
62866.36446458488,18.804765342429164,129571.0,75916.0,4707.0
62866.374515234456,18.814815992001968,129582.0,75883.0,4721.0
62866.38456588402,18.824866641567496,129609.0,75888.0,4738.0
62866.39461653359,18.834917291133024,129580.0,75875.0,4719.0
62866.40466718316,18.84496794070583,129575.0,75874.0,4711.0
62866.414717832726,18.855018590271357,129602.0,75901.0,4725.0
62866.4247684823,18.86506923984416,129601.0,75917.0,4738.0
62866.434819131864,18.87511988940969,129571.0,75874.0,4711.0
62866.44486978143,18.885170538975217,129590.0,75935.0,4741.0
62866.454920431,18.89522118854802,129598.0,75891.0,4708.0
62866.46497108057,18.90527183811355,129605.0,75886.0,4712.0
62866.47502173014,18.915322487686353,129604.0,75915.0,4751.0
62866.485072379706,18.92537313725188,129567.0,75873.0,4707.0
62866.49512302927,18.93542378681741,129606.0,75896.0,4715.0
62866.505173678845,18.945474436390214,129609.0,75881.0,4725.0
62866.51522432841,18.955525085955742,129601.0,75895.0,4707.0
62866.525274977976,18.96557573552127,129587.0,75884.0,4714.0
62866.53532562755,18.975626385094074,129607.0,75901.0,4724.0
62866.545376277114,18.985677034659602,129587.0,75886.0,4713.0
62866.55542692669,18.995727684232406,129620.0,75906.0,4703.0
62866.56547757625,19.005778333797934,129612.0,75906.0,4751.0
62866.57552822582,19.015828983363463,129599.0,75901.0,4720.0
62866.58557887539,19.025879632936267,129616.0,75917.0,4728.0
62866.595629524956,19.035930282501795,129620.0,75888.0,4725.0
62866.60568017453,19.0459809320746,129594.0,75887.0,4699.0
62866.615730824094,19.056031581640127,129613.0,75896.0,4709.0
62866.62578147366,19.066082231205655,129621.0,75908.0,4690.0
62866.63583212323,19.07613288077846,129623.0,75915.0,4734.0
62866.6458827728,19.086183530343988,129598.0,75865.0,4707.0
62866.65593342237,19.09623417991679,129612.0,75894.0,4723.0
62866.66598407194,19.10628482948232,129653.0,75897.0,4726.0
62866.6760347215,19.116335479047848,129597.0,75893.0,4670.0
62866.686085371075,19.126386128620652,129633.0,75905.0,4699.0
62866.69613602064,19.13643677818618,129609.0,75905.0,4723.0
62866.70618667021,19.146487427758984,129604.0,75895.0,4741.0
62866.71623731978,19.156538077324512,129601.0,75892.0,4721.0
62866.726287969344,19.16658872689004,129587.0,75919.0,4720.0
62866.73633861892,19.176639376462845,129627.0,75899.0,4741.0
62866.74638926848,19.186690026028373,129629.0,75896.0,4728.0
62866.75643991805,19.1967406755939,129609.0,75892.0,4705.0
62866.76649056762,19.206791325166705,129646.0,75894.0,4722.0
62866.77654121719,19.216841974732233,129609.0,75885.0,4721.0
62866.78659186676,19.226892624305037,129640.0,75895.0,4722.0
62866.796642516325,19.236943273870565,129643.0,75920.0,4735.0
62866.80669316589,19.246993923436094,129655.0,75919.0,4733.0
62866.81674381546,19.257044573008898,129595.0,75867.0,4734.0
62866.82679446503,19.267095222574426,129632.0,75901.0,4727.0
62866.8368451146,19.27714587214723,129619.0,75888.0,4722.0
62866.84689576417,19.287196521712758,129638.0,75910.0,4748.0
62866.85694641373,19.297247171278286,129605.0,75907.0,4722.0
62866.866997063305,19.30729782085109,129635.0,75893.0,4730.0
62866.87704771287,19.31734847041662,129669.0,75889.0,4744.0
62866.887098362444,19.327399119989423,129635.0,75894.0,4711.0
62866.89714901201,19.33744976955495,129670.0,75920.0,4748.0
62866.907199661575,19.34750041912048,129636.0,75910.0,4731.0
62866.91725031115,19.357551068693283,129659.0,75926.0,4746.0
62866.92730096071,19.36760171825881,129639.0,75888.0,4706.0
62866.937351610286,19.377652367831615,129630.0,75915.0,4724.0
62866.94740225985,19.387703017397143,129586.0,75894.0,4752.0
62866.95745290942,19.39775366696267,129576.0,75873.0,4712.0
62866.96750355899,19.407804316535476,129561.0,75869.0,4711.0
62866.977554208555,19.417854966101004,129559.0,75861.0,4707.0
62866.98760485812,19.427905615666532,129567.0,75897.0,4719.0
62866.997655507694,19.437956265239336,129555.0,75889.0,4710.0
62867.00770615726,19.448006914804864,129593.0,75912.0,4728.0
62867.01775680683,19.45805756437767,129565.0,75887.0,4730.0
62867.0278074564,19.468108213943196,129567.0,75890.0,4712.0
62867.03785810596,19.478158863508725,129553.0,75863.0,4699.0
62867.047908755536,19.48820951308153,129583.0,75900.0,4696.0
62867.0579594051,19.498260162647057,129568.0,75887.0,4709.0
62867.068010054674,19.50831081221986,129576.0,75891.0,4708.0
62867.07806070424,19.51836146178539,129577.0,75871.0,4740.0
62867.088111353805,19.528412111350917,129576.0,75879.0,4725.0
62867.09816200338,19.53846276092372,129543.0,75856.0,4703.0
62867.10821265294,19.54851341048925,129553.0,75890.0,4708.0
62867.11826330252,19.558564060062054,129579.0,75907.0,4686.0
62867.12831395208,19.56861470962758,129570.0,75889.0,4736.0
62867.13836460165,19.57866535919311,129535.0,75860.0,4708.0
62867.14841525122,19.588716008765914,129568.0,75893.0,4701.0
62867.158465900786,19.598766658331442,129541.0,75906.0,4714.0
62867.16851655036,19.608817307904246,129537.0,75882.0,4706.0
62867.178567199924,19.618867957469774,129593.0,75907.0,4733.0
62867.18861784949,19.628918607035303,129563.0,75905.0,4727.0
62867.19866849906,19.638969256608107,129568.0,75910.0,4713.0
62867.20871914863,19.649019906173635,129544.0,75883.0,4689.0
62867.21876979819,19.659070555739163,129587.0,75903.0,4745.0
62867.228820447766,19.669121205311967,129577.0,75883.0,4739.0
62867.23887109733,19.679171854877495,129576.0,75899.0,4723.0
62867.248921746905,19.6892225044503,129562.0,75899.0,4702.0
62867.25897239647,19.699273154015827,129569.0,75896.0,4749.0
62867.269023046036,19.709323803581356,129546.0,75864.0,4693.0
62867.27907369561,19.71937445315416,129571.0,75905.0,4711.0
62867.289124345174,19.729425102719688,129577.0,75881.0,4697.0
62867.29917499475,19.739475752292492,129560.0,75877.0,4688.0
62867.30922564431,19.74952640185802,129568.0,75899.0,4706.0
62867.31927629388,19.75957705142355,129569.0,75893.0,4714.0
62867.32932694345,19.769627700996352,129555.0,75920.0,4740.0
62867.339377593016,19.77967835056188,129538.0,75876.0,4692.0
62867.34942824259,19.789729000134685,129533.0,75894.0,4683.0
62867.359478892155,19.799779649700213,129571.0,75897.0,4714.0
62867.36952954172,19.80983029926574,129569.0,75884.0,4742.0
62867.37958019129,19.819880948838545,129549.0,75862.0,4714.0
62867.38963084086,19.829931598404073,129599.0,75918.0,4728.0
62867.39968149043,19.839982247976877,129575.0,75899.0,4710.0
62867.40973214,19.850032897542405,129564.0,75871.0,4695.0
