timestamp,time_from_segment_start_sec,selected_channel_name,backup_channel_name,selected_channel_raw,selected_channel_clipped,selected_channel_detrended,selected_channel_filtered,selected_channel_filtered_z
63856.45534846585,0.0,PPG_1,PPG_2,188143.0,188143.0,-49.221871257264866,-20.550266646157638,-0.20743952669045518
63856.4653512358,0.010002769944549,PPG_1,PPG_2,188137.0,188137.0,-54.991139555640984,-20.119875992531057,-0.20314151030872984
63856.475354005735,0.0200055398818221,PPG_1,PPG_2,188165.0,188165.0,-26.760407853988,-19.56703102998208,-0.19762062669853084
63856.48535677568,0.0300083098263712,PPG_1,PPG_2,188132.0,188132.0,-59.52967615236412,-18.791369909557666,-0.18987463088249704
63856.495359545625,0.0400110797709203,PPG_1,PPG_2,188127.0,188127.0,-64.29894445074024,-17.706564327997064,-0.1790414212826904
63856.50536231556,0.0500138497081934,PPG_1,PPG_2,188155.0,188155.0,-36.068212749116356,-16.2457512788542,-0.164453282895044
63856.515365085506,0.0600166196527425,PPG_1,PPG_2,188160.0,188160.0,-30.83748104746337,-14.363970803481692,-0.14566123143711615
63856.52536785544,0.0700193895900156,PPG_1,PPG_2,188131.0,188131.0,-59.60674934583949,-12.03681211099145,-0.12242149307635773
63856.53537062539,0.0800221595345647,PPG_1,PPG_2,188184.0,188184.0,-6.376017644215608,-9.256835029383033,-0.09465976791598589
63856.545373395325,0.0900249294718378,PPG_1,PPG_2,188181.0,188181.0,-9.145285942591727,-6.029810579340173,-0.062433687182954445
63856.55537616527,0.1000276994163869,PPG_1,PPG_2,188160.0,188160.0,-29.91455424093874,-2.3732461441603014,-0.02591808511118428
63856.56537893521,0.11003046935366,PPG_1,PPG_2,188136.0,188136.0,-53.68382253931486,1.6800887979169103,0.01455979198691538
63856.57538170515,0.120033239298209,PPG_1,PPG_2,188148.0,188148.0,-41.45309083769098,6.074514379145529,0.05844390744631055
63856.58538447509,0.1300360092354822,PPG_1,PPG_2,188153.0,188153.0,-36.2223591360671,10.725823516601896,0.10489334286226003
63856.59538724503,0.1400387791800312,PPG_1,PPG_2,188176.0,188176.0,-12.991627434443217,15.524506139392214,0.1528144962369058
63856.60539001497,0.1500415491173043,PPG_1,PPG_2,188224.0,188224.0,35.23910426720977,20.34979867924685,0.2010013846095007
63856.615392784915,0.1600443190618534,PPG_1,PPG_2,188184.0,188184.0,-4.5301640311663505,25.090245589114286,0.24834097784561904
63856.62539555485,0.1700470889991265,PPG_1,PPG_2,188200.0,188200.0,11.70056767045753,29.66305247966096,0.2940064651428604
63856.6353983248,0.1800498589436756,PPG_1,PPG_2,188210.0,188210.0,21.931299372081412,34.02644770401278,0.3375807017025549
63856.645401094735,0.1900526288809487,PPG_1,PPG_2,188197.0,188197.0,9.162031073734397,38.18377792235112,0.37909710832546195
63856.65540386468,0.2000553988254978,PPG_1,PPG_2,188216.0,188216.0,28.39276277535828,42.18030232968308,0.4190076575623913
63856.66540663462,0.2100581687627709,PPG_1,PPG_2,188181.0,188181.0,-6.3765055230178405,46.093824633548614,0.4580893216982843
63856.67540940456,0.22006093870732,PPG_1,PPG_2,188216.0,188216.0,28.85422617860604,50.021129330319305,0.49730862114290575
63856.6854121745,0.2300637086445931,PPG_1,PPG_2,188194.0,188194.0,7.084957880259026,54.06339860184179,0.5376759929758046
63856.69541494444,0.2400664785891422,PPG_1,PPG_2,188196.0,188196.0,9.315689581882907,58.31386244918646,0.5801224612991361
63856.70541771439,0.2500692485336913,PPG_1,PPG_2,188252.0,188252.0,65.54642128350679,62.849933777141224,0.6254210957186919
63856.715420484325,0.2600720184709644,PPG_1,PPG_2,188227.0,188227.0,40.77715298513067,67.73001983462153,0.6741551693853518
63856.72542325427,0.2700747884155134,PPG_1,PPG_2,188206.0,188206.0,20.00788468675455,72.99237017697827,0.7267066543844913
63856.73542602421,0.2800775583527866,PPG_1,PPG_2,188242.0,188242.0,56.238616388407536,78.653062648628,0.7832361091253206
63856.74542879415,0.2900803282973356,PPG_1,PPG_2,188212.0,188212.0,26.469348090031417,84.70367831209262,0.8436594594512736
63856.75543156409,0.3000830982346087,PPG_1,PPG_2,188238.0,188238.0,52.7000797916553,91.11169723205028,0.9076519510639746
63856.76543433403,0.3100858681791578,PPG_1,PPG_2,188266.0,188266.0,80.93081149327918,97.82572831056598,0.9747003763021085
63856.77543710397,0.3200886381164309,PPG_1,PPG_2,188230.0,188230.0,45.161543194932165,104.78538826389249,1.044201728709701
63856.785439873915,0.33009140806098,PPG_1,PPG_2,188295.0,188295.0,110.39227489655605,111.93369303084933,1.1155869475360427
63856.79544264385,0.3400941779982531,PPG_1,PPG_2,188270.0,188270.0,85.62300659817993,119.2290117087296,1.1884402934979672
63856.8054454138,0.3500969479428022,PPG_1,PPG_2,188288.0,188288.0,103.85373829980381,126.65344180923158,1.2625829867187601
63856.815448183734,0.3600997178800753,PPG_1,PPG_2,188307.0,188307.0,123.0844700014568,134.2144259668542,1.338089351686488
63856.82545095368,0.3701024878246244,PPG_1,PPG_2,188280.0,188280.0,96.31520170308067,141.93737401792498,1.415213139015558
63856.835453723616,0.3801052577618975,PPG_1,PPG_2,188275.0,188275.0,91.54593340470456,149.84916032985413,1.4942227245882163
63856.84545649356,0.3901080277064466,PPG_1,PPG_2,188297.0,188297.0,113.77666510632844,157.9554735188623,1.5751749167145404
63856.8554592635,0.4001107976437197,PPG_1,PPG_2,188287.0,188287.0,104.00739680795232,166.21772305968508,1.6576843382763977
63856.86546203344,0.4101135675882688,PPG_1,PPG_2,188309.0,188309.0,126.2381285096053,174.5349608033468,1.7407428893200685
63856.87546480338,0.4201163375255419,PPG_1,PPG_2,188318.0,188318.0,135.46886021122918,182.73365033243638,1.8226175806215215
63856.88546757333,0.4301191074700909,PPG_1,PPG_2,188305.0,188305.0,122.69959191285307,190.56584691705794,1.900832358154315
63856.89547034327,0.44012187741464,PPG_1,PPG_2,188322.0,188322.0,139.93032361447695,197.71553737838542,1.9722314149603035
63856.905473113206,0.4501246473519131,PPG_1,PPG_2,188334.0,188334.0,152.16105531612993,203.81322644038815,2.0331248550439116
63856.91547588315,0.4601274172964622,PPG_1,PPG_2,188342.0,188342.0,160.3917870177538,208.45871208547635,2.079516135234169
63856.92547865309,0.4701301872337353,PPG_1,PPG_2,188339.0,188339.0,157.6225187193777,211.25023295217036,2.1073931402617663
63856.93548142303,0.4801329571782844,PPG_1,PPG_2,188370.0,188370.0,188.85325042100158,211.81631280424332,2.1130461916397945
63856.94548419297,0.4901357271155575,PPG_1,PPG_2,188307.0,188307.0,126.08398212262546,209.84612376149158,2.0933712644324074
63856.955486962914,0.5001384970601066,PPG_1,PPG_2,188369.0,188369.0,188.31471382427844,205.11500110344528,2.0461247861065153
63856.96548973285,0.5101412669973797,PPG_1,PPG_2,188294.0,188294.0,113.54544552590232,197.50337928564738,1.9701127375438212
63856.9754925028,0.5201440369419288,PPG_1,PPG_2,188298.0,188298.0,117.7761772275262,187.00894651364982,1.8653120324381403
63856.98549527273,0.5301468068792019,PPG_1,PPG_2,188325.0,188325.0,145.0069089291501,173.75294479777585,1.7329334316229887
63856.99549804268,0.540149576823751,PPG_1,PPG_2,188294.0,188294.0,114.23764063080307,157.98133591726648,1.5754331867561298
63857.005500812615,0.5501523467610241,PPG_1,PPG_2,188253.0,188253.0,73.46837233242695,140.05881666277702,1.39645327464954
63857.01550358256,0.5601551167055732,PPG_1,PPG_2,188248.0,188248.0,68.69910403405083,120.45206089166788,1.200654047164852
63857.0255063525,0.5701578866428463,PPG_1,PPG_2,188207.0,188207.0,27.929835735674715,99.7014887823474,0.9934323101114896
63857.03550912244,0.5801606565873954,PPG_1,PPG_2,188179.0,188179.0,0.16056743732769974,78.38460141292002,0.7805551708214601
63857.04551189238,0.5901634265246685,PPG_1,PPG_2,188157.0,188157.0,-21.60870086104842,57.07520902548942,0.5677528787780689
63857.05551466232,0.6001661964692175,PPG_1,PPG_2,188096.0,188096.0,-82.37796915942454,36.30335932930113,0.3603186570525819
63857.06551743226,0.6101689664064907,PPG_1,PPG_2,188135.0,188135.0,-43.14723745780066,16.52140704722355,0.16276986212766573
63857.075520202205,0.6201717363510397,PPG_1,PPG_2,188102.0,188102.0,-75.91650575617678,-1.9193142131209595,-0.02138497813184906
63857.08552297215,0.6301745062955888,PPG_1,PPG_2,188033.0,188033.0,-144.6857740545238,-18.780238253520494,-0.18976346666552266
63857.09552574209,0.6401772762328619,PPG_1,PPG_2,188084.0,188084.0,-93.45504235289991,-33.9372321243781,-0.34112597281134144
63857.10552851203,0.650180046177411,PPG_1,PPG_2,188035.0,188035.0,-142.22431065127603,-47.37274916550449,-0.47529727010399386
63857.11553128197,0.6601828161146841,PPG_1,PPG_2,188044.0,188044.0,-132.99357894965215,-59.15883373444392,-0.5929968161486274
63857.12553405191,0.6701855860592332,PPG_1,PPG_2,188035.0,188035.0,-141.76284724799916,-69.4338820453125,-0.6956066790511075
63857.13553682185,0.6801883559965063,PPG_1,PPG_2,188007.0,188007.0,-169.53211554637528,-78.37758090548643,-0.7849212677633369
63857.145539591795,0.6901911259410554,PPG_1,PPG_2,187993.0,187993.0,-183.3013838447514,-86.18742185808712,-0.8629127949261702
63857.15554236173,0.7001938958783285,PPG_1,PPG_2,188000.0,188000.0,-176.07065214312752,-93.05802641115145,-0.9315248121077704
63857.16554513168,0.7101966658228775,PPG_1,PPG_2,187991.0,187991.0,-184.83992044147453,-99.16296523714189,-0.9924906506138819
63857.175547901614,0.7201994357601507,PPG_1,PPG_2,187990.0,187990.0,-185.60918873985065,-104.63945743723043,-1.0471806235304262
63857.18555067156,0.7302022057046997,PPG_1,PPG_2,187976.0,187976.0,-199.37845703822677,-109.57814216416656,-1.0964998819336649
63857.195553441496,0.7402049756419729,PPG_1,PPG_2,187986.0,187986.0,-189.1477253366029,-114.02050538752756,-1.1408627177589652
63857.20555621144,0.7502077455865219,PPG_1,PPG_2,187970.0,187970.0,-204.916993634979,-117.96567185297317,-1.1802603904413056
63857.21555898138,0.760210515523795,PPG_1,PPG_2,187906.0,187906.0,-268.686261933326,-121.38699689672693,-1.2144268179911455
63857.22556175132,0.7702132854683441,PPG_1,PPG_2,187939.0,187939.0,-235.45553023170214,-124.25589844005157,-1.2430765707840226
63857.23556452126,0.7802160554056172,PPG_1,PPG_2,187911.0,187911.0,-263.22479853007826,-126.56613504805976,-1.2661473198888482
63857.2455672912,0.7902188253501663,PPG_1,PPG_2,187938.0,187938.0,-235.99406682845438,-128.35081266472636,-1.283969671670648
63857.25557006114,0.8002215952874394,PPG_1,PPG_2,187903.0,187903.0,-270.7633351268014,-129.68819257060346,-1.2973251678823228
63857.265572831086,0.8102243652319885,PPG_1,PPG_2,187918.0,187918.0,-255.5326034251775,-130.69623323328025,-1.3073917788673028
63857.27557560103,0.8202271351765376,PPG_1,PPG_2,187958.0,187958.0,-215.30187172355363,-131.517092654813,-1.3155891391285282
63857.28557837097,0.8302299051138107,PPG_1,PPG_2,187947.0,187947.0,-226.07114002192975,-132.2945090491493,-1.3233526636617032
63857.29558114091,0.8402326750583597,PPG_1,PPG_2,187905.0,187905.0,-267.84040832027677,-133.15033704444858,-1.3318992310946636
63857.30558391085,0.8502354449956329,PPG_1,PPG_2,187916.0,187916.0,-256.6096766186529,-134.16675265329104,-1.342049476925133
63857.315586680794,0.8602382149401819,PPG_1,PPG_2,187956.0,187956.0,-216.378944917029,-135.37592595085582,-1.3541246616381062
63857.32558945073,0.870240984877455,PPG_1,PPG_2,187919.0,187919.0,-253.14821321540512,-136.75615175146876,-1.3679080304253415
63857.335592220676,0.8802437548220041,PPG_1,PPG_2,187882.0,187882.0,-289.91748151378124,-138.23556109206973,-1.3826818772261533
63857.34559499061,0.8902465247592772,PPG_1,PPG_2,187924.0,187924.0,-247.68674981212826,-139.70474933740402,-1.397353652956125
63857.35559776056,0.9002492947038263,PPG_1,PPG_2,187859.0,187859.0,-312.4560181105044,-141.03550423351416,-1.4106429897373671
63857.365600530495,0.9102520646410994,PPG_1,PPG_2,187884.0,187884.0,-287.2252864088805,-142.10007988543754,-1.4212741768995365
63857.37560330044,0.9202548345856484,PPG_1,PPG_2,187901.0,187901.0,-269.9945547072566,-142.7860504841517,-1.4281244949671157
63857.38560607038,0.9302576045229216,PPG_1,PPG_2,187888.0,187888.0,-282.7638230056036,-143.00395556759656,-1.4303005636396473
63857.39560884032,0.9402603744674708,PPG_1,PPG_2,187912.0,187912.0,-258.53309130397975,-142.68859208837455,-1.4271512447860133
63857.40561161026,0.9502631444047438,PPG_1,PPG_2,187871.0,187871.0,-299.30235960235586,-141.79773525314042,-1.4182548683444134
63857.4156143802,0.9602659143492928,PPG_1,PPG_2,187873.0,187873.0,-297.071627900732,-140.31128592923093,-1.4034107180569153
63857.42561715014,0.970268684286566,PPG_1,PPG_2,187897.0,187897.0,-272.840896199079,-138.23048314677638,-1.3826311672679505
63857.435619920085,0.9802714542311152,PPG_1,PPG_2,187888.0,187888.0,-281.6101644974551,-135.5749096670812,-1.3561117755887155
63857.44562269002,0.9902742241683882,PPG_1,PPG_2,187895.0,187895.0,-274.37943279583124,-132.37667960123352,-1.3241732446291976
63857.45562545997,1.0002769941129372,PPG_1,PPG_2,187907.0,187907.0,-262.14870109420735,-128.67383858001585,-1.287195510019918
63857.46562822991,1.0102797640574863,PPG_1,PPG_2,187884.0,187884.0,-284.9179693925835,-124.5055458485222,-1.2455696282940332
63857.47563099985,1.0202825339947594,PPG_1,PPG_2,187924.0,187924.0,-244.6872376909305,-119.91060186659087,-1.1996830730423338
63857.48563376979,1.0302853039393085,PPG_1,PPG_2,187887.0,187887.0,-281.4565059893066,-114.92991058772151,-1.1499443240046505
63857.49563653973,1.0402880738765816,PPG_1,PPG_2,187860.0,187860.0,-308.2257742876827,-109.61240273677853,-1.0968420187832753
63857.505639309675,1.0502908438211307,PPG_1,PPG_2,187918.0,187918.0,-249.99504258605884,-104.0215969833184,-1.0410104747826372
63857.51564207961,1.0602936137584038,PPG_1,PPG_2,187898.0,187898.0,-269.76431088440586,-98.23790054859259,-0.9832526637941444
63857.52564484956,1.0702963837029529,PPG_1,PPG_2,187908.0,187908.0,-259.533579182782,-92.35367256004778,-0.924490913102144
63857.535647619494,1.080299153640226,PPG_1,PPG_2,187933.0,187933.0,-234.3028474811581,-86.46229187790577,-0.8656577333630786
63857.54565038944,1.090301923584775,PPG_1,PPG_2,187925.0,187925.0,-242.07211577953422,-80.64440636889789,-0.8075584995297771
63857.555653159376,1.1003046935220482,PPG_1,PPG_2,187954.0,187954.0,-212.84138407788123,-74.95475611915984,-0.7507398633126465
63857.56565592932,1.1103074634665973,PPG_1,PPG_2,187940.0,187940.0,-226.61065237625735,-69.41334756231669,-0.69540161524788
63857.57565869926,1.1203102334038704,PPG_1,PPG_2,187921.0,187921.0,-245.37992067463347,-64.00420507078556,-0.6413842176957053
63857.5856614692,1.1303130033484194,PPG_1,PPG_2,187942.0,187942.0,-224.1491889730096,-58.682315519134,-0.5882381554334496
63857.59566423914,1.1403157732856926,PPG_1,PPG_2,187950.0,187950.0,-215.9184572713857,-53.386195868662234,-0.5353494395064196
63857.60566700909,1.1503185432302416,PPG_1,PPG_2,187942.0,187942.0,-223.68772556973272,-48.05284630611884,-0.482088933972376
63857.61566977902,1.1603213131675147,PPG_1,PPG_2,187920.0,187920.0,-245.45699386810884,-42.63341261504446,-0.4279687652660144
63857.625672548966,1.1703240831120638,PPG_1,PPG_2,187911.0,187911.0,-254.22626216648496,-37.10747175465228,-0.3727849824810434
63857.6356753189,1.180326853049337,PPG_1,PPG_2,187963.0,187963.0,-201.99553046486108,-31.490964139374192,-0.3166967716076384
63857.64567808885,1.190329622993886,PPG_1,PPG_2,187957.0,187957.0,-207.7647987632081,-25.832625172327734,-0.2601908197037181
63857.655680858785,1.2003323929311591,PPG_1,PPG_2,187999.0,187999.0,-165.5340670615842,-20.198970998598867,-0.20393137790675409
63857.66568362873,1.2103351628757082,PPG_1,PPG_2,187991.0,187991.0,-173.30333535996033,-14.654161786339063,-0.14855916982783246
63857.675686398674,1.2203379328202573,PPG_1,PPG_2,187973.0,187973.0,-191.07260365833645,-9.243219915710416,-0.09452380311026608
63857.68568916861,1.2303407027575304,PPG_1,PPG_2,187964.0,187964.0,-199.84187195668346,-3.9841160562826192,-0.04200473851034759
63857.69569193856,1.2403434727020797,PPG_1,PPG_2,187993.0,187993.0,-170.61114025505958,1.1314442799344917,0.009080855336775738
63857.70569470849,1.2503462426393526,PPG_1,PPG_2,187980.0,187980.0,-183.3804085534357,6.132458595673616,0.05902255661019327
63857.71569747844,1.2603490125839016,PPG_1,PPG_2,187973.0,187973.0,-190.14967685181182,11.061559640763038,0.10824610935340587
63857.725700248375,1.2703517825211748,PPG_1,PPG_2,188001.0,188001.0,-161.91894515018794,15.967840567035982,0.15724177321548294
63857.73570301832,1.2803545524657238,PPG_1,PPG_2,188011.0,188011.0,-151.68821344853495,20.900454607289152,0.2065004078328847
63857.74570578826,1.290357322402997,PPG_1,PPG_2,187971.0,187971.0,-191.45748174691107,25.903014816285946,0.2564575468824014
63857.7557085582,1.300360092347546,PPG_1,PPG_2,188017.0,188017.0,-145.2267500452872,31.008010616307665,0.30743763994959256
63857.76571132814,1.3103628622848191,PPG_1,PPG_2,188002.0,188002.0,-159.9960183436633,36.231624944640544,0.359602294934106
63857.77571409808,1.3203656322293682,PPG_1,PPG_2,188012.0,188012.0,-149.76528664201032,41.57025037989993,0.4129154869918232
63857.78571686802,1.330368402166641,PPG_1,PPG_2,187985.0,187985.0,-176.53455494038644,46.99919732928556,0.46713065808664467
63857.795719637965,1.3403711721111904,PPG_1,PPG_2,187994.0,187994.0,-167.30382323876256,52.47454669020793,0.5218092182519676
63857.8057224079,1.3503739420484635,PPG_1,PPG_2,188039.0,188039.0,-122.07309153713868,57.94110811849772,0.5764000193590998
63857.81572517785,1.3603767119930126,PPG_1,PPG_2,188055.0,188055.0,-105.8423598354857,63.34848243997542,0.630399759409209
63857.825727947784,1.3703794819302857,PPG_1,PPG_2,188022.0,188022.0,-138.6116281338618,68.6720433360385,0.6835625122422282
63857.83573071773,1.3803822518748348,PPG_1,PPG_2,188073.0,188073.0,-87.38089643223793,73.93188729537788,0.7360889677125508
63857.845733487666,1.390385021812108,PPG_1,PPG_2,188065.0,188065.0,-95.15016473061405,79.204136091284,0.7887393017809035
63857.85573625761,1.400387791756657,PPG_1,PPG_2,188046.0,188046.0,-113.91943302899017,84.62158606966116,0.8428396605085924
63857.865739027555,1.410390561701206,PPG_1,PPG_2,188091.0,188091.0,-68.68870132733718,90.36192029477004,0.900164442838793
63857.87574179749,1.4203933316384791,PPG_1,PPG_2,188054.0,188054.0,-105.4579696257133,96.62328205830609,0.9626923699785296
63857.88574456744,1.4303961015830282,PPG_1,PPG_2,188047.0,188047.0,-112.22723792408942,103.58906623610272,1.032254880817134
63857.895747337374,1.440398871520301,PPG_1,PPG_2,188038.0,188038.0,-120.99650622246554,111.38630758551136,1.1101205843811823
63857.90575010732,1.4504016414648504,PPG_1,PPG_2,188052.0,188052.0,-106.76577452081256,120.04558688933363,1.1965948699823152
63857.915752877256,1.4604044114021235,PPG_1,PPG_2,188055.0,188055.0,-103.53504281918867,129.4720532576192,1.2907305268124147
63857.9257556472,1.4704071813466726,PPG_1,PPG_2,188094.0,188094.0,-64.3043111175648,139.43457084562056,1.3902193596568369
63857.93575841714,1.4804099512839457,PPG_1,PPG_2,188099.0,188099.0,-59.07357941594091,149.5749729675879,1.4914846033842537
63857.94576118708,1.4904127212284948,PPG_1,PPG_2,188127.0,188127.0,-30.84284771431703,159.43458335727422,1.5899457725923292
63857.95576395702,1.500415491165768,PPG_1,PPG_2,188123.0,188123.0,-34.612116012664046,168.49217010073227,1.6803976815133284
63857.96576672696,1.510418261110317,PPG_1,PPG_2,188147.0,188147.0,-10.381384311040165,176.20704273382276,1.7574408251795397
63857.9757694969,1.52042103104759,PPG_1,PPG_2,188156.0,188156.0,-1.1506526094162837,182.06205962389217,1.8159108646582098
63857.985772266846,1.5304238009921391,PPG_1,PPG_2,188116.0,188116.0,-40.9199209077924,185.60244860204114,1.8512663020905626
63857.99577503678,1.5404265709294125,PPG_1,PPG_2,188165.0,188165.0,8.310810793860583,186.4679309767948,1.8599092811920868
63858.00577780673,1.5504293408739611,PPG_1,PPG_2,188167.0,188167.0,10.541542495484464,184.41749162487977,1.8394329491667372
63858.015780576665,1.5604321108112345,PPG_1,PPG_2,188119.0,188119.0,-37.227725802891655,179.34583756612093,1.7887858172104243
63858.02578334661,1.5704348807557835,PPG_1,PPG_2,188131.0,188131.0,-24.996994101267774,171.28926604491417,1.7083303610175211
63858.03578611655,1.5804376506930566,PPG_1,PPG_2,188102.0,188102.0,-53.76626239961479,160.42052373520033,1.5997916831854704
63858.04578888649,1.5904404206376055,PPG_1,PPG_2,188108.0,188108.0,-47.53553069799091,147.03561209389443,1.466125747325738
63858.05579165643,1.6004431905748788,PPG_1,PPG_2,188087.0,188087.0,-68.30479899636703,131.53575251018688,1.311339276374588
63858.06579442637,1.610445960519428,PPG_1,PPG_2,188076.0,188076.0,-79.07406729474314,114.40555675562517,1.1402717558443962
63858.07579719632,1.620448730463977,PPG_1,PPG_2,188048.0,188048.0,-106.84333559311926,96.18699797460275,0.9583354999511663
63858.085799966255,1.63045150040125,PPG_1,PPG_2,188016.0,188016.0,-138.61260389146628,77.44916370222995,0.7712135957413518
63858.0958027362,1.6404542703457992,PPG_1,PPG_2,188015.0,188015.0,-139.3818721898424,58.75549531987991,0.5845327459950388
63858.10580550614,1.6504570402830725,PPG_1,PPG_2,187961.0,187961.0,-193.15114048821852,40.63181945673994,0.40354402075092577
63858.11580827608,1.6604598102276211,PPG_1,PPG_2,187989.0,187989.0,-164.92040878659463,23.538787108810382,0.2328476256835194
63858.12581104602,1.6704625801648945,PPG_1,PPG_2,187946.0,187946.0,-207.68967708494165,7.851366800420855,0.07618811436669522
63858.13581381596,1.6804653501094435,PPG_1,PPG_2,187947.0,187947.0,-206.45894538331777,-6.153769563229561,-0.06367158056871758
63858.1458165859,1.6904681200467166,PPG_1,PPG_2,187937.0,187937.0,-216.2282136816939,-18.30375171959761,-0.1850051223306363
63858.155819355845,1.7004708899912655,PPG_1,PPG_2,187908.0,187908.0,-244.99748198007,-28.529084479946086,-0.28711851011507794
63858.16582212578,1.7104736599285388,PPG_1,PPG_2,187909.0,187909.0,-243.76675027841702,-36.85786748317826,-0.3702923557506434
63858.17582489573,1.720476429873088,PPG_1,PPG_2,187921.0,187921.0,-231.53601857679314,-43.404490770981866,-0.43566899415779914
63858.185827665664,1.730479199810361,PPG_1,PPG_2,187894.0,187894.0,-258.30528687516926,-48.352890953336136,-0.48508527415337777
63858.19583043561,1.74048196975491,PPG_1,PPG_2,187916.0,187916.0,-236.07455517354538,-51.935960921728686,-0.5208669373731855
63858.205833205546,1.7504847396921832,PPG_1,PPG_2,187881.0,187881.0,-270.8438234719215,-54.413563192066306,-0.5456090526017149
63858.21583597549,1.7604875096367325,PPG_1,PPG_2,187914.0,187914.0,-237.6130917702685,-56.050843122315854,-0.5619594447451934
63858.22583874543,1.7704902795740054,PPG_1,PPG_2,187908.0,187908.0,-243.38236006864463,-57.09781011703684,-0.5724147863203866
63858.23584151537,1.7804930495185545,PPG_1,PPG_2,187914.0,187914.0,-237.15162836702075,-57.771899676503594,-0.5791464565946483
63858.24584428531,1.7904958194558276,PPG_1,PPG_2,187918.0,187918.0,-232.92089666539687,-58.24665473906956,-0.5838875099121906
63858.255847055254,1.8004985894003769,PPG_1,PPG_2,187891.0,187891.0,-259.6901649637439,-58.6497109360855,-0.5879125558162623
63858.2658498252,1.8105013593449255,PPG_1,PPG_2,187880.0,187880.0,-270.45943326212,-59.07093716110441,-0.5921190533326196
63858.275852595136,1.8205041292821988,PPG_1,PPG_2,187889.0,187889.0,-261.2287015604961,-59.577783985772335,-0.5971805850761465
63858.28585536508,1.830506899226748,PPG_1,PPG_2,187854.0,187854.0,-295.99796985887224,-60.2319421456202,-0.6037132141273917
63858.29585813502,1.840509669164021,PPG_1,PPG_2,187882.0,187882.0,-267.76723815721925,-61.100966635102786,-0.6123915659002378
63858.30586090496,1.85051243910857,PPG_1,PPG_2,187882.0,187882.0,-267.5365064555954,-62.260034789833306,-0.6239663849038358
63858.3158636749,1.8605152090458432,PPG_1,PPG_2,187925.0,187925.0,-224.3057747539715,-63.782183417832314,-0.6391670396658155
63858.32586644485,1.8705179789903923,PPG_1,PPG_2,187917.0,187917.0,-232.0750430523476,-65.72049301997963,-0.6585236087564462
63858.33586921478,1.8805207489276656,PPG_1,PPG_2,187900.0,187900.0,-248.84431135072373,-68.09022032490692,-0.6821884506645519
63858.345871984726,1.8905235188722145,PPG_1,PPG_2,187888.0,187888.0,-260.61357964907074,-70.8587406906538,-0.7098357654583447
63858.35587475466,1.9005262888094876,PPG_1,PPG_2,187874.0,187874.0,-274.38284794744686,-73.94604776718995,-0.7406665845724644
63858.36587752461,1.910529058754037,PPG_1,PPG_2,187884.0,187884.0,-264.152116245823,-77.23295765181788,-0.7734907000832136
63858.375880294545,1.9205318286913096,PPG_1,PPG_2,187883.0,187883.0,-264.9213845441991,-80.5723214909007,-0.8068386372746469
63858.38588306449,1.9305345986358589,PPG_1,PPG_2,187882.0,187882.0,-265.6906528425461,-83.80042449934082,-0.8390754888309315
63858.39588583443,1.940537368573132,PPG_1,PPG_2,187851.0,187851.0,-296.45992114092223,-86.74815071693656,-0.8685124096035188
63858.40588860437,1.950540138517681,PPG_1,PPG_2,187867.0,187867.0,-280.22918943929835,-89.25153362408447,-0.8935119783766554
63858.41589137431,1.9605429084549544,PPG_1,PPG_2,187894.0,187894.0,-252.99845773767447,-91.1597814251082,-0.9125683408698505
63858.42589414425,1.9705456783995032,PPG_1,PPG_2,187893.0,187893.0,-253.7677260360215,-92.33968889349035,-0.9243512678114436
63858.43589691419,1.9805484483367763,PPG_1,PPG_2,187844.0,187844.0,-302.5369943343976,-92.67886448757615,-0.9277383819306247
63858.445899684135,1.9905512182813256,PPG_1,PPG_2,187877.0,187877.0,-269.3062626327737,-92.0909191491588,-0.9218669749314632
63858.45590245408,2.0005539882258745,PPG_1,PPG_2,187896.0,187896.0,-250.07553093114984,-90.52202619799239,-0.9061995166619415
63858.46590522402,2.0105567581631476,PPG_1,PPG_2,187856.0,187856.0,-289.84479922952596,-87.9562029819419,-0.8805763993329014
63858.47590799396,2.0205595281076967,PPG_1,PPG_2,187875.0,187875.0,-270.614067527873,-84.41835845490192,-0.845246371589297
63858.4859107639,2.03056229804497,PPG_1,PPG_2,187898.0,187898.0,-247.3833358262491,-79.97461101845334,-0.8008697125769083
63858.49591353384,2.040565067989519,PPG_1,PPG_2,187912.0,187912.0,-233.1526041246252,-74.72858569285346,-0.74848125432768
63858.50591630378,2.050567837926792,PPG_1,PPG_2,187889.0,187889.0,-255.92187242300133,-68.81425786753519,-0.6894189172022859
63858.515919073725,2.060570607871341,PPG_1,PPG_2,187924.0,187924.0,-220.69114072134835,-62.38807333659558,-0.6252450180870601
63858.52592184366,2.070573377808614,PPG_1,PPG_2,187899.0,187899.0,-245.46040901972447,-55.62188929163118,-0.5576757769291024
63858.53592461361,2.0805761477531632,PPG_1,PPG_2,187936.0,187936.0,-208.22967731810058,-48.69601635717115,-0.4885118323145328
63858.545927383544,2.0905789176904364,PPG_1,PPG_2,187936.0,187936.0,-207.9989456164767,-41.791256701735364,-0.4195587315423039
63858.55593015349,2.1005816876349854,PPG_1,PPG_2,187943.0,187943.0,-200.76821391482372,-35.07997558193766,-0.3525377682565135
63858.565932923426,2.1105844575722585,PPG_1,PPG_2,187950.0,187950.0,-193.53748221319984,-28.717352479374433,-0.28899861354873607
63858.57593569337,2.1205872275168076,PPG_1,PPG_2,187955.0,187955.0,-188.30675051157596,-22.83387811014866,-0.23024438873619313
63858.58593846331,2.1305899974540807,PPG_1,PPG_2,187964.0,187964.0,-179.07601880995207,-17.529269833599297,-0.17727090272033227
63858.59594123325,2.14059276739863,PPG_1,PPG_2,187980.0,187980.0,-162.8452871083282,-12.867636906731523,-0.13071837069752615
63858.60594400319,2.150595537335903,PPG_1,PPG_2,187986.0,187986.0,-156.6145554066752,-8.874394173582608,-0.09084059329074547
63858.615946773134,2.160598307280452,PPG_1,PPG_2,187963.0,187963.0,-179.38382370505133,-5.536250420087191,-0.05750484025758231
63858.62594954307,2.170601077217725,PPG_1,PPG_2,187971.0,187971.0,-171.15309200342745,-2.8049013486906365,-0.030228729695808677
63858.635952313016,2.180603847162274,PPG_1,PPG_2,187993.0,187993.0,-148.92236030180356,-0.6026469810914351,-0.008236325193270631
63858.64595508296,2.1906066171068233,PPG_1,PPG_2,188002.0,188002.0,-139.69162860015058,1.1728295354376896,0.009494141509734693
63858.6559578529,2.2006093870440964,PPG_1,PPG_2,187966.0,187966.0,-175.4608968985267,2.6450787820534036,0.024196485360879847
63858.66596062284,2.2106121569886454,PPG_1,PPG_2,188024.0,188024.0,-117.23016519690282,3.9555018518083522,0.03728278213182281
63858.67596339278,2.2206149269259186,PPG_1,PPG_2,188013.0,188013.0,-127.99943349527894,5.258946988119094,0.05029939506553307
63858.68596616272,2.2306176968704676,PPG_1,PPG_2,187999.0,187999.0,-141.76870179362595,6.717053514572732,0.06486050526667544
63858.69596893266,2.2406204668077407,PPG_1,PPG_2,187975.0,187975.0,-165.53797009200207,8.487507612817602,0.08254081652164837
63858.705971702606,2.25062323675229,PPG_1,PPG_2,187989.0,187989.0,-151.3072383903782,10.710280632884102,0.10473812673877912
63858.71597447254,2.260626006689563,PPG_1,PPG_2,188003.0,188003.0,-137.0765066887543,13.496339380944656,0.13256058533241497
63858.72597724249,2.270628776634112,PPG_1,PPG_2,188065.0,188065.0,-74.84577498713043,16.923919059697063,0.16678947363380542
63858.735980012425,2.280631546571385,PPG_1,PPG_2,187994.0,187994.0,-145.61504328547744,21.04162914885187,0.2079102211901366
63858.74598278237,2.290634316515934,PPG_1,PPG_2,188047.0,188047.0,-92.38431158385356,25.87298695647098,0.25615767923354477
63858.75598555231,2.3006370864532073,PPG_1,PPG_2,188061.0,188061.0,-78.15357988222968,31.418191923390587,0.31153383944292423
63858.76598832225,2.3106398563977564,PPG_1,PPG_2,188015.0,188015.0,-123.9228481806058,37.65230564715454,0.3737896590907264
63858.77599109219,2.3206426263350295,PPG_1,PPG_2,188023.0,188023.0,-115.69211647895281,44.520599205772896,0.44237859795521356
63858.78599386213,2.3306453962795786,PPG_1,PPG_2,188071.0,188071.0,-67.46138477732893,51.93411476215315,0.5164122951068796
63858.79599663207,2.3406481662168517,PPG_1,PPG_2,188096.0,188096.0,-42.23065307570505,59.770093002189405,0.5946648374395948
63858.805999402015,2.3506509361614008,PPG_1,PPG_2,188106.0,188106.0,-31.99992137408117,67.87769436688448,0.6756298936933302
63858.81600217195,2.360653706098674,PPG_1,PPG_2,188089.0,188089.0,-48.76918967242818,76.08321477341265,0.7575728002845094
63858.8260049419,2.370656476043223,PPG_1,PPG_2,188091.0,188091.0,-46.5384579708043,84.18897945027591,0.8385195147961024
63858.83600771184,2.380659245987772,PPG_1,PPG_2,188085.0,188085.0,-52.30772626918042,91.96605394782003,0.9161838258369834
63858.84601048178,2.390662015925045,PPG_1,PPG_2,188080.0,188080.0,-57.07699456755654,99.14656139718737,0.987890630774384
63858.85601325172,2.400664785869594,PPG_1,PPG_2,188133.0,188133.0,-3.8462628659326583,105.42301815091146,1.0505693012319959
63858.86601602166,2.4106675558068673,PPG_1,PPG_2,188129.0,188129.0,-7.615531164279673,110.45944232447569,1.100864616478497
63858.876018791605,2.4206703257514164,PPG_1,PPG_2,188144.0,188144.0,7.615200537344208,113.9135805309599,1.1353587265878053
63858.88602156154,2.4306730956886895,PPG_1,PPG_2,188117.0,188117.0,-19.15406776103191,115.46548039002815,1.1508564864970148
63858.89602433149,2.4406758656332386,PPG_1,PPG_2,188142.0,188142.0,6.0766639405919705,114.84818357803786,1.144691966454665
63858.906027101424,2.4506786355705117,PPG_1,PPG_2,188156.0,188156.0,20.307395642244956,111.8791362993842,1.1150421268630222
63858.91602987137,2.4606814055150608,PPG_1,PPG_2,188183.0,188183.0,47.53812734386884,106.49076633705106,1.0612321703182916
63858.926032641306,2.470684175452334,PPG_1,PPG_2,188177.0,188177.0,41.76885904549272,98.75462808892335,0.9839766615344198
63858.93603541125,2.480686945396883,PPG_1,PPG_2,188160.0,188160.0,24.9995907471166,88.88995843484422,0.8854649689214873
63858.94603818119,2.490689715334156,PPG_1,PPG_2,188082.0,188082.0,-52.76967755125952,77.24915673380438,0.7692162632725614
63858.95604095113,2.500692485278705,PPG_1,PPG_2,188071.0,188071.0,-63.538945849606534,64.28055648926852,0.6397077439090737
63858.96604372107,2.5106952552159782,PPG_1,PPG_2,188053.0,188053.0,-81.30821414798265,50.478690398593294,0.5018779698276652
63858.976046491014,2.5206980251605273,PPG_1,PPG_2,188070.0,188070.0,-64.07748244635877,36.336738326366,0.36065199021161204
63858.98604926095,2.5307007950978004,PPG_1,PPG_2,188064.0,188064.0,-69.84675074473489,22.311588593838714,0.22059243548240148
63858.996052030896,2.5407035650423495,PPG_1,PPG_2,188059.0,188059.0,-74.6160190430819,8.803473849371562,0.08569615469950592
63859.00605480083,2.550706334979622,PPG_1,PPG_2,188048.0,188048.0,-85.38528734145802,-3.8537784049001527,-0.04070314574554864
63859.01605757078,2.5607091049241717,PPG_1,PPG_2,188021.0,188021.0,-112.15455563983414,-15.396789780098308,-0.15597528645538908
63859.026060340715,2.570711874861445,PPG_1,PPG_2,188020.0,188020.0,-112.92382393821026,-25.633529811089087,-0.2582025908309051
63859.03606311066,2.580714644805994,PPG_1,PPG_2,188050.0,188050.0,-82.69309223655728,-34.441126682067804,-0.3461580222886325
63859.04606588061,2.590717414750543,PPG_1,PPG_2,188013.0,188013.0,-119.4623605349334,-41.76085824438219,-0.41925516298991505
63859.05606865054,2.600720184687816,PPG_1,PPG_2,187999.0,187999.0,-133.23162883330951,-47.59276263877618,-0.47749439382021297
63859.066071420486,2.610722954632365,PPG_1,PPG_2,188014.0,188014.0,-118.00089713168563,-51.992102526167514,-0.5214275850860045
63859.07607419042,2.6207257245696383,PPG_1,PPG_2,187963.0,187963.0,-168.77016543006175,-55.066623603204356,-0.5521307191892122
63859.08607696037,2.6307284945141873,PPG_1,PPG_2,188026.0,188026.0,-105.53943372840877,-56.971170287308425,-0.5711501211652182
63859.096079730305,2.6407312644514604,PPG_1,PPG_2,188000.0,188000.0,-131.30870202678489,-57.896901225332826,-0.5803947613616826
63859.10608250025,2.6507340343960095,PPG_1,PPG_2,188019.0,188019.0,-112.077970325161,-58.05531661962646,-0.581976747294821
63859.11608527019,2.660736804333282,PPG_1,PPG_2,188019.0,188019.0,-111.84723862353712,-57.660324033469415,-0.5780322271439815
63859.12608804013,2.6707395742778317,PPG_1,PPG_2,188005.0,188005.0,-125.61650692188414,-56.91206860797355,-0.5705599132138413
63859.13609081007,2.680742344215105,PPG_1,PPG_2,188029.0,188029.0,-101.38577522026026,-55.9845118124762,-0.5612970394306034
63859.14609358001,2.690745114159654,PPG_1,PPG_2,188027.0,188027.0,-103.15504351863638,-55.01713555797124,-0.5516365160104971
63859.15609634995,2.700747884096927,PPG_1,PPG_2,188005.0,188005.0,-124.9243118170125,-54.11082581932592,-0.542585822017048
63859.166099119895,2.710750654041476,PPG_1,PPG_2,188041.0,188041.0,-88.69358011535951,-53.32792094799164,-0.5347674878269966
63859.17610188983,2.720753423978749,PPG_1,PPG_2,188029.0,188029.0,-100.46284841373563,-52.695735747321656,-0.5284542876543892
63859.18610465978,2.7307561939232983,PPG_1,PPG_2,188035.0,188035.0,-94.23211671211175,-52.21293248348702,-0.5236328624686273
63859.196107429714,2.7407589638605714,PPG_1,PPG_2,188016.0,188016.0,-113.00138501048787,-51.85891046797967,-0.5200974873174229
63859.20611019966,2.7507617338051205,PPG_1,PPG_2,188016.0,188016.0,-112.77065330886398,-51.60550216410875,-0.5175668723235216
63859.2161129696,2.7607645037423936,PPG_1,PPG_2,188045.0,188045.0,-83.539921607211,-51.42802186159588,-0.515794498222908
63859.22611573954,2.770767273686942,PPG_1,PPG_2,188032.0,188032.0,-96.30918990558712,-51.31246365049994,-0.5146404975954592
63859.236118509485,2.7807700436314917,PPG_1,PPG_2,188007.0,188007.0,-121.07845820396324,-51.257883130595204,-0.5140954393636018
63859.24612127942,2.790772813568765,PPG_1,PPG_2,188082.0,188082.0,-45.847726502339356,-51.27439823234416,-0.5142603643620067
63859.25612404937,2.800775583513314,PPG_1,PPG_2,188007.0,188007.0,-120.61699480068637,-51.37713664349812,-0.5152863424366962
63859.266126819304,2.810778353450587,PPG_1,PPG_2,188038.0,188038.0,-89.38626309906249,-51.57695619205104,-0.5172818032717137
63859.27612958925,2.820781123395136,PPG_1,PPG_2,188078.0,188078.0,-49.15553139743861,-51.8689181488684,-0.5201974271651878
63859.286132359186,2.830783893332409,PPG_1,PPG_2,188080.0,188080.0,-46.92479969581473,-52.21960666873781,-0.5236995129809022
63859.29613512913,2.8407866632769583,PPG_1,PPG_2,188048.0,188048.0,-78.69406799416174,-52.55727590552523,-0.5270715841425038
63859.30613789907,2.8507894332142314,PPG_1,PPG_2,188049.0,188049.0,-77.46333629253786,-52.770619927252895,-0.529202104618732
63859.31614066901,2.8607922031587805,PPG_1,PPG_2,188060.0,188060.0,-66.23260459091398,-52.71784557708767,-0.5286750833657522
63859.32614343895,2.8707949730960536,PPG_1,PPG_2,188087.0,188087.0,-39.0018728892901,-52.24282871579968,-0.5239314156438623
63859.336146208894,2.8807977430406027,PPG_1,PPG_2,188015.0,188015.0,-110.77114118766622,-51.1953288554394,-0.5134707527048624
63859.34614897883,2.890800512977876,PPG_1,PPG_2,188054.0,188054.0,-71.54040948601323,-49.45362034946254,-0.496077503971878
63859.356151748776,2.900803282922425,PPG_1,PPG_2,188037.0,188037.0,-88.30967778438935,-46.945522923364464,-0.4710308545302627
63859.36615451871,2.910806052859698,PPG_1,PPG_2,188038.0,188038.0,-87.07894608276547,-43.66108533765372,-0.43823142817379007
63859.37615728866,2.920808822804247,PPG_1,PPG_2,188114.0,188114.0,-10.848214381141588,-39.65179228948607,-0.39819336727502114
63859.386160058595,2.93081159274152,PPG_1,PPG_2,188105.0,188105.0,-19.617482679488603,-35.01651522235557,-0.35190403315382085
63859.39616282854,2.940814362686069,PPG_1,PPG_2,188076.0,188076.0,-48.38675097786472,-29.88042711810731,-0.30061344256121825
63859.40616559848,2.9508171326233423,PPG_1,PPG_2,188128.0,188128.0,3.8439807237591594,-24.3750183366298,-0.2456346995715647
63859.41616836842,2.9608199025678914,PPG_1,PPG_2,188119.0,188119.0,-4.925287574616959,-18.623621353063868,-0.18819944105728614
63859.426171138366,2.9708226725124405,PPG_1,PPG_2,188123.0,188123.0,-0.6945558729639743,-12.733388292717533,-0.1293777218302841
63859.4361739083,2.9808254424497136,PPG_1,PPG_2,188110.0,188110.0,-13.463824171340093,-6.794358693747916,-0.07006870502698213
63859.44617667825,2.9908282123942627,PPG_1,PPG_2,188118.0,188118.0,-5.233092469716212,-0.8849259027662956,-0.011055251253470235
63859.456179448185,3.000830982331536,PPG_1,PPG_2,188111.0,188111.0,-12.00236076809233,4.920193615202812,0.04691649737969687
63859.46618221813,3.010833752276085,PPG_1,PPG_2,188158.0,188158.0,35.22837093353155,10.544800132505385,0.10308558643500915
63859.47618498807,3.020836522213358,PPG_1,PPG_2,188141.0,188141.0,18.459102635184536,15.912176440447794,0.15668589374659922
63859.48618775801,3.030839292157907,PPG_1,PPG_2,188163.0,188163.0,40.68983433680842,20.95182182365097,0.20701337700530142
63859.49619052795,3.04084206209518,PPG_1,PPG_2,188175.0,188175.0,52.9205660384323,25.609259406049457,0.253524012999223
63859.50619329789,3.0508448320397292,PPG_1,PPG_2,188179.0,188179.0,57.15129774005618,29.856079170228433,0.295934090362364
63859.51619606783,3.0608476019770023,PPG_1,PPG_2,188182.0,188182.0,60.382029441709165,33.69775717484574,0.33429829473815176
63859.526198837775,3.0708503719215514,PPG_1,PPG_2,188196.0,188196.0,74.61276114333305,37.17719351528051,0.3690450399668112
63859.53620160771,3.0808531418588245,PPG_1,PPG_2,188161.0,188161.0,39.84349284495693,40.373061843578974,0.40095998587263376
63859.54620437766,3.0908559118033736,PPG_1,PPG_2,188213.0,188213.0,92.07422454658081,43.39380719603394,0.4311260986831055
63859.556207147594,3.1008586817406467,PPG_1,PPG_2,188218.0,188218.0,97.3049562482338,46.369097293939745,0.4608382810305395
63859.56620991754,3.110861451685196,PPG_1,PPG_2,188179.0,188179.0,58.535687949857675,49.43925075498452,0.4914977987472741
63859.57621268747,3.120864221622469,PPG_1,PPG_2,188220.0,188220.0,99.76641965148156,52.74165935126235,0.5244766892653465
63859.58621545742,3.130866991567018,PPG_1,PPG_2,188208.0,188208.0,87.99715135310544,56.39461502951506,0.5609562531558506
63859.59621822736,3.140869761504291,PPG_1,PPG_2,188213.0,188213.0,93.22788305472932,60.48092408513316,0.6017634201188148
63859.6062209973,3.15087253144884,PPG_1,PPG_2,188221.0,188221.0,101.4586147563823,65.03337757831191,0.6472256519908419
63859.61622376724,3.1608753013861133,PPG_1,PPG_2,188210.0,188210.0,90.68934645800618,70.02355566424454,0.6970591392665065
63859.626226537184,3.1708780713306624,PPG_1,PPG_2,188260.0,188260.0,140.92007815963007,75.3557376464077,0.7503079849757862
63859.63622930713,3.180880841275211,PPG_1,PPG_2,188242.0,188242.0,123.15080986125395,80.8669327756171,0.8053445122531153
63859.646232077066,3.1908836112124845,PPG_1,PPG_2,188207.0,188207.0,88.38154156290693,86.3322720945609,0.8599231089920879
63859.65623484701,3.2008863811570336,PPG_1,PPG_2,188293.0,188293.0,174.6122732645308,91.47517852727714,0.9112817895564508
63859.66623761695,3.2108891510943067,PPG_1,PPG_2,188249.0,188249.0,130.8430049661547,95.98338548147461,0.9563021615791208
63859.67624038689,3.220891921038856,PPG_1,PPG_2,188270.0,188270.0,152.07373666777858,99.53082250804435,0.9917279830389064
63859.68624315683,3.230894690976129,PPG_1,PPG_2,188294.0,188294.0,176.30446836943156,101.80272526410516,1.0144159182460413
63859.696245926774,3.240897460920678,PPG_1,PPG_2,188266.0,188266.0,148.53520007105544,102.52092749434681,1.021588111519663
63859.70624869671,3.250900230857951,PPG_1,PPG_2,188284.0,188284.0,166.76593177267932,101.46711104947644,1.0110643691818144
63859.716251466656,3.2609030008025,PPG_1,PPG_2,188296.0,188296.0,178.9966634743032,98.50231803248847,0.9814570139847031
63859.72625423659,3.2709057707397733,PPG_1,PPG_2,188263.0,188263.0,146.2273951759271,93.58142320236306,0.932315411084151
63859.73625700654,3.2809085406843224,PPG_1,PPG_2,188306.0,188306.0,189.45812687758007,86.76106177218458,0.8642051375241021
63859.746259776475,3.2909113106215955,PPG_1,PPG_2,188253.0,188253.0,136.68885857920395,78.1992489902701,0.7787041832541672
63859.75626254642,3.3009140805661445,PPG_1,PPG_2,188243.0,188243.0,126.91959028082783,68.14561656985265,0.6783054490467794
63859.76626531636,3.3109168505034177,PPG_1,PPG_2,188249.0,188249.0,133.15032198245171,56.92323884330285,0.5662352567594031
63859.7762680863,3.3209196204479667,PPG_1,PPG_2,188218.0,188218.0,102.3810536841047,44.905445013412894,0.44622178918563965
63859.78627085624,3.33092239038524,PPG_1,PPG_2,188248.0,188248.0,132.61178538572858,32.49120289984292,0.32224926440790164
63859.79627362618,3.340925160329789,PPG_1,PPG_2,188207.0,188207.0,91.84251708735246,20.08037147387795,0.19831079982890573
63859.80627639612,3.350927930267062,PPG_1,PPG_2,188173.0,188173.0,58.07324878897634,8.048364784973804,0.07815539817651064
63859.816279166065,3.360930700211611,PPG_1,PPG_2,188185.0,188185.0,70.30398049060022,-3.2789694791144934,-0.03496292309300887
63859.82628193601,3.37093347015616,PPG_1,PPG_2,188141.0,188141.0,26.53471219225321,-13.646233735857473,-0.13849368342363888
63859.83628470595,3.3809362400934333,PPG_1,PPG_2,188185.0,188185.0,70.76544389387709,-22.87983318928317,-0.23070331060468466
63859.84628747589,3.3909390100379824,PPG_1,PPG_2,188191.0,188191.0,76.99617559550097,-30.8872202024999,-0.3106675948372143
63859.85629024583,3.4009417799752555,PPG_1,PPG_2,188138.0,188138.0,24.226907297124853,-37.64637572712426,-0.37816664698129304
63859.86629301577,3.410944549919805,PPG_1,PPG_2,188176.0,188176.0,62.45763899877784,-43.19086876159318,-0.4335356976093888
63859.87629578571,3.4209473198570777,PPG_1,PPG_2,188174.0,188174.0,60.68837070040172,-47.59448826629682,-0.47751162647917056
63859.886298555655,3.4309500898016267,PPG_1,PPG_2,188145.0,188145.0,31.9191024020256,-50.95727085448662,-0.5110934306620294
63859.89630132559,3.4409528597389,PPG_1,PPG_2,188152.0,188152.0,39.14983410364948,-53.39457402509425,-0.5354331064106379
63859.90630409554,3.450955629683449,PPG_1,PPG_2,188164.0,188164.0,51.38056580530247,-55.02995960636145,-0.5517645809895964
63859.916306865474,3.460958399620722,PPG_1,PPG_2,188153.0,188153.0,40.61129750692635,-55.990993554103,-0.561361768140345
63859.92630963542,3.470961169565271,PPG_1,PPG_2,188157.0,188157.0,44.84202920855023,-56.40739431424934,-0.565520077047361
63859.93631240536,3.480963939502544,PPG_1,PPG_2,188135.0,188135.0,23.07276091017411,-56.41171437531743,-0.565563218535412
63859.9463151753,3.4909667094470933,PPG_1,PPG_2,188125.0,188125.0,13.303492611797992,-56.141284365506884,-0.5628626194343815
63859.95631794524,3.5009694793843664,PPG_1,PPG_2,188151.0,188151.0,39.53422431345098,-55.737619983856426,-0.5588315000073366
63859.96632071518,3.5109722493289155,PPG_1,PPG_2,188195.0,188195.0,83.76495601507486,-55.33931128399058,-0.5548538641024164
63859.97632348512,3.5209750192661886,PPG_1,PPG_2,188152.0,188152.0,40.99568771669874,-55.06863679798094,-0.5521508235851986
63859.986326255064,3.5309777892107377,PPG_1,PPG_2,188173.0,188173.0,62.22641941832262,-55.01720821550632,-0.551637241591486
63859.996329025,3.540980559148011,PPG_1,PPG_2,188171.0,188171.0,60.457151119975606,-55.23604810835664,-0.5538226455646442
63860.006331794946,3.55098332909256,PPG_1,PPG_2,188167.0,188167.0,56.68788282159949,-55.73182743391545,-0.5587736537824511
63860.01633456489,3.560986099037109,PPG_1,PPG_2,188175.0,188175.0,64.91861452322337,-56.468900495934136,-0.5661342971151787
63860.02633733483,3.570988868974382,PPG_1,PPG_2,188144.0,188144.0,34.14934622484725,-57.37661084943393,-0.5751989780889173
63860.03634010477,3.580991638918931,PPG_1,PPG_2,188168.0,188168.0,58.380077926500235,-58.36049411701861,-0.5850243457314345
63860.04634287471,3.590994408856204,PPG_1,PPG_2,188161.0,188161.0,51.610809628124116,-59.31468724748613,-0.594553218330135
63860.056345644654,3.6009971788007533,PPG_1,PPG_2,188136.0,188136.0,26.841541329747997,-60.132781030576425,-0.6027229600563586
63860.06634841459,3.6109999487380264,PPG_1,PPG_2,188193.0,188193.0,84.07227303137188,-60.71528135733857,-0.6085399914572223
63860.076351184536,3.621002718682575,PPG_1,PPG_2,188174.0,188174.0,65.30300473299576,-60.97310764552476,-0.611114725831508
63860.08635395447,3.6310054886198486,PPG_1,PPG_2,188154.0,188154.0,45.533736434648745,-60.828706576967235,-0.6096726913612676
63860.09635672442,3.6410082585643977,PPG_1,PPG_2,188189.0,188189.0,80.76446813627263,-60.21760253880766,-0.6035700143053964
63860.106359494355,3.651011028501671,PPG_1,PPG_2,188144.0,188144.0,35.99519983789651,-59.09138746483608,-0.5923232764952495
63860.1163622643,3.66101379844622,PPG_1,PPG_2,188183.0,188183.0,75.22593153952039,-57.42070830567443,-0.5756393491511536
63860.12636503424,3.671016568383493,PPG_1,PPG_2,188197.0,188197.0,89.45666324117337,-55.19647129726425,-0.5534274190861456
63860.13636780418,3.681019338328042,PPG_1,PPG_2,188174.0,188174.0,66.68739494279725,-52.42910219600874,-0.5257916011815207
63860.14637057412,3.691022108265315,PPG_1,PPG_2,188195.0,188195.0,87.91812664442114,-49.14764773852974,-0.49302196528146436
63860.15637334406,3.701024878209864,PPG_1,PPG_2,188181.0,188181.0,74.14885834604502,-45.40028343153222,-0.45559960714228803
63860.166376114,3.711027648147138,PPG_1,PPG_2,188178.0,188178.0,71.379590047698,-41.255496317904964,-0.41420845990657174
63860.176378883945,3.7210304180916864,PPG_1,PPG_2,188214.0,188214.0,107.61032174932188,-36.801547226503,-0.36972992396042315
63860.18638165388,3.73103318802896,PPG_1,PPG_2,188192.0,188192.0,85.84105345094576,-32.14210870255322,-0.3231993059350754
63860.19638442383,3.7410359579735086,PPG_1,PPG_2,188222.0,188222.0,116.07178515256965,-27.38773449118879,-0.2757206302874713
63860.20638719377,3.7510387279180577,PPG_1,PPG_2,188221.0,188221.0,115.30251685419353,-22.64447198772052,-0.2283529196484338
63860.21638996371,3.761041497855331,PPG_1,PPG_2,188245.0,188245.0,139.5332485558465,-18.001611918023517,-0.18198785927951205
63860.22639273365,3.77104426779988,PPG_1,PPG_2,188221.0,188221.0,115.7639802574704,-13.521011510511816,-0.13724317491153093
63860.23639550359,3.781047037737153,PPG_1,PPG_2,188250.0,188250.0,144.99471195909427,-9.230284559978566,-0.09439462658105832
63860.246398273535,3.791049807681702,PPG_1,PPG_2,188252.0,188252.0,147.22544366071816,-5.12083954331193,-0.053356416637128756
63860.25640104347,3.801052577618975,PPG_1,PPG_2,188246.0,188246.0,141.45617536237114,-1.150798532522045,-0.013710338924435468
63860.26640381342,3.811055347563524,PPG_1,PPG_2,188279.0,188279.0,174.68690706399502,2.7469471884231593,0.0252137752942652
63860.276406583354,3.8210581175007974,PPG_1,PPG_2,188204.0,188204.0,99.9176387656189,6.651479656516711,0.06420566410373924
63860.2864093533,3.8310608874453465,PPG_1,PPG_2,188255.0,188255.0,151.14837046724278,10.637469118239654,0.10401100806163519
63860.29641212323,3.841063657382619,PPG_1,PPG_2,188290.0,188290.0,186.37910216889577,14.76060758831117,0.14518596513648094
63860.30641489318,3.8510664273271686,PPG_1,PPG_2,188250.0,188250.0,146.60983387051965,19.049130353580548,0.18801250177991374
63860.31641766312,3.8610691972644418,PPG_1,PPG_2,188255.0,188255.0,151.84056557214353,23.50138802502164,0.23247414667455146
63860.32642043306,3.871071967208991,PPG_1,PPG_2,188290.0,188290.0,187.0712972737674,28.088036889498607,0.27827786427537055
63860.336423203,3.881074737146264,PPG_1,PPG_2,188253.0,188253.0,150.3020289753913,32.75982706412676,0.3249318297677455
63860.346425972944,3.891077507090813,PPG_1,PPG_2,188333.0,188333.0,230.53276067704428,37.46224536074841,0.37189165731581403
63860.35642874288,3.901080277028086,PPG_1,PPG_2,188337.0,188337.0,234.76349237866816,42.15499419187338,0.4187549225413575
63860.366431512826,3.911083046972635,PPG_1,PPG_2,188320.0,188320.0,217.99422408029204,46.83002563180854,0.4654412563281405
63860.37643428276,3.921085816909908,PPG_1,PPG_2,188314.0,188314.0,212.22495578191592,51.52001812159408,0.5122769958624761
63860.38643705271,3.9310885868544574,PPG_1,PPG_2,188310.0,188310.0,208.4556874835689,56.293154918989224,0.5599430405931307
63860.396439822645,3.9410913567917305,PPG_1,PPG_2,188345.0,188345.0,243.6864191851928,61.236765224062005,0.6093114873682414
63860.40644259259,3.95109412673628,PPG_1,PPG_2,188318.0,188318.0,216.91715088681667,66.43494824591839,0.6612221773306903
63860.416445362534,3.9610968966808286,PPG_1,PPG_2,188284.0,188284.0,183.14788258844055,71.94393657066476,0.7162366667648333
63860.42644813247,3.9710996666181018,PPG_1,PPG_2,188372.0,188372.0,271.37861429009354,77.7691346997455,0.7744089267212668
63860.436450902416,3.981102436562651,PPG_1,PPG_2,188314.0,188314.0,213.60934599171742,83.84908204271396,0.8351251924206107
63860.44645367235,3.991105206499924,PPG_1,PPG_2,188359.0,188359.0,258.8400776933413,90.04953074694642,0.8970448225991057
63860.4564564423,4.001107976444473,PPG_1,PPG_2,188365.0,188365.0,265.0708093949652,96.16720121534992,0.9581378032891761
63860.466459212235,4.011110746381746,PPG_1,PPG_2,188361.0,188361.0,261.30154109658906,101.94151513156605,1.015801917497972
63860.47646198218,4.021113516326295,PPG_1,PPG_2,188386.0,188386.0,286.53227279824205,107.07243595716388,1.0670409060213815
63860.48646475212,4.031116286263568,PPG_1,PPG_2,188387.0,188387.0,287.76300449986593,111.24210430249701,1.1086805250595597
63860.49646752206,4.041119056208117,PPG_1,PPG_2,188365.0,188365.0,265.9937362014898,114.13796315038384,1.1375994819711581
63860.506470292,4.0511218261453905,PPG_1,PPG_2,188393.0,188393.0,294.2244679031137,115.47590040854126,1.1509605440779356
63860.51647306194,4.06112459608994,PPG_1,PPG_2,188400.0,188400.0,301.4551996047667,115.02317549647059,1.1464394907695075
63860.52647583188,4.071127366027213,PPG_1,PPG_2,188397.0,188397.0,298.68593130639056,112.62056542048636,1.1224462711713001
63860.536478601825,4.081130135971762,PPG_1,PPG_2,188402.0,188402.0,303.91666300801444,108.2009074881562,1.0783101775207664
63860.54648137176,4.091132905909035,PPG_1,PPG_2,188377.0,188377.0,279.1473947096383,101.80012238136042,1.0143899250406072
63860.55648414171,4.101135675853584,PPG_1,PPG_2,188385.0,188385.0,287.3781264112913,93.55834482587667,0.9320849431607278
63860.566486911644,4.111138445790857,PPG_1,PPG_2,188366.0,188366.0,268.6088581129152,83.71109364168247,0.8337471968644246
63860.57648968159,4.121141215735406,PPG_1,PPG_2,188352.0,188352.0,254.83958981453907,72.57172372114903,0.7225059466255412
63860.586492451526,4.131143985672679,PPG_1,PPG_2,188344.0,188344.0,247.07032151616295,60.50687243727044,0.6020225485214068
63860.59649522147,4.141146755617228,PPG_1,PPG_2,188301.0,188301.0,204.30105321778683,47.90728832674711,0.47619914029065963
63860.606497991415,4.151149525561777,PPG_1,PPG_2,188313.0,188313.0,216.53178491943981,35.157659440124306,0.34887733775177926
63860.61650076135,4.1611522954990505,PPG_1,PPG_2,188265.0,188265.0,168.7625166210637,22.610185823883096,0.22357432130044727
63860.6265035313,4.1711550654436,PPG_1,PPG_2,188322.0,188322.0,225.99324832268758,10.566454606302141,0.10330183481849949
63860.636506301234,4.181157835380873,PPG_1,PPG_2,188296.0,188296.0,200.22398002431146,-0.7305509431031789,-0.009513614370862794
63860.64650907118,4.191160605325422,PPG_1,PPG_2,188275.0,188275.0,179.45471172596444,-11.097109141027167,-0.11303732377614178
63860.65651184112,4.201163375262695,PPG_1,PPG_2,188248.0,188248.0,152.68544342758832,-20.40727955982788,-0.20601161269129645
63860.66651461106,4.211166145207244,PPG_1,PPG_2,188285.0,188285.0,189.9161751292122,-28.59176838311023,-0.2877444912798635
63860.676517381,4.221168915144517,PPG_1,PPG_2,188246.0,188246.0,151.1469068308361,-35.63608739435019,-0.35809127565654597
63860.68652015094,4.231171685089066,PPG_1,PPG_2,188242.0,188242.0,147.37763853248907,-41.57722941185628,-0.4174213877354964
63860.69652292088,4.241174455026339,PPG_1,PPG_2,188216.0,188216.0,121.60837023411295,-46.49906883342563,-0.46657242362318674
63860.706525690824,4.251177224970888,PPG_1,PPG_2,188266.0,188266.0,171.83910193573684,-50.52510919150531,-0.5067777284240832
63860.71652846076,4.2611799949081615,PPG_1,PPG_2,188235.0,188235.0,141.06983363736072,-53.806592238792824,-0.539547649830956
63860.726531230706,4.2711827648527105,PPG_1,PPG_2,188238.0,188238.0,144.3005653389846,-56.506857329069334,-0.5665133459844764
63860.73653400064,4.281185534789984,PPG_1,PPG_2,188247.0,188247.0,153.53129704063758,-58.785220989860505,-0.589265801817554
63860.74653677059,4.291188304734533,PPG_1,PPG_2,188247.0,188247.0,153.76202874226146,-60.78293899090255,-0.609215641857519
63860.756539540525,4.301191074671806,PPG_1,PPG_2,188232.0,188232.0,138.99276044388535,-62.61272128024304,-0.627488423081527
63860.76654231047,4.311193844616355,PPG_1,PPG_2,188240.0,188240.0,147.22349214550923,-64.35300336855971,-0.6448674271592917
63860.77654508041,4.321196614553628,PPG_1,PPG_2,188226.0,188226.0,133.4542238471622,-66.04714062501847,-0.6617856144382108
63860.78654785035,4.331199384498177,PPG_1,PPG_2,188254.0,188254.0,161.6849555487861,-67.70642590653817,-0.6783557589379449
63860.796550620296,4.341202154442726,PPG_1,PPG_2,188208.0,188208.0,115.91568725040997,-69.31587846098132,-0.6944282581577074
63860.80655339023,4.351204924379999,PPG_1,PPG_2,188246.0,188246.0,154.14641895203386,-70.84222242310048,-0.7096708088452219
63860.81655616018,4.361207694324548,PPG_1,PPG_2,188246.0,188246.0,154.37715065365774,-72.24325349384753,-0.7236619456011831
63860.826558930115,4.3712104642618215,PPG_1,PPG_2,188200.0,188200.0,108.60788235531072,-73.4779203118442,-0.7359917166243395
63860.83656170006,4.3812132342063705,PPG_1,PPG_2,188207.0,188207.0,115.8386140569346,-74.51642126453478,-0.7463625136420976
63860.84656447,4.391216004143644,PPG_1,PPG_2,188248.0,188248.0,157.06934575855848,-75.34754458766587,-0.7546623724516495
63860.85656723994,4.401218774088193,PPG_1,PPG_2,188238.0,188238.0,147.30007746018237,-75.97960510514041,-0.7609743274986668
63860.86657000988,4.411221544025466,PPG_1,PPG_2,188233.0,188233.0,142.53080916183535,-76.43520355552303,-0.7655240768641168
63860.87657277982,4.421224313970015,PPG_1,PPG_2,188226.0,188226.0,135.76154086345923,-76.74379519432271,-0.7686057699902302
63860.88657554976,4.431227083907288,PPG_1,PPG_2,188239.0,188239.0,148.9922725650831,-76.93476796014434,-0.7705128840714689
63860.896578319705,4.441229853851837,PPG_1,PPG_2,188244.0,188244.0,154.223004266707,-77.03087952769569,-0.7714726844024663
63860.90658108964,4.45123262378911,PPG_1,PPG_2,188217.0,188217.0,127.45373596835998,-77.04165533161364,-0.7715802949682985
63860.91658385959,4.461235393733659,PPG_1,PPG_2,188279.0,188279.0,189.68446766998386,-76.95733857711454,-0.7707382813487242
63860.926586629525,4.471238163670932,PPG_1,PPG_2,188253.0,188253.0,163.91519937160774,-76.74473100974396,-0.7686151153372467
63860.93658939947,4.4812409336154815,PPG_1,PPG_2,188217.0,188217.0,128.14593107323162,-76.34740883080676,-0.7646473311404818
63860.946592169406,4.491243703552755,PPG_1,PPG_2,188252.0,188252.0,163.3766627748555,-75.69219706635799,-0.7581041804624392
63860.95659493935,4.501246473497304,PPG_1,PPG_2,188232.0,188232.0,143.6073944765085,-74.70000016338237,-0.7481957902431052
63860.96659770929,4.511249243434577,PPG_1,PPG_2,188259.0,188259.0,170.83812617813237,-73.2967766785615,-0.734182759350909
63860.97660047923,4.521252013379126,PPG_1,PPG_2,188259.0,188259.0,171.06885787975625,-71.42247449440481,-0.7154653884602334
63860.98660324917,4.531254783316399,PPG_1,PPG_2,188246.0,188246.0,158.29958958138013,-69.03856485733598,-0.6916589173244442
63860.996606019115,4.541257553260948,PPG_1,PPG_2,188231.0,188231.0,143.53032128303312,-66.13504408159456,-0.6626634459923832
63861.00660878906,4.551260323205497,PPG_1,PPG_2,188250.0,188250.0,162.761052984657,-62.73530612116807,-0.6287125938436181
63861.016611559,4.56126309314277,PPG_1,PPG_2,188288.0,188288.0,200.99178468628088,-58.895074408263596,-0.5903628325915881
63861.02661432894,4.571265863087319,PPG_1,PPG_2,188295.0,188295.0,208.22251638790476,-54.69364530925624,-0.5484060406816538
63861.03661709888,4.581268633024592,PPG_1,PPG_2,188270.0,188270.0,183.45324808955775,-50.22094846609455,-0.5037402837921485
63861.04661986882,4.5912714029691415,PPG_1,PPG_2,188294.0,188294.0,207.68397979118163,-45.56605674396748,-0.4572550715593146
63861.05662263876,4.601274172906415,PPG_1,PPG_2,188297.0,188297.0,210.9147114928055,-40.809656079768175,-0.4097561591165857
63861.066625408705,4.611276942850964,PPG_1,PPG_2,188293.0,188293.0,207.1454431944294,-36.01964770142076,-0.36192162947412493
63861.07662817864,4.621279712788237,PPG_1,PPG_2,188326.0,188326.0,240.37617489605327,-31.248884096876846,-0.3142792841934134
63861.08663094859,4.631282482732786,PPG_1,PPG_2,188297.0,188297.0,211.60690659770626,-26.53509035911721,-0.26720585791370777
63861.09663371853,4.641285252670059,PPG_1,PPG_2,188328.0,188328.0,242.83763829933014,-21.903299840903905,-0.22095134156616383
63861.10663648847,4.651288022614608,PPG_1,PPG_2,188303.0,188303.0,218.06837000095402,-17.37043601901885,-0.17568473831065856
63861.116639258405,4.661290792551881,PPG_1,PPG_2,188318.0,188318.0,233.2991017025779,-12.950381696581964,-0.13154468618389398
63861.12664202835,4.67129356249643,PPG_1,PPG_2,188348.0,188348.0,263.5298334042309,-8.657059038443512,-0.08867021630118661
63861.13664479829,4.681296332433703,PPG_1,PPG_2,188337.0,188337.0,252.76056510585477,-4.503992033585026,-0.04719638346844155
63861.14664756823,4.691299102378252,PPG_1,PPG_2,188343.0,188343.0,258.99129680747865,-0.5011979396135913,-0.007223223169544028
63861.15665033817,4.7013018723155255,PPG_1,PPG_2,188356.0,188356.0,272.22202850910253,3.348545429120498,0.031221524468060462
63861.166653108114,4.711304642260075,PPG_1,PPG_2,188352.0,188352.0,268.4527602107555,7.052993465339376,0.06821530723438682
63861.17665587805,4.721307412197348,PPG_1,PPG_2,188374.0,188374.0,290.6834919123794,10.633139285397968,0.1039677689895808
63861.186658648,4.731310182141897,PPG_1,PPG_2,188362.0,188362.0,278.9142236140033,14.124871637658114,0.1388373060581886
63861.19666141794,4.741312952086446,PPG_1,PPG_2,188402.0,188402.0,319.14495531562716,17.57857522190435,0.17332707589318352
63861.20666418788,4.751315722023719,PPG_1,PPG_2,188339.0,188339.0,256.37568701725104,21.055519146094603,0.20804893106961084
63861.21666695782,4.761318491968268,PPG_1,PPG_2,188372.0,188372.0,289.606418718904,24.621072042615065,0.24365566330234503
63861.22666972776,4.771321261905541,PPG_1,PPG_2,188415.0,188415.0,332.8371504205279,28.337359413883778,0.2807676773907602
63861.236672497704,4.78132403185009,PPG_1,PPG_2,188370.0,188370.0,288.0678821221518,32.25840774665632,0.3199244988174983
63861.24667526764,4.791326801787363,PPG_1,PPG_2,188399.0,188399.0,317.29861382377567,36.42782102246248,0.36156157065118644
63861.256678037586,4.801329571731912,PPG_1,PPG_2,188405.0,188405.0,323.52934552542865,40.87751907789573,0.4059976544156278
63861.26668080752,4.8113323416691856,PPG_1,PPG_2,188411.0,188411.0,329.76007722705253,45.62749896565612,0.45343244696614876
63861.27668357747,4.821335111613735,PPG_1,PPG_2,188439.0,188439.0,357.9908089286764,50.68672278908684,0.5039554466844152
63861.286686347405,4.831337881551008,PPG_1,PPG_2,188399.0,188399.0,318.2215406303003,56.053698218503484,0.557551750697011
63861.29668911735,4.841340651495557,PPG_1,PPG_2,188432.0,188432.0,351.4522723319533,61.715456596274805,0.6140918499114909
63861.30669188729,4.85134342143283,PPG_1,PPG_2,188456.0,188456.0,375.68300403357716,67.64569261465145,0.6733130512542941
63861.31669465723,4.861346191377379,PPG_1,PPG_2,188446.0,188446.0,365.91373573520104,73.8034363014227,0.734806215701985
63861.32669742717,4.871348961314652,PPG_1,PPG_2,188482.0,188482.0,402.1444674368249,80.13144272891634,0.7979996774090518
63861.33670019711,4.881351731259201,PPG_1,PPG_2,188422.0,188422.0,342.3751991384488,86.55200137939589,0.8621173947132293
63861.34670296705,4.891354501196474,PPG_1,PPG_2,188469.0,188469.0,389.6059308401018,92.9600216933776,0.9261099002470927
63861.356705736995,4.901357271141023,PPG_1,PPG_2,188483.0,188483.0,403.8366625417257,99.21687071241725,0.9885927617014837
63861.36670850693,4.9113600410782965,PPG_1,PPG_2,188470.0,188470.0,391.06739424334955,105.148996251982,1.0478328323969357
63861.37671127688,4.921362811022846,PPG_1,PPG_2,188502.0,188502.0,423.29812594497344,110.55236710980195,1.1017925926002718
63861.38671404682,4.931365580967395,PPG_1,PPG_2,188476.0,188476.0,397.5288576466264,115.20152713086735,1.14822056626426
63861.39671681676,4.941368350904668,PPG_1,PPG_2,188520.0,188520.0,441.7595893482503,118.86241607395704,1.1847793542316407
63861.4067195867,4.951371120849217,PPG_1,PPG_2,188510.0,188510.0,431.9903210498742,121.30846809869679,1.2092063987882482
63861.41672235664,4.96137389078649,PPG_1,PPG_2,188517.0,188517.0,439.22105275149806,122.3383985302014,1.2194916078868754
63861.426725126585,4.971376660731039,PPG_1,PPG_2,188498.0,188498.0,420.45178445315105,121.79314558192755,1.2140465405181533
63861.43672789652,4.981379430668312,PPG_1,PPG_2,188522.0,188522.0,444.68251615477493,119.57041902752314,1.191849694321733
63861.44673066647,4.991382200612861,PPG_1,PPG_2,188513.0,188513.0,435.9132478563988,115.63694579343748,1.1525687939240992
63861.4567334364,5.001384970550134,PPG_1,PPG_2,188531.0,188531.0,454.1439795580227,110.0381394957241,1.0966573539731808
63861.46673620635,5.011387740494683,PPG_1,PPG_2,188523.0,188523.0,446.3747112596466,102.90281024576173,1.025401712739042
63861.476738976286,5.0213905104319565,PPG_1,PPG_2,188484.0,188484.0,407.60544296129956,94.43932556058496,0.9408826937574354
63861.48674174623,5.031393280376506,PPG_1,PPG_2,188463.0,188463.0,386.83617466292344,84.92153168425186,0.8458350117186492
63861.49674451617,5.041396050313779,PPG_1,PPG_2,188486.0,188486.0,410.0669063645473,74.66732837708496,0.7434333135767929
63861.50674728611,5.051398820258328,PPG_1,PPG_2,188487.0,188487.0,411.2976380661712,64.01554322846462,0.6370612381666467
63861.51675005605,5.061401590195601,PPG_1,PPG_2,188472.0,188472.0,396.5283697678242,53.30394723814889,0.5300918728868312
63861.526752825994,5.07140436014015,PPG_1,PPG_2,188428.0,188428.0,352.75910146944807,42.84676256798347,0.42566313903683084
63861.53675559593,5.081407130077423,PPG_1,PPG_2,188439.0,188439.0,363.98983317107195,32.91035603648656,0.3264350594119655
63861.546758365876,5.091409900021972,PPG_1,PPG_2,188393.0,188393.0,318.22056487269583,23.690326783689258,0.23436094852085929
63861.55676113581,5.101412669959245,PPG_1,PPG_2,188435.0,188435.0,360.4512965743488,15.296102403289359,0.15053358471816014
63861.56676390576,5.111415439903794,PPG_1,PPG_2,188423.0,188423.0,348.6820282759727,7.747675154985591,0.07515261699477623
63861.5767666757,5.121418209848343,PPG_1,PPG_2,188408.0,188408.0,333.9127599775966,0.984789039851485,0.007616310000971322
63861.58676944564,5.1314209797856165,PPG_1,PPG_2,188414.0,188414.0,340.14349167922046,-5.1146495090297135,-0.053294601008642806
63861.596772215584,5.141423749730166,PPG_1,PPG_2,188424.0,188424.0,350.37422338084434,-10.710504538298409,-0.10917656866499505
63861.60677498552,5.151426519667439,PPG_1,PPG_2,188435.0,188435.0,361.6049550824973,-15.97362488783241,-0.16173574319789663
63861.616777755466,5.161429289611988,PPG_1,PPG_2,188397.0,188397.0,323.8356867841212,-21.060351505601048,-0.21253339446728656
63861.6267805254,5.171432059549261,PPG_1,PPG_2,188399.0,188399.0,326.0664184857451,-26.092675816586688,-0.2627877671970829
63861.63678329535,5.18143482949381,PPG_1,PPG_2,188411.0,188411.0,338.29715018736897,-31.14556264084822,-0.31324748364929644
63861.646786065285,5.191437599431083,PPG_1,PPG_2,188413.0,188413.0,340.52788188902196,-36.240217934338,-0.3641243131672095
63861.65678883523,5.201440369375632,PPG_1,PPG_2,188393.0,188393.0,320.75861359064584,-41.342935081663306,-0.415081650892167
63861.66679160517,5.211443139312905,PPG_1,PPG_2,188404.0,188404.0,331.9893452922697,-46.37101496010264,-0.46529363738410845
63861.67679437511,5.221445909257454,PPG_1,PPG_2,188371.0,188371.0,299.2200769938936,-51.206517202196025,-0.5135824830531849
63861.68679714505,5.2314486791947274,PPG_1,PPG_2,188373.0,188373.0,301.4508086955175,-55.71607020553708,-0.5586162971457999
63861.69679991499,5.2414514491392765,PPG_1,PPG_2,188374.0,188374.0,302.68154039717047,-59.77284347023623,-0.5991285104146091
63861.70680268493,5.25145421907655,PPG_1,PPG_2,188366.0,188366.0,294.91227209879435,-63.27617677333012,-0.634113898225576
63861.716805454875,5.261456989021099,PPG_1,PPG_2,188370.0,188370.0,299.1430038004182,-66.16554224050783,-0.6629680101958975
63861.72680822481,5.271459758958372,PPG_1,PPG_2,188391.0,188391.0,320.3737355020421,-68.42746586260833,-0.6855562906338698
63861.73681099476,5.281462528902921,PPG_1,PPG_2,188357.0,188357.0,286.6044672036951,-70.09576726547976,-0.7022164729560862
63861.746813764694,5.291465298840194,PPG_1,PPG_2,188378.0,188378.0,307.835198905319,-71.24644960342793,-0.7137075485567991
63861.75681653464,5.301468068784743,PPG_1,PPG_2,188359.0,188359.0,289.06593060694286,-71.9879264080008,-0.7211121690472072
63861.766819304576,5.311470838722016,PPG_1,PPG_2,188396.0,188396.0,326.29666230856674,-72.44601823331716,-0.7256868180386614
63861.77682207452,5.321473608666565,PPG_1,PPG_2,188414.0,188414.0,344.5273940102197,-72.74403749916746,-0.7286629321245535
63861.786824844465,5.331476378611114,PPG_1,PPG_2,188407.0,188407.0,337.7581257118436,-72.98177414715437,-0.7310370450356362
63861.7968276144,5.3414791485483875,PPG_1,PPG_2,188391.0,188391.0,321.9888574134675,-73.22003227680064,-0.7334163656265228
63861.80683038435,5.3514819184929365,PPG_1,PPG_2,188398.0,188398.0,329.21958911509137,-73.4758836738449,-0.7359713781169606
63861.81683315429,5.36148468843021,PPG_1,PPG_2,188362.0,188362.0,293.45032081671525,-73.72876757101581,-0.7384967562206823
63861.82683592423,5.371487458374759,PPG_1,PPG_2,188395.0,188395.0,326.68105251836823,-73.93315761249653,-0.7405378594350376
63861.836838694166,5.381490228312032,PPG_1,PPG_2,188379.0,188379.0,310.9117842199921,-74.03213759598036,-0.7415263046693653
63861.84684146411,5.391492998256581,PPG_1,PPG_2,188404.0,188404.0,336.142515921616,-73.96775797035632,-0.740883389486961
63861.85684423405,5.401495768193854,PPG_1,PPG_2,188425.0,188425.0,357.3732476232399,-73.68730655641198,-0.7380827134935259
63861.86684700399,5.411498538138403,PPG_1,PPG_2,188361.0,188361.0,293.60397932489286,-73.14752513948201,-0.7326922865570507
63861.87684977393,5.421501308075676,PPG_1,PPG_2,188390.0,188390.0,322.83471102651674,-72.31865593777735,-0.7244149381127576
63861.886852543874,5.431504078020225,PPG_1,PPG_2,188426.0,188426.0,359.0654427281406,-71.18675579167054,-0.7131114273848845
63861.89685531381,5.441506847957498,PPG_1,PPG_2,188420.0,188420.0,353.2961744297645,-69.75126751531772,-0.6987761901404157
63861.90685808376,5.4515096179020475,PPG_1,PPG_2,188415.0,188415.0,348.5269061314175,-68.01874534225038,-0.6814746790160443
63861.91686085369,5.461512387839321,PPG_1,PPG_2,188429.0,188429.0,362.7576378330414,-65.99714817639267,-0.6612863741286323
63861.92686362364,5.47151515778387,PPG_1,PPG_2,188438.0,188438.0,371.98836953466525,-63.693763511441716,-0.6382840506814239
63861.936866393575,5.481517927721143,PPG_1,PPG_2,188406.0,188406.0,340.21910123628913,-61.117277632950774,-0.6125544526529175
63861.94686916352,5.491520697665692,PPG_1,PPG_2,188437.0,188437.0,371.449832937913,-58.28320997042585,-0.5842525619454614
63861.95687193346,5.501523467602965,PPG_1,PPG_2,188418.0,188418.0,352.680564639566,-55.22043027804907,-0.5536666810009546
63861.9668747034,5.511526237547514,PPG_1,PPG_2,188425.0,188425.0,359.9112963411899,-51.9753541345088,-0.5212603303812144
63861.976877473346,5.521529007492063,PPG_1,PPG_2,188460.0,188460.0,395.14202804281376,-48.61096625529361,-0.4876624952574734
63861.98688024328,5.531531777429336,PPG_1,PPG_2,188462.0,188462.0,397.37275974443764,-45.19981228687267,-0.45359763926368823
63861.99688301323,5.541534547373885,PPG_1,PPG_2,188478.0,188478.0,413.60349144609063,-41.81319947706817,-0.41977785899557507
63862.006885783165,5.551537317311158,PPG_1,PPG_2,188463.0,188463.0,398.8342231477145,-38.511253913076985,-0.3868035924634942
63862.01688855311,5.5615400872557075,PPG_1,PPG_2,188446.0,188446.0,382.0649548493384,-35.33747378566066,-0.3551092262762003
63862.02689132305,5.571542857192981,PPG_1,PPG_2,188474.0,188474.0,410.2956865509623,-32.31740241928492,-0.32494984410261657
63862.03689409299,5.58154562713753,PPG_1,PPG_2,188510.0,188510.0,446.52641825261526,-29.45809577625736,-0.296395909000738
63862.04689686293,5.591548397074803,PPG_1,PPG_2,188463.0,188463.0,399.75714995423914,-26.746644024161714,-0.2693184993252107
63862.05689963287,5.601551167019352,PPG_1,PPG_2,188491.0,188491.0,427.987881655863,-24.149448923887824,-0.24338209249701065
63862.06690240281,5.611553936956625,PPG_1,PPG_2,188504.0,188504.0,441.2186133574869,-21.613867198392345,-0.2180609762005626
63862.076905172755,5.621556706901174,PPG_1,PPG_2,188521.0,188521.0,458.4493450591108,-19.071847256261222,-0.19267556584861892
63862.08690794269,5.631559476838447,PPG_1,PPG_2,188487.0,188487.0,424.68007676076377,-16.445945888175107,-0.16645248920480948
63862.09691071264,5.641562246782996,PPG_1,PPG_2,188494.0,188494.0,431.91080846238765,-13.65910001861223,-0.13862217016838085
63862.106913482574,5.651565016720269,PPG_1,PPG_2,188515.0,188515.0,453.14154016401153,-10.646955986497481,-0.10854195284707749
63862.11691625252,5.661567786664818,PPG_1,PPG_2,188523.0,188523.0,461.3722718656354,-7.3689573445548655,-0.07580682780747416
63862.126919022456,5.6715705566020915,PPG_1,PPG_2,188500.0,188500.0,438.6030035672884,-3.8157432339840276,-0.040323314570541155
63862.1369217924,5.681573326546641,PPG_1,PPG_2,188519.0,188519.0,457.8337352689123,-0.012602112784663815,-0.002343951628542181
63862.14692456234,5.691576096483914,PPG_1,PPG_2,188537.0,188537.0,476.06446697053616,3.9817838817228792,0.03754524274560658
63862.15692733228,5.701578866428463,PPG_1,PPG_2,188538.0,188538.0,477.29519867216004,8.082657530191927,0.07849785631188108
63862.16693010223,5.711581636373012,PPG_1,PPG_2,188567.0,188567.0,506.525930373813,12.191876523951167,0.11953380911999589
63862.17693287216,5.721584406310285,PPG_1,PPG_2,188568.0,188568.0,507.7566620754369,16.212624989526365,0.15968626741857422
63862.18693564211,5.731587176254834,PPG_1,PPG_2,188562.0,188562.0,501.9873937770608,20.06182020772299,0.19812554105257335
63862.196938412046,5.741589946192107,PPG_1,PPG_2,188563.0,188563.0,503.21812547868467,23.676975549543517,0.23422761889905847
63862.20694118199,5.751592716136656,PPG_1,PPG_2,188538.0,188538.0,478.44885718030855,27.017312046052442,0.2675852693533518
63862.21694395193,5.761595486073929,PPG_1,PPG_2,188578.0,188578.0,518.6795888819615,30.06242884681842,0.29799476310902867
63862.22694672187,5.771598256018478,PPG_1,PPG_2,188586.0,188586.0,526.9103205835854,32.81298248075274,0.3254626564702094
63862.23694949181,5.7816010259557515,PPG_1,PPG_2,188582.0,188582.0,523.1410522852093,35.29515879504749,0.3502504495397719
63862.246952261754,5.791603795900301,PPG_1,PPG_2,188618.0,188618.0,559.3717839868332,37.56671418550558,0.3729349158447864
63862.25695503169,5.801606565837574,PPG_1,PPG_2,188611.0,188611.0,552.6025156884862,39.720397703342684,0.39444227657094877
63862.26695780163,5.811609335782123,PPG_1,PPG_2,188594.0,188594.0,535.83324739011,41.880746218517935,0.4160161960560018
63862.27696057157,5.821612105719396,PPG_1,PPG_2,188577.0,188577.0,519.0639790917339,44.19225470680791,0.43909964655719985
63862.28696334152,5.831614875663945,PPG_1,PPG_2,188590.0,188590.0,532.2947107933578,46.801367705834394,0.4651550692693248
63862.296966111455,5.841617645601218,PPG_1,PPG_2,188623.0,188623.0,565.5254424950108,49.83855532464853,0.49548537972109963
63862.3069688814,5.851620415545767,PPG_1,PPG_2,188633.0,188633.0,575.7561741966347,53.40531408953473,0.5311041541344586
63862.31697165134,5.86162318548304,PPG_1,PPG_2,188615.0,188615.0,557.9869058982586,57.56555362633962,0.5726496141262609
63862.32697442128,5.871625955427589,PPG_1,PPG_2,188605.0,188605.0,548.2176375998824,62.33802782832566,0.6203090419708405
63862.33697719122,5.8816287253648625,PPG_1,PPG_2,188619.0,188619.0,562.4483693015063,67.6894458371275,0.6737499846899315
63862.34697996116,5.8916314953094115,PPG_1,PPG_2,188655.0,188655.0,598.6791010031593,73.53211094689041,0.7320966754070672
63862.3569827311,5.901634265246685,PPG_1,PPG_2,188666.0,188666.0,609.9098327047832,79.72929104339308,0.7939836642411239
63862.366985501045,5.911637035191234,PPG_1,PPG_2,188660.0,188660.0,604.1405644064071,86.10665338377699,0.8576700096117877
63862.37698827099,5.921639805135783,PPG_1,PPG_2,188696.0,188696.0,640.371296108031,92.46483016446962,0.9211647619514439
63862.38699104093,5.931642575073056,PPG_1,PPG_2,188678.0,188678.0,622.6020278096839,98.5889545070491,0.9823221930581305
63862.39699381087,5.941645345017605,PPG_1,PPG_2,188664.0,188664.0,608.8327595113078,104.25337185751997,1.0388888456099679
63862.40699658081,5.951648114954878,PPG_1,PPG_2,188675.0,188675.0,620.0634912129317,109.22254838413745,1.0885126047114315
63862.41699935075,5.961650884899427,PPG_1,PPG_2,188681.0,188681.0,626.2942229145556,113.25240363793002,1.1287560062603181
63862.42700212069,5.9716536548367,PPG_1,PPG_2,188708.0,188708.0,653.5249546162086,116.09710847556896,1.1571641231427856
63862.437004890635,5.981656424781249,PPG_1,PPG_2,188678.0,188678.0,623.7556863178324,117.52344187784004,1.1714079369363863
63862.44700766057,5.9916591947185225,PPG_1,PPG_2,188730.0,188730.0,675.9864180194563,117.33136195401588,1.1694897664272443
63862.45701043052,6.001661964663072,PPG_1,PPG_2,188718.0,188718.0,664.2171497210802,115.37784375148206,1.1499813194715776
63862.467013200454,6.011664734600345,PPG_1,PPG_2,188734.0,188734.0,680.4478814227041,111.59969986730884,1.1122515867976406
63862.4770159704,6.021667504544894,PPG_1,PPG_2,188706.0,188706.0,652.6786131243571,106.02967295844621,1.0566275468720117
63862.487018740336,6.031670274482167,PPG_1,PPG_2,188707.0,188707.0,653.909344825981,98.80103498656622,0.9844400954045872
63862.49702151028,6.041673044426716,PPG_1,PPG_2,188688.0,188688.0,635.1400765276048,90.13947999803919,0.8979430841005186
63862.50702428022,6.051675814363989,PPG_1,PPG_2,188685.0,188685.0,632.3708082292287,80.34440054107111,0.800126341075061
63862.51702705016,6.061678584308538,PPG_1,PPG_2,188673.0,188673.0,620.6015399308817,69.76287993078721,0.6944559494358788
63862.5270298201,6.071681354245811,PPG_1,PPG_2,188648.0,188648.0,595.8322716325056,58.75957295556079,0.5845734665469546
63862.53703259005,6.08168412419036,PPG_1,PPG_2,188620.0,188620.0,568.0630033341295,47.685798178566195,0.47398727003453117
63862.54703535998,6.091686894127633,PPG_1,PPG_2,188658.0,188658.0,606.2937350357533,36.85226181885347,0.36580016988792496
63862.557038129926,6.1016896640721825,PPG_1,PPG_2,188632.0,188632.0,580.5244667374063,26.509673307961172,0.2625158293134023
63862.56704089987,6.111692434016732,PPG_1,PPG_2,188600.0,188600.0,548.7551984390302,16.83848819605952,0.1659363341700993
63862.57704366981,6.121695203954005,PPG_1,PPG_2,188638.0,188638.0,586.9859301406541,7.94647225432099,0.07713786733045
63862.58704643975,6.131697973898554,PPG_1,PPG_2,188586.0,188586.0,535.216661842278,-0.12668741491949204,-0.0034832433240235797
63862.59704920969,6.141700743835827,PPG_1,PPG_2,188616.0,188616.0,565.4473935439019,-7.397707635992517,-0.07609393725684807
63862.607051979634,6.151703513780376,PPG_1,PPG_2,188643.0,188643.0,592.6781252455548,-13.921994414916309,-0.14124751626374257
63862.61705474957,6.161706283717649,PPG_1,PPG_2,188585.0,188585.0,534.9088569471787,-19.773097977069632,-0.19967847601949418
63862.62705751952,6.171709053662198,PPG_1,PPG_2,188609.0,188609.0,559.1395886488026,-25.024186665395085,-0.2521174986008188
63862.63706028945,6.181711823599471,PPG_1,PPG_2,188610.0,188610.0,560.3703203504265,-29.734984302471958,-0.2991610048771337
63862.6470630594,6.19171459354402,PPG_1,PPG_2,188574.0,188574.0,524.6010520520795,-33.9445484462898,-0.34119903590219974
63862.657065829335,6.201717363481293,PPG_1,PPG_2,188635.0,188635.0,585.8317837537033,-37.66928472575232,-0.3783954234441708
63862.66706859928,6.2117201334258425,PPG_1,PPG_2,188552.0,188552.0,503.06251545532723,-40.90619102636621,-0.4107201874438535
63862.67707136922,6.221722903363116,PPG_1,PPG_2,188599.0,188599.0,550.2932471569511,-43.64113872346766,-0.43803223501332245
63862.68707413916,6.231725673307665,PPG_1,PPG_2,188582.0,188582.0,533.523978858575,-45.86051252538276,-0.46019559956928074
63862.6970769091,6.241728443244938,PPG_1,PPG_2,188561.0,188561.0,512.754710560228,-47.56319235456487,-0.477199095665196
63862.70707967904,6.251731213189487,PPG_1,PPG_2,188568.0,188568.0,519.9854422618519,-48.76982255755429,-0.48924888423619206
63862.71708244898,6.26173398312676,PPG_1,PPG_2,188599.0,188599.0,551.2161739634757,-49.52648731979886,-0.49680517644699623
63862.727085218925,6.271736753071309,PPG_1,PPG_2,188587.0,188587.0,539.4469056650996,-49.90092818779557,-0.5005444606788365
63862.73708798886,6.281739523008582,PPG_1,PPG_2,188619.0,188619.0,571.6776373667526,-49.97286342119464,-0.5012628285359617
63862.74709075881,6.291742292953131,PPG_1,PPG_2,188586.0,188586.0,538.9083690683765,-49.82311132822831,-0.49976735705361536
63862.75709352875,6.30174506289768,PPG_1,PPG_2,188595.0,188595.0,548.1391007700004,-49.52588127188993,-0.4967991242620365
63862.76709629869,6.311747832834953,PPG_1,PPG_2,188590.0,188590.0,543.3698324716242,-49.14550352899722,-0.49300055253093417
63862.77709906863,6.3217506027795025,PPG_1,PPG_2,188621.0,188621.0,574.6005641732772,-48.736067386054586,-0.48891179448098665
63862.78710183857,6.331753372716776,PPG_1,PPG_2,188585.0,188585.0,538.8312958749011,-48.34240679096001,-0.4849805760116743
63862.797104608515,6.341756142661325,PPG_1,PPG_2,188621.0,188621.0,575.062027576525,-48.002542611649375,-0.4815865854639471
63862.80710737845,6.351758912598598,PPG_1,PPG_2,188579.0,188579.0,533.2927592781489,-47.75198222342733,-0.4790844106510987
63862.8171101484,6.361761682543147,PPG_1,PPG_2,188574.0,188574.0,528.5234909797728,-47.62857603743448,-0.4778520376789297
63862.827112918334,6.37176445248042,PPG_1,PPG_2,188630.0,188630.0,584.7542226814257,-47.67454742050951,-0.47831112236369727
63862.83711568828,6.381767222424969,PPG_1,PPG_2,188616.0,188616.0,570.9849543830496,-47.93256647304881,-0.48088778174341823
63862.847118458216,6.391769992362242,PPG_1,PPG_2,188610.0,188610.0,565.2156860846735,-48.4368001763733,-0.4859232180356455
63862.85712122816,6.401772762306791,PPG_1,PPG_2,188621.0,188621.0,576.4464177862974,-49.20353773604172,-0.49358010036840677
63862.8671239981,6.411775532244064,PPG_1,PPG_2,188613.0,188613.0,568.6771494879504,-50.22498572416798,-0.5037806011205818
63862.87712676804,6.4217783021886135,PPG_1,PPG_2,188612.0,188612.0,567.9078811895743,-51.46696402592268,-0.5161833869192728
63862.88712953798,6.431781072125887,PPG_1,PPG_2,188616.0,188616.0,572.1386128911981,-52.870023073590936,-0.5301947756903641
63862.89713230792,6.441783842070436,PPG_1,PPG_2,188598.0,188598.0,554.369344592822,-54.35317669861615,-0.5450060140926377
63862.90713507786,6.451786612007709,PPG_1,PPG_2,188624.0,188624.0,580.600076294475,-55.8190313193145,-0.5596444991989048
63862.917137847806,6.461789381952258,PPG_1,PPG_2,188625.0,188625.0,581.8308079960989,-57.15925750564687,-0.5730284192620752
63862.92714061774,6.471792151889531,PPG_1,PPG_2,188608.0,188608.0,565.0615396977228,-58.260637845408695,-0.584027149608375
63862.93714338769,6.48179492183408,PPG_1,PPG_2,188623.0,188623.0,580.2922713993466,-59.013026355855466,-0.591540737824275
63862.94714615763,6.491797691778629,PPG_1,PPG_2,188601.0,188601.0,558.5230031009705,-59.31969949965983,-0.5946032722561913
63862.95714892757,6.501800461715902,PPG_1,PPG_2,188609.0,188609.0,566.7537348026235,-59.10860430123411,-0.5924952092364851
63862.967151697514,6.511803231660451,PPG_1,PPG_2,188619.0,188619.0,576.9844665042474,-58.34185464978418,-0.584838206151392
63862.97715446745,6.521806001597724,PPG_1,PPG_2,188607.0,188607.0,565.2151982058713,-57.021066721097135,-0.5716484026404466
63862.98715723739,6.5318087715422735,PPG_1,PPG_2,188644.0,188644.0,602.4459299074952,-55.18745088072805,-0.5533373383706006
63862.99716000733,6.541811541479547,PPG_1,PPG_2,188633.0,188633.0,591.6766616091481,-52.91735923189328,-0.5306674894496362
63863.00716277728,6.551814311424096,PPG_1,PPG_2,188595.0,188595.0,553.907393310772,-50.31520447418746,-0.5046815539230071
63863.017165547215,6.561817081361369,PPG_1,PPG_2,188671.0,188671.0,630.1381250123959,-47.50488801281976,-0.4766168501776729
63863.02716831716,6.571819851305918,PPG_1,PPG_2,188623.0,188623.0,582.3688567140198,-44.61904456628048,-0.44779791021276827
63863.0371710871,6.581822621243191,PPG_1,PPG_2,188649.0,188649.0,608.5995884156728,-41.78578180360886,-0.4195040574883074
63863.04717385704,6.59182539118774,PPG_1,PPG_2,188684.0,188684.0,643.8303201172967,-39.11453277732848,-0.39282812487248847
63863.05717662698,6.601828161125013,PPG_1,PPG_2,188661.0,188661.0,621.0610518189205,-36.683707107499686,-0.36855313548318047
63863.06717939692,6.611830931069562,PPG_1,PPG_2,188662.0,188662.0,622.2917835205444,-34.533500176082875,-0.3470804930420482
63863.07718216686,6.621833701006835,PPG_1,PPG_2,188661.0,188661.0,621.5225152221683,-32.66646412889493,-0.3284356840796124
63863.087184936805,6.631836470951384,PPG_1,PPG_2,188663.0,188663.0,623.7532469238213,-31.055201512856367,-0.3123451090156755
63863.09718770674,6.6418392408886575,PPG_1,PPG_2,188639.0,188639.0,599.9839786254452,-29.65380709417714,-0.2983503437530272
63863.10719047669,6.651842010833207,PPG_1,PPG_2,188657.0,188657.0,618.214710327069,-28.408906743270112,-0.28591837745281024
63863.117193246624,6.66184478077048,PPG_1,PPG_2,188682.0,188682.0,643.4454420286929,-27.26619389348758,-0.2745068876665227
63863.12719601657,6.671847550715029,PPG_1,PPG_2,188710.0,188710.0,671.6761737303459,-26.170513754902125,-0.26356508132131046
63863.13719878651,6.681850320659578,PPG_1,PPG_2,188666.0,188666.0,627.9069054319698,-25.062315579139135,-0.25249826592117863
63863.14720155645,6.691853090596851,PPG_1,PPG_2,188680.0,188680.0,642.1376371335937,-23.875961265052744,-0.2406509587514978
63863.157204326395,6.7018558605414,PPG_1,PPG_2,188688.0,188688.0,650.3683688352176,-22.542409502949333,-0.22733369158711358
63863.16720709633,6.711858630478673,PPG_1,PPG_2,188688.0,188688.0,650.5991005368705,-20.99449806407868,-0.21187576129595448
63863.17720986628,6.721861400423222,PPG_1,PPG_2,188715.0,188715.0,677.8298322384944,-19.17280666595337,-0.19368377825539357
63863.187212636214,6.731864170360495,PPG_1,PPG_2,188669.0,188669.0,632.0605639401183,-17.032385467070032,-0.17230885921597003
63863.19721540616,6.741866940305044,PPG_1,PPG_2,188666.0,188666.0,629.2912956417422,-14.550764618619432,-0.14752661320296545
63863.207218176096,6.7518697102423175,PPG_1,PPG_2,188707.0,188707.0,670.5220273433661,-11.734506590503312,-0.11940257510405589
63863.21722094604,6.761872480186867,PPG_1,PPG_2,188695.0,188695.0,658.752759045019,-8.619356222852302,-0.08829370413094607
63863.22722371598,6.77187525012414,PPG_1,PPG_2,188726.0,188726.0,689.9834907466429,-5.2617489598362015,-0.05476358237239154
63863.23722648592,6.781878020068689,PPG_1,PPG_2,188738.0,188738.0,702.2142224482668,-1.724394101612675,-0.019438444615539927
63863.24722925586,6.791880790005962,PPG_1,PPG_2,188723.0,188723.0,687.4449541498907,1.938767023213913,0.017143034073038334
63863.25723202581,6.801883559950511,PPG_1,PPG_2,188753.0,188753.0,717.6756858515437,5.693271162408667,0.054636692821296
63863.26723479574,6.811886329887784,PPG_1,PPG_2,188729.0,188729.0,693.9064175531676,9.527542671656986,0.09292693360573057
63863.277237565686,6.821889099832333,PPG_1,PPG_2,188735.0,188735.0,700.1371492547914,13.448500108815521,0.13208284732028974
63863.28724033562,6.831891869769606,PPG_1,PPG_2,188720.0,188720.0,685.3678809564153,17.471232471147008,0.17225511743561253
63863.29724310557,6.841894639714155,PPG_1,PPG_2,188735.0,188735.0,700.5986126580683,21.606921428561655,0.21355540762293382
63863.307245875505,6.8518974096514285,PPG_1,PPG_2,188758.0,188758.0,723.8293443596922,25.854106939209395,0.2559691374453024
63863.31724864545,6.8619001795959775,PPG_1,PPG_2,188780.0,188780.0,746.0600760613161,30.196185035195562,0.29933049445904275
63863.32725141539,6.871902949533251,PPG_1,PPG_2,188746.0,188746.0,712.29080776294,34.60382136124283,0.34334653656964864
63863.33725418533,6.8819057194778,PPG_1,PPG_2,188762.0,188762.0,728.5215394645638,39.0389699236093,0.3876373245219717
63863.34725695528,6.891908489422349,PPG_1,PPG_2,188791.0,188791.0,757.7522711662168,43.45938198807349,0.43178094917309484
63863.35725972521,6.901911259359622,PPG_1,PPG_2,188777.0,188777.0,743.9830028678407,47.824765523148486,0.47537504162879485
63863.36726249516,6.911914029304171,PPG_1,PPG_2,188792.0,188792.0,759.2137345694646,52.10460757547164,0.5181148899435348
63863.377265265095,6.921916799241444,PPG_1,PPG_2,188816.0,188816.0,783.4444662710885,56.28580366250011,0.5598696286345989
63863.38726803504,6.931919569185993,PPG_1,PPG_2,188801.0,188801.0,768.6751979727414,60.377965990328164,0.6007352482141175
63863.39727080498,6.941922339123266,PPG_1,PPG_2,188809.0,188809.0,776.9059296743653,64.41446206719169,0.6410449671100625
63863.40727357492,6.951925109067815,PPG_1,PPG_2,188816.0,188816.0,784.1366613759892,68.4480592914908,0.6813257371529011
63863.41727634486,6.9619278790050885,PPG_1,PPG_2,188790.0,188790.0,758.3673930776131,72.54202767185168,0.7222093925408347
63863.4272791148,6.9719306489496375,PPG_1,PPG_2,188851.0,188851.0,819.5981247792661,76.75916725542416,0.7643230742890049
63863.43728188474,6.981933418886911,PPG_1,PPG_2,188829.0,188829.0,797.82885648089,81.15096610635247,0.8081809583937786
63863.447284654685,6.99193618883146,PPG_1,PPG_2,188833.0,188833.0,802.0595881825138,85.74697359148854,0.8540781341228452
63863.45728742462,7.001938958768733,PPG_1,PPG_2,188848.0,188848.0,817.2903198841377,90.54299885149764,0.9019727502372842
63863.46729019457,7.011941728713282,PPG_1,PPG_2,188813.0,188813.0,782.5210515857616,95.48815334610234,0.9513566177745529
63863.477292964504,7.021944498650555,PPG_1,PPG_2,188844.0,188844.0,813.7517832874146,100.47349862592124,1.0011418431289338
63863.48729573445,7.031947268595104,PPG_1,PPG_2,188852.0,188852.0,821.9825149890385,105.32659259812112,1.049606365345685
63863.497298504386,7.041950038532377,PPG_1,PPG_2,188857.0,188857.0,827.2132466906623,109.81528384144933,1.0944318473438848
63863.50730127433,7.051952808476926,PPG_1,PPG_2,188886.0,188886.0,856.4439783922862,113.66094532940627,1.1328358320367073
63863.51730404427,7.061955578414199,PPG_1,PPG_2,188842.0,188842.0,812.6747100939392,116.55854224090295,1.1617721457979602
63863.52730681421,7.0719583483587485,PPG_1,PPG_2,188873.0,188873.0,843.9054417955631,118.20089146795155,1.1781731615330584
63863.53730958416,7.0819611183032976,PPG_1,PPG_2,188910.0,188910.0,881.136173497187,118.306206654435,1.1792248720963252
63863.547312354094,7.091963888240571,PPG_1,PPG_2,188869.0,188869.0,840.3669051988109,116.64781466443931,1.1626636482866004
63863.55731512404,7.10196665818512,PPG_1,PPG_2,188906.0,188906.0,877.5976369004638,113.08206920125578,1.127054993022626
63863.567317893976,7.111969428122393,PPG_1,PPG_2,188890.0,188890.0,861.8283686020877,107.5691016229372,1.0720007655112354
63863.57732066392,7.121972198066942,PPG_1,PPG_2,188866.0,188866.0,838.0591003037116,100.18254095374127,0.9982362483375954
63863.58732343386,7.131974968004215,PPG_1,PPG_2,188879.0,188879.0,851.2898320053355,91.10642720398221,0.9075993229067926
63863.5973262038,7.141977737948764,PPG_1,PPG_2,188811.0,188811.0,783.5205637069594,80.61992557375345,0.8028778206763618
63863.60732897374,7.151980507886037,PPG_1,PPG_2,188851.0,188851.0,823.7512954086124,69.0733124824451,0.6875697120970673
63863.61733174368,7.161983277830586,PPG_1,PPG_2,188827.0,188827.0,799.9820271102362,56.8603324078438,0.5656070533171567
63863.62733451362,7.171986047767859,PPG_1,PPG_2,188812.0,188812.0,785.2127588118601,44.39077221601906,0.4410821048179899
63863.637337283566,7.1819888177124085,PPG_1,PPG_2,188807.0,188807.0,780.443490513484,32.064297462501635,0.3179860524917516
63863.6473400535,7.191991587649682,PPG_1,PPG_2,188794.0,188794.0,767.674222215137,20.245503653895362,0.19995986169603597
63863.65734282345,7.201994357594231,PPG_1,PPG_2,188782.0,188782.0,755.9049539167609,9.240851530940747,0.09006394573898424
63863.667345593385,7.211997127531504,PPG_1,PPG_2,188749.0,188749.0,723.1356856183847,-0.721218035084809,-0.00942041301712965
63863.67734836333,7.221999897476053,PPG_1,PPG_2,188746.0,188746.0,720.3664173200086,-9.504723163278996,-0.09713525675697862
63863.68735113327,7.232002667413326,PPG_1,PPG_2,188765.0,188765.0,739.5971490216325,-17.071493984573838,-0.17269940916746174
63863.69735390321,7.242005437357875,PPG_1,PPG_2,188733.0,188733.0,707.8278807232855,-23.47443970978285,-0.23664123826239272
63863.70735667315,7.252008207295148,PPG_1,PPG_2,188789.0,188789.0,764.0586124249094,-28.839027810980962,-0.2902137016648234
63863.71735944309,7.262010977239697,PPG_1,PPG_2,188764.0,188764.0,739.2893441265333,-33.33697344697671,-0.33513160093777755
63863.72736221303,7.27201374717697,PPG_1,PPG_2,188760.0,188760.0,735.5200758281571,-37.158622201724754,-0.37329578692718457
63863.737364982975,7.282016517121519,PPG_1,PPG_2,188727.0,188727.0,702.7508075298101,-40.49032842947132,-0.40656725280426476
63863.74736775292,7.2920192870660685,PPG_1,PPG_2,188726.0,188726.0,701.981539231434,-43.498947535192706,-0.4366122691023689
63863.75737052286,7.302022057003342,PPG_1,PPG_2,188786.0,188786.0,762.2122709330579,-46.32063167613009,-0.4647904940698788
63863.7673732928,7.312024826947891,PPG_1,PPG_2,188754.0,188754.0,730.4430026346818,-49.05138882417067,-0.4920606934989193
63863.77737606274,7.322027596885164,PPG_1,PPG_2,188717.0,188717.0,693.6737343363347,-51.74168818658471,-0.5189268687607851
63863.78737883268,7.332030366829713,PPG_1,PPG_2,188748.0,188748.0,724.9044660379586,-54.39880764147511,-0.5454616990343732
63863.79738160262,7.342033136766986,PPG_1,PPG_2,188725.0,188725.0,702.1351977395825,-56.99613965069421,-0.5713994730783443
63863.807384372565,7.352035906711535,PPG_1,PPG_2,188733.0,188733.0,710.3659294412064,-59.48532851207381,-0.5962572956478374
63863.8173871425,7.362038676648808,PPG_1,PPG_2,188742.0,188742.0,719.5966611428303,-61.80838614731028,-0.6194560795614893
63863.82738991245,7.372041446593357,PPG_1,PPG_2,188715.0,188715.0,692.8273928444833,-63.90903359804566,-0.6404338054470604
63863.837392682384,7.38204421653063,PPG_1,PPG_2,188724.0,188724.0,702.0581245461071,-65.74291583829772,-0.6587475300698938
63863.84739545233,7.392046986475179,PPG_1,PPG_2,188740.0,188740.0,718.288856247731,-67.28558485271049,-0.6741531078622007
63863.857398222266,7.4020497564124526,PPG_1,PPG_2,188702.0,188702.0,680.5195879493549,-68.53677711982921,-0.6866479072158831
63863.86740099221,7.412052526357002,PPG_1,PPG_2,188742.0,188742.0,720.7503196510079,-69.52020646582002,-0.6964687418546511
63863.87740376215,7.422055296294275,PPG_1,PPG_2,188734.0,188734.0,712.9810513526318,-70.27880904374922,-0.7040443857021303
63863.88740653209,7.432058066238824,PPG_1,PPG_2,188742.0,188742.0,721.2117830542556,-70.8663300433228,-0.709911555120186
63863.89740930203,7.442060836176097,PPG_1,PPG_2,188723.0,188723.0,702.4425147558795,-71.3376751133472,-0.7146185551801084
63863.907412071974,7.452063606120646,PPG_1,PPG_2,188738.0,188738.0,717.6732464575325,-71.740438195395,-0.7186406739459531
63863.91741484191,7.462066376057919,PPG_1,PPG_2,188736.0,188736.0,715.9039781591564,-72.10816108853763,-0.7223128703687725
63863.927417611856,7.472069146002468,PPG_1,PPG_2,188749.0,188749.0,729.1347098607803,-72.45500211527728,-0.7257765339084432
63863.9374203818,7.482071915947017,PPG_1,PPG_2,188735.0,188735.0,715.3654415624042,-72.77247911114026,-0.7289469590037426
63863.94742315174,7.49207468588429,PPG_1,PPG_2,188747.0,188747.0,727.596173264028,-73.0297735498138,-0.7315163821615819
63863.95742592168,7.50207745582884,PPG_1,PPG_2,188712.0,188712.0,692.826904965681,-73.17827004205388,-0.7329993148203157
63863.96742869162,7.512080225766113,PPG_1,PPG_2,188737.0,188737.0,718.0576366673049,-73.15897449787856,-0.7328066234496712
63863.97743146157,7.522082995710662,PPG_1,PPG_2,188764.0,188764.0,745.2883683689288,-72.90998290224847,-0.7303201150928738
63863.9874342315,7.532085765647935,PPG_1,PPG_2,188729.0,188729.0,710.5191000705527,-72.37240065654642,-0.7249516497716988
63863.997437001446,7.542088535592484,PPG_1,PPG_2,188750.0,188750.0,731.7498317722057,-71.4959374385388,-0.7161990125170691
63864.00743977138,7.552091305529757,PPG_1,PPG_2,188749.0,188749.0,730.9805634738295,-70.24586905352447,-0.7037154366034292
63864.01744254133,7.562094075474306,PPG_1,PPG_2,188714.0,188714.0,696.2112951754534,-68.61096513091366,-0.6873887720192466
63864.027445311265,7.572096845411579,PPG_1,PPG_2,188764.0,188764.0,746.4420268770773,-66.61017930001039,-0.6674082956657632
63864.03744808121,7.582099615356128,PPG_1,PPG_2,188746.0,188746.0,728.6727585787303,-64.29544151673798,-0.6442925964095819
63864.04745085115,7.592102385293401,PPG_1,PPG_2,188747.0,188747.0,729.9034902803542,-61.74914577932155,-0.6188644866216112
63864.05745362109,7.60210515523795,PPG_1,PPG_2,188751.0,188751.0,734.134221981978,-59.076778526503446,-0.5921773870440168
63864.06745639103,7.612107925175224,PPG_1,PPG_2,188776.0,188776.0,759.3649536836019,-56.39534004413965,-0.565399699316189
63864.07745916097,7.622110695119773,PPG_1,PPG_2,188783.0,188783.0,766.5956853852258,-53.81823024761456,-0.5396638706460342
63864.08746193091,7.632113465057046,PPG_1,PPG_2,188770.0,188770.0,753.8264170868788,-51.439147682188334,-0.5159056041652968
63864.097464700855,7.642116235001595,PPG_1,PPG_2,188781.0,188781.0,765.0571487885027,-49.31882040000896,-0.4947313492955966
63864.10746747079,7.652119004938868,PPG_1,PPG_2,188784.0,188784.0,768.2878804901266,-47.47686712439595,-0.4763370247761192
63864.11747024074,7.662121774883417,PPG_1,PPG_2,188814.0,188814.0,798.5186121917504,-45.88924314623471,-0.46048251258200146
63864.12747301068,7.672124544827966,PPG_1,PPG_2,188749.0,188749.0,733.7493438934034,-44.49190915156874,-0.4465282959901449
63864.13747578062,7.682127314765239,PPG_1,PPG_2,188778.0,188778.0,762.9800755950273,-43.19111215740011,-0.43353812823644033
63864.14747855056,7.692130084709788,PPG_1,PPG_2,188790.0,188790.0,775.2108072966512,-41.877674050767524,-0.4204217223593112
63864.1574813205,7.702132854647061,PPG_1,PPG_2,188776.0,188776.0,761.4415389982751,-40.440608170143165,-0.4060707306625887
63864.167484090445,7.71213562459161,PPG_1,PPG_2,188792.0,188792.0,777.672270699928,-38.777395149927074,-0.3894613625293534
63864.17748686038,7.7221383945288835,PPG_1,PPG_2,188809.0,188809.0,794.9030024015519,-36.80109738291067,-0.36972543168087957
63864.18748963033,7.732141164473433,PPG_1,PPG_2,188779.0,188779.0,765.1337341031758,-34.44547122532116,-0.3462014082634828
63864.197492400264,7.742143934410706,PPG_1,PPG_2,188782.0,188782.0,768.3644658047997,-31.66896289536261,-0.31847432314766033
63864.20749517021,7.752146704355255,PPG_1,PPG_2,188805.0,188805.0,791.5951975064236,-28.45678287528343,-0.2863964835593277
63864.217497940146,7.762149474292528,PPG_1,PPG_2,188817.0,188817.0,803.8259292080766,-24.81876371025905,-0.25006608038595407
63864.22750071009,7.772152244237077,PPG_1,PPG_2,188834.0,188834.0,821.0566609097004,-20.782634152952934,-0.2097600216695431
63864.23750348003,7.78215501417435,PPG_1,PPG_2,188819.0,188819.0,806.2873926113243,-16.38609387009101,-0.16585478813477658
63864.24750624997,7.792157784118899,PPG_1,PPG_2,188834.0,188834.0,821.5181243129482,-11.672113186168756,-0.11877949495191532
63864.25750901991,7.802160554056172,PPG_1,PPG_2,188830.0,188830.0,817.7488560146012,-6.6895608738608825,-0.06902216104920708
63864.267511789854,7.812163324000721,PPG_1,PPG_2,188807.0,188807.0,794.9795877162251,-1.4983168174687622,-0.01718076577749163
63864.27751455979,7.822166093937994,PPG_1,PPG_2,188817.0,188817.0,805.210319417849,3.824290068117432,0.03597246000696488
63864.287517329736,7.832168863882544,PPG_1,PPG_2,188825.0,188825.0,813.4410511194728,9.180811854775376,0.08946437065635213
63864.29752009967,7.842171633819817,PPG_1,PPG_2,188857.0,188857.0,845.6717828211258,14.459847388950912,0.1421824792268103
63864.30752286962,7.852174403764366,PPG_1,PPG_2,188902.0,188902.0,890.9025145227497,19.552184600847486,0.19303615965312987
63864.31752563956,7.862177173708915,PPG_1,PPG_2,188850.0,188850.0,839.1332462243736,24.371968405541708,0.24116803606446924
63864.3275284095,7.872179943646188,PPG_1,PPG_2,188915.0,188915.0,904.3639779259975,28.874601566673547,0.286132746437188
63864.33753117944,7.882182713590737,PPG_1,PPG_2,188876.0,188876.0,865.5947096276213,33.064944606018386,0.3279788294698807
63864.34753394938,7.89218548352801,PPG_1,PPG_2,188845.0,188845.0,834.8254413292743,36.99362285036394,0.3672118455924274
63864.357536719326,7.902188253472559,PPG_1,PPG_2,188854.0,188854.0,844.0561730308982,40.7437636709646,0.40466193086937924
63864.36753948926,7.912191023409832,PPG_1,PPG_2,188900.0,188900.0,890.2869047325221,44.41496959921104,0.4413237474941904
63864.37754225921,7.922193793354381,PPG_1,PPG_2,188897.0,188897.0,887.517636434146,48.11149648152343,0.47823842712719966
63864.387545029145,7.9321965632916545,PPG_1,PPG_2,188923.0,188923.0,913.748368135799,51.93537904585004,0.5164249206413668
63864.39754779909,7.9421993332362035,PPG_1,PPG_2,188857.0,188857.0,847.9790998374228,55.979638118320544,0.556812163252125
63864.40755056903,7.952202103173477,PPG_1,PPG_2,188892.0,188892.0,883.2098315390467,60.318304888402466,0.6001394536928664
63864.41755333897,7.962204873118026,PPG_1,PPG_2,188904.0,188904.0,895.4405632406706,64.99598949820063,0.6468522828680566
63864.42755610891,7.972207643055299,PPG_1,PPG_2,188938.0,188938.0,929.6712949423236,70.02205439124548,0.6970441470823383
63864.43755887885,7.982210412999848,PPG_1,PPG_2,188913.0,188913.0,904.9020266439475,75.3702404643751,0.7504528146756876
63864.44756164879,7.992213182937121,PPG_1,PPG_2,188932.0,188932.0,924.1327583455713,80.97986869971135,0.8064723258981196
63864.457564418735,8.00221595288167,PPG_1,PPG_2,188932.0,188932.0,924.3634900471952,86.75510295727345,0.8641456309249511
63864.46756718867,8.012218722818943,PPG_1,PPG_2,188926.0,188926.0,918.5942217488191,92.56194672980133,0.922134598506247
63864.47756995862,8.022221492763492,PPG_1,PPG_2,188909.0,188909.0,901.8249534504721,98.22483153691323,0.9786859465982707
63864.487572728554,8.032224262700765,PPG_1,PPG_2,188956.0,188956.0,949.055685152096,103.52598296254892,1.0316249114140754
63864.4975754985,8.042227032645314,PPG_1,PPG_2,188950.0,188950.0,943.2864168537199,108.21090745695554,1.0784100403531818
63864.50757826844,8.052229802589864,PPG_1,PPG_2,188944.0,188944.0,937.5171485553437,112.00074688624579,1.116256568417731
63864.51758103838,8.062232572527137,PPG_1,PPG_2,188941.0,188941.0,934.7478802569967,114.60943866729983,1.1423077847147523
63864.527583808325,8.072235342471686,PPG_1,PPG_2,188964.0,188964.0,957.9786119586206,115.76408446051052,1.153838440625825
63864.53758657826,8.082238112408959,PPG_1,PPG_2,188969.0,188969.0,963.2093436602445,115.2282520490123,1.1484874496991566
63864.54758934821,8.092240882353508,PPG_1,PPG_2,188933.0,188933.0,927.4400753618684,112.82672273142863,1.1245050228941271
63864.557592118144,8.102243652290781,PPG_1,PPG_2,188998.0,188998.0,992.6708070634922,108.46849069012116,1.0809823475036158
63864.56759488809,8.11224642223533,PPG_1,PPG_2,188934.0,188934.0,928.9015387651452,102.16471305738796,1.0180308421585478
63864.577597658026,8.122249192172603,PPG_1,PPG_2,188939.0,188939.0,934.1322704667691,94.03854110268735,0.9368803341544328
63864.58760042797,8.132251962117152,PPG_1,PPG_2,188964.0,188964.0,959.363002168393,84.32458564927987,0.8398737209338784
63864.59760319791,8.142254732054425,PPG_1,PPG_2,188933.0,188933.0,928.5937338700169,73.35715436694922,0.7303495039935115
63864.60760596785,8.152257501998974,PPG_1,PPG_2,188903.0,188903.0,898.8244655716699,61.546192153717186,0.6124015219714528
63864.61760873779,8.162260271936248,PPG_1,PPG_2,188879.0,188879.0,875.0551972732937,49.34018804208723,0.4905085273510134
63864.627611507734,8.172263041880797,PPG_1,PPG_2,188831.0,188831.0,827.2859289749176,37.17956588537493,0.3690687312004461
63864.63761427767,8.18226581181807,PPG_1,PPG_2,188831.0,188831.0,827.5166606765415,25.449445922950098,0.25192806531171213
63864.647617047616,8.192268581762619,PPG_1,PPG_2,188811.0,188811.0,807.7473923781945,14.442756940041063,0.1420118086307678
63864.65761981755,8.202271351699892,PPG_1,PPG_2,188852.0,188852.0,848.9781240798184,4.342284032753779,0.04114531059487171
63864.6676225875,8.212274121644441,PPG_1,PPG_2,188829.0,188829.0,826.2088557814423,-4.775909483645706,-0.049911836615460364
63864.677625357435,8.222276891581714,PPG_1,PPG_2,188835.0,188835.0,832.4395874830661,-12.922225676584238,-0.13126351131595781
63864.68762812738,8.232279661526263,PPG_1,PPG_2,188838.0,188838.0,835.67031918469,-20.164709232661128,-0.20358922914021743
63864.69763089732,8.242282431463536,PPG_1,PPG_2,188828.0,188828.0,825.901050886343,-26.599582168613082,-0.2678498933995268
63864.70763366726,8.252285201408085,PPG_1,PPG_2,188798.0,188798.0,796.1317825879669,-32.32708117564721,-0.3250464992066467
63864.717636437206,8.262287971352634,PPG_1,PPG_2,188806.0,188806.0,804.3625142895908,-37.43587694908085,-0.37606454000303907
63864.72763920714,8.272290741289908,PPG_1,PPG_2,188774.0,188774.0,772.5932459912146,-41.99588635370011,-0.421602227582286
63864.73764197709,8.282293511234457,PPG_1,PPG_2,188787.0,188787.0,785.8239776928676,-46.056714721974146,-0.46215493639031663
63864.747644747025,8.29229628117173,PPG_1,PPG_2,188771.0,188771.0,770.0547093944915,-49.64851566918026,-0.4980237899095721
63864.75764751697,8.302299051116279,PPG_1,PPG_2,188802.0,188802.0,801.2854410961154,-52.78320790497833,-0.5293278121219522
63864.76765028691,8.312301821053552,PPG_1,PPG_2,188776.0,188776.0,775.5161727977393,-55.456228225628934,-0.5560214334402461
63864.77765305685,8.322304590998101,PPG_1,PPG_2,188780.0,188780.0,779.7469044993923,-57.65114305377372,-0.5779405429942448
63864.78765582679,8.332307360935374,PPG_1,PPG_2,188721.0,188721.0,720.9776362010161,-59.349044289219954,-0.594896318550726
63864.79765859673,8.342310130879923,PPG_1,PPG_2,188783.0,188783.0,783.20836790264,-60.54107330610306,-0.6068002950866587
63864.80766136667,8.352312900817196,PPG_1,PPG_2,188760.0,188760.0,760.4390996042639,-61.23945601999781,-0.6137745644387942
63864.817664136615,8.362315670761745,PPG_1,PPG_2,188737.0,188737.0,737.6698313058878,-61.4839346507463,-0.6162160049094101
63864.82766690655,8.372318440699019,PPG_1,PPG_2,188777.0,188777.0,777.9005630075408,-61.34370172304659,-0.6148155948042372
63864.8376696765,8.382321210643568,PPG_1,PPG_2,188739.0,188739.0,740.1312947091646,-60.91549942696419,-0.6105394320489665
63864.847672446434,8.39232398058084,PPG_1,PPG_2,188726.0,188726.0,727.3620264107885,-60.31761060210494,-0.604568726267969
63864.85767521638,8.40232675052539,PPG_1,PPG_2,188784.0,188784.0,785.5927581124124,-59.67885113065758,-0.5981898733604313
63864.86767798632,8.412329520462663,PPG_1,PPG_2,188763.0,188763.0,764.8234898140654,-59.12199875903958,-0.5926289705033415
63864.87768075626,8.422332290407212,PPG_1,PPG_2,188779.0,188779.0,781.0542215156893,-58.74413883635021,-0.5888555425163913
63864.8876835262,8.432335060344485,PPG_1,PPG_2,188760.0,188760.0,762.2849532173132,-58.59985567923169,-0.587414685546852
63864.89768629614,8.442337830289034,PPG_1,PPG_2,188753.0,188753.0,755.515684918937,-58.69239907981636,-0.5883388530406902
63864.90768906609,8.452340600233583,PPG_1,PPG_2,188766.0,188766.0,768.74641662059,-58.97408054993008,-0.5911518127617618
63864.917691836024,8.462343370170856,PPG_1,PPG_2,188743.0,188743.0,745.9771483222139,-59.35443229825806,-0.594950124902968
63864.92769460597,8.472346140115405,PPG_1,PPG_2,188731.0,188731.0,734.2078800238378,-59.71400170985328,-0.5985408980956044
63864.937697375906,8.482348910052679,PPG_1,PPG_2,188739.0,188739.0,742.4386117254617,-59.921087058065,-0.6006089174903785
63864.94770014585,8.492351679997228,PPG_1,PPG_2,188736.0,188736.0,739.6693434270856,-59.84773585522741,-0.5998764093172602
63864.95770291579,8.5023544499345,PPG_1,PPG_2,188739.0,188739.0,742.9000751287385,-59.38182243870506,-0.5952236514569185
63864.96770568573,8.51235721987905,PPG_1,PPG_2,188745.0,188745.0,749.1308068303624,-58.434210840744086,-0.5857605041110588
63864.97770845567,8.522359989816323,PPG_1,PPG_2,188746.0,188746.0,750.3615385319863,-56.94192889934653,-0.5708581074715527
63864.987711225614,8.532362759760872,PPG_1,PPG_2,188753.0,188753.0,757.5922702336102,-54.869196486864716,-0.550159149934456
63864.99771399555,8.542365529698145,PPG_1,PPG_2,188733.0,188733.0,737.8230019352632,-52.20833423771301,-0.5235869429406418
63865.007716765496,8.552368299642694,PPG_1,PPG_2,188744.0,188744.0,749.053733636887,-48.98170113485385,-0.4913647703236262
63865.01771953543,8.562371069579967,PPG_1,PPG_2,188715.0,188715.0,720.2844653385109,-45.24385289372814,-0.45403744261009216
63865.02772230538,8.572373839524516,PPG_1,PPG_2,188744.0,188744.0,749.5151970401348,-41.081165328911965,-0.4124675358409103
63865.037725075315,8.58237660946179,PPG_1,PPG_2,188762.0,188762.0,767.7459287417878,-36.605865630370126,-0.3677757860192425
63865.04772784526,8.592379379406339,PPG_1,PPG_2,188769.0,188769.0,774.9766604434117,-31.94397900687281,-0.3212207205021317
63865.0577306152,8.602382149343612,PPG_1,PPG_2,188751.0,188751.0,757.2073921450356,-27.220683051753564,-0.2740524020923805
63865.06773338514,8.61238491928816,PPG_1,PPG_2,188750.0,188750.0,756.4381238466594,-22.54774620988718,-0.22738698562045295
63865.07773615508,8.622387689225434,PPG_1,PPG_2,188757.0,188757.0,763.6688555482833,-18.01467580693172,-0.18211831938142964
63865.08773892502,8.632390459169983,PPG_1,PPG_2,188765.0,188765.0,771.8995872499363,-13.681906639067483,-0.1388499242506373
63865.09774169496,8.642393229107256,PPG_1,PPG_2,188797.0,188797.0,804.1303189515602,-9.574620998099746,-0.0978332785113436
63865.107744464905,8.652395999051805,PPG_1,PPG_2,188776.0,188776.0,783.3610506531841,-5.678868532994949,-0.058929069572143895
63865.11774723485,8.662398768996354,PPG_1,PPG_2,188740.0,188740.0,747.591782354808,-1.943704705155914,-0.02162854925366884
63865.12775000479,8.672401538933627,PPG_1,PPG_2,188749.0,188749.0,756.8225140564609,1.7094491724243777,0.014852993917634285
63865.13775277473,8.682404308878176,PPG_1,PPG_2,188800.0,188800.0,808.0532457580848,5.3742736663914785,0.05145108353341215
63865.14775554467,8.69240707881545,PPG_1,PPG_2,188780.0,188780.0,788.2839774597087,9.148740054438349,0.08914409157482829
63865.15775831461,8.702409848759999,PPG_1,PPG_2,188765.0,188765.0,773.5147091613326,13.125826563673336,0.12886052785009564
63865.16776108455,8.712412618697272,PPG_1,PPG_2,188754.0,188754.0,762.7454408629856,17.382625511977256,0.1713702604833589
63865.177763854495,8.72241538864182,PPG_1,PPG_2,188767.0,188767.0,775.9761725646094,21.96827738061425,0.21716402177026503
63865.18776662443,8.732418158579094,PPG_1,PPG_2,188760.0,188760.0,769.2069042662333,26.8953734442504,0.2663675521383201
63865.19776939438,8.742420928523643,PPG_1,PPG_2,188764.0,188764.0,773.4376359678572,32.13923863561964,0.31873443860797607
63865.207772164315,8.752423698460916,PPG_1,PPG_2,188813.0,188813.0,822.6683676694811,37.64665109183294,0.37373319092349555
63865.21777493426,8.762426468405465,PPG_1,PPG_2,188799.0,188799.0,808.8990993711341,43.352189762915245,0.4307104939114816
63865.22777770419,8.772429238342738,PPG_1,PPG_2,188795.0,188795.0,805.129831072758,49.19700541773894,0.4890786606477246
63865.23778047414,8.782432008287287,PPG_1,PPG_2,188804.0,188804.0,814.3605627743818,55.143993197941484,0.5484671503508668
63865.24778324408,8.79243477822456,PPG_1,PPG_2,188807.0,188807.0,817.5912944760057,61.1862783636341,0.6088073097069642
63865.25778601402,8.80243754816911,PPG_1,PPG_2,188817.0,188817.0,827.8220261776587,67.34883928840911,0.6703485806078979
63865.26778878396,8.812440318106383,PPG_1,PPG_2,188805.0,188805.0,816.0527578792826,73.68344740048695,0.733607968812789
63865.277791553905,8.822443088050932,PPG_1,PPG_2,188784.0,188784.0,795.2834895809065,80.25720189698067,0.7992555479999629
63865.28779432384,8.832445857988205,PPG_1,PPG_2,188829.0,188829.0,840.5142212825303,87.1368348482463,0.8679577256045251
63865.297797093786,8.842448627932754,PPG_1,PPG_2,188823.0,188823.0,834.7449529841833,94.37250304067192,0.9402153830646162
63865.30779986373,8.852451397877303,PPG_1,PPG_2,188835.0,188835.0,846.9756846858072,101.98302372323568,1.0162164353446657
63865.31780263367,8.862454167814576,PPG_1,PPG_2,188812.0,188812.0,824.2064163874311,109.94152185538242,1.0956924998401902
63865.32780540361,8.872456937759125,PPG_1,PPG_2,188824.0,188824.0,836.437148089055,118.16072458462688,1.1777720424077298
63865.33780817355,8.882459707696398,PPG_1,PPG_2,188851.0,188851.0,863.6678797906789,126.48003259952888,1.2608512678308985
63865.347810943495,8.892462477640947,PPG_1,PPG_2,188834.0,188834.0,846.8986114923318,134.6574437598277,1.342513466651698
63865.35781371343,8.90246524757822,PPG_1,PPG_2,188808.0,188808.0,821.1293431939557,142.36777997068356,1.4195113081792254
63865.36781648338,8.91246801752277,PPG_1,PPG_2,188855.0,188855.0,868.3600748955796,149.20848141404517,1.4878247035058112
63865.377819253314,8.922470787460043,PPG_1,PPG_2,188813.0,188813.0,826.5908065972035,154.7159948603883,1.5428244643405185
63865.38782202326,8.932473557404592,PPG_1,PPG_2,188857.0,188857.0,870.8215382988565,158.39554319264045,1.5795695908345784
63865.397824793195,8.942476327341865,PPG_1,PPG_2,188885.0,188885.0,899.0522700004803,159.76386059239312,1.5932340385868276
63865.40782756314,8.952479097286414,PPG_1,PPG_2,188840.0,188840.0,854.2830017021042,158.4002216990267,1.5796163118702717
63865.41783033308,8.962481867223687,PPG_1,PPG_2,188873.0,188873.0,887.5137334037281,153.9978464761697,1.5356528087902122
63865.42783310302,8.972484637168236,PPG_1,PPG_2,188857.0,188857.0,871.7444651053811,146.40785518144023,1.4598567694315052
63865.43783587296,8.98248740710551,PPG_1,PPG_2,188866.0,188866.0,880.975196807005,135.669941090066,1.3526245833201216
63865.447838642904,8.992490177050058,PPG_1,PPG_2,188834.0,188834.0,849.2059285086289,122.02439103418587,1.2163558303078617
63865.45784141284,9.002492946987331,PPG_1,PPG_2,188790.0,188790.0,805.4366602102527,105.90055703387692,1.0553381546552796
63865.467844182785,9.01249571693188,PPG_1,PPG_2,188748.0,188748.0,763.6673919118766,87.88080186062929,0.8753872140930453
63865.47784695272,9.022498486869154,PPG_1,PPG_2,188725.0,188725.0,740.8981236135296,68.64542868187482,0.6832967299381155
63865.48784972267,9.032501256813704,PPG_1,PPG_2,188696.0,188696.0,712.1288553151535,48.90891050879643,0.4862016543101267
63865.49785249261,9.042504026758252,PPG_1,PPG_2,188656.0,188656.0,672.3595870167774,29.358183466053486,0.2909619473223079
63865.50785526255,9.052506796695525,PPG_1,PPG_2,188682.0,188682.0,698.5903187184012,10.601249002833093,0.10364930260159877
63865.517858032494,9.062509566640074,PPG_1,PPG_2,188640.0,188640.0,656.8210504200542,-6.869250825707552,-0.0708166014027806
63865.52786080243,9.072512336577349,PPG_1,PPG_2,188615.0,188615.0,632.0517821216781,-22.696909846794792,-0.2288765805955866
63865.537863572375,9.082515106521896,PPG_1,PPG_2,188608.0,188608.0,625.282513823302,-36.66869011516291,-0.36840317107637044
63865.54786634231,9.09251787645917,PPG_1,PPG_2,188612.0,188612.0,629.5132455249259,-48.70956120271365,-0.488647095400613
63865.55786911226,9.102520646403718,PPG_1,PPG_2,188588.0,188588.0,605.7439772265498,-58.865751655193876,-0.5900700063603747
63865.567871882195,9.112523416340991,PPG_1,PPG_2,188583.0,188583.0,600.9747089282027,-67.27969833963259,-0.674094323291888
63865.57787465214,9.12252618628554,PPG_1,PPG_2,188569.0,188569.0,587.2054406298266,-74.16088835017996,-0.7428120501799765
63865.58787742208,9.132528956222814,PPG_1,PPG_2,188578.0,188578.0,596.4361723314505,-79.75582397439445,-0.7986848363683969
63865.59788019202,9.142531726167364,PPG_1,PPG_2,188564.0,188564.0,582.6669040330744,-84.31962132941976,-0.8442603516113284
63865.60788296196,9.152534496104636,PPG_1,PPG_2,188549.0,188549.0,567.8976357347274,-88.09210526713164,-0.881933562280418
63865.6178857319,9.162537266049185,PPG_1,PPG_2,188549.0,188549.0,568.1283674363513,-91.28094371208026,-0.913778305560917
63865.62788850184,9.172540035986458,PPG_1,PPG_2,188522.0,188522.0,541.3590991379751,-94.0525766759986,-0.9414567037386492
63865.637891271785,9.182542805931009,PPG_1,PPG_2,188539.0,188539.0,558.589830839599,-96.5297784879472,-0.966194819863802
63865.64789404172,9.19254557586828,PPG_1,PPG_2,188531.0,188531.0,550.820562541252,-98.79406738952602,-0.9888067207262875
63865.65789681167,9.20254834581283,PPG_1,PPG_2,188523.0,188523.0,543.0512942428759,-100.89209485640166,-1.0097582826293137
63865.6678995816,9.212551115750102,PPG_1,PPG_2,188479.0,188479.0,499.28202594449976,-102.84606880898176,-1.0292712808482303
63865.67790235155,9.222553885694651,PPG_1,PPG_2,188518.0,188518.0,538.5127576461236,-104.66694562736895,-1.047455129239423
63865.68790512149,9.2325566556392,PPG_1,PPG_2,188467.0,188467.0,487.7434893477475,-106.36664572640039,-1.064428868813228
63865.69790789143,9.242559425576474,PPG_1,PPG_2,188494.0,188494.0,514.9742210494005,-107.96517668121773,-1.0803923015053816
63865.707910661375,9.252562195521024,PPG_1,PPG_2,188492.0,188492.0,513.2049527510244,-109.49030385220054,-1.09562270093405
63865.71791343131,9.262564965458296,PPG_1,PPG_2,188526.0,188526.0,547.4356844526483,-110.96994399162234,-1.11039885256445
63865.72791620126,9.272567735402845,PPG_1,PPG_2,188469.0,188469.0,490.66641615427216,-112.42083353004632,-1.1248878916541105
63865.737918971194,9.282570505340118,PPG_1,PPG_2,188488.0,188488.0,509.89714785592514,-113.83888674776935,-1.1390490169215284
63865.74792174114,9.292573275284669,PPG_1,PPG_2,188481.0,188481.0,503.127879557549,-115.19427254271629,-1.1525843256024975
63865.757924511076,9.30257604522194,PPG_1,PPG_2,188491.0,188491.0,513.3586112591729,-116.43083307582665,-1.1649330078601623
63865.76792728102,9.31257881516649,PPG_1,PPG_2,188448.0,188448.0,470.5893429607968,-117.46921738217472,-1.1753026400108704
63865.77793005096,9.322581585103762,PPG_1,PPG_2,188465.0,188465.0,487.82007466244977,-118.21375746115399,-1.1827378513225928
63865.7879328209,9.332584355048311,PPG_1,PPG_2,188435.0,188435.0,458.05080636407365,-118.56145366211172,-1.1862100549008716
63865.79793559084,9.342587124985585,PPG_1,PPG_2,188475.0,188475.0,498.28153806569753,-118.40957435295645,-1.1846933403688669
63865.807938360784,9.352589894930134,PPG_1,PPG_2,188516.0,188516.0,539.5122697673214,-117.659941543093,-1.177207271445383
63865.81794113072,9.362592664867408,PPG_1,PPG_2,188430.0,188430.0,453.7430014689453,-116.22284887992437,-1.1628560122897529
63865.827943900666,9.372595434811956,PPG_1,PPG_2,188442.0,188442.0,465.9737331705983,-114.02624389964329,-1.1409200243451383
63865.8379466706,9.382598204749227,PPG_1,PPG_2,188457.0,188457.0,481.20446487222216,-111.03128415326464,-1.1110114147039265
63865.84794944055,9.392600974693778,PPG_1,PPG_2,188414.0,188414.0,438.43519657384604,-107.24860124123882,-1.0732363538707854
63865.857952210485,9.402603744631053,PPG_1,PPG_2,188465.0,188465.0,489.6659282754699,-102.74847517302905,-1.0282966801162152
63865.86795498043,9.4126065145756,PPG_1,PPG_2,188444.0,188444.0,468.8966599771229,-97.6612607435054,-0.977494157405272
63865.877957750374,9.42260928452015,PPG_1,PPG_2,188458.0,188458.0,483.1273916787468,-92.16749254846388,-0.922631660971563
63865.88796052031,9.432612054457422,PPG_1,PPG_2,188479.0,188479.0,504.35812338037067,-86.4794507571576,-0.8658290873260306
63865.897963290256,9.442614824401971,PPG_1,PPG_2,188456.0,188456.0,481.58885508199455,-80.81733955714763,-0.8092854647177485
63865.90796606019,9.452617594339245,PPG_1,PPG_2,188507.0,188507.0,532.8195867836475,-75.38363440872995,-0.7550227767514174
63865.91796883014,9.462620364283794,PPG_1,PPG_2,188487.0,188487.0,513.0503184852714,-70.3394733637458,-0.7046501986744486
63865.927971600075,9.472623134221068,PPG_1,PPG_2,188452.0,188452.0,478.2810501868953,-65.787130504594,-0.6591890716285979
63865.93797437002,9.482625904165616,PPG_1,PPG_2,188509.0,188509.0,535.5117818885192,-61.761013395390215,-0.6189830003668456
63865.94797713996,9.492628674102887,PPG_1,PPG_2,188473.0,188473.0,499.74251359014306,-58.226596494321704,-0.5836872019738363
63865.9579799099,9.502631444047438,PPG_1,PPG_2,188488.0,188488.0,514.973245291796,-55.085775875885346,-0.5523219798056697
63865.96798267984,9.512634213984713,PPG_1,PPG_2,188481.0,188481.0,508.20397699341993,-52.18834396711324,-0.5233873138135012
63865.97798544978,9.52263698392926,PPG_1,PPG_2,188452.0,188452.0,479.4347086950438,-49.348975538249505,-0.49503248798682736
63865.98798821972,9.532639753866532,PPG_1,PPG_2,188494.0,188494.0,521.6654403966677,-46.367125357769766,-0.4652547945923233
63865.997990989665,9.542642523811082,PPG_1,PPG_2,188493.0,188493.0,520.8961720983207,-43.04647969031935,-0.4320937829477952
63866.0079937596,9.552645293748355,PPG_1,PPG_2,188463.0,188463.0,491.12690379994456,-39.212500569804654,-0.39380646204918146
63866.01799652955,9.562648063692905,PPG_1,PPG_2,188462.0,188462.0,490.35763550156844,-34.7284444347461,-0.3490272676994384
63866.02799929949,9.572650833630178,PPG_1,PPG_2,188474.0,188474.0,502.5883672031923,-29.50847358567599,-0.296898997644351
63866.03800206943,9.582653603574729,PPG_1,PPG_2,188498.0,188498.0,526.8190989048453,-23.52386659440379,-0.23713483067200566
63866.048004839366,9.592656373512,PPG_1,PPG_2,188509.0,188509.0,538.0498306064692,-16.800103169261124,-0.16998921516060983
63866.05800760931,9.602659143456547,PPG_1,PPG_2,188504.0,188504.0,533.2805623080931,-9.407379839361951,-0.09616315571964974
63866.06801037925,9.612661913393822,PPG_1,PPG_2,188490.0,188490.0,519.511294009717,-1.4493656772255514,-0.016691924300808455
63866.07801314919,9.622664683338373,PPG_1,PPG_2,188517.0,188517.0,546.7420257113408,6.947214910220231,0.06715896932624123
63866.08801591914,9.63266745328292,PPG_1,PPG_2,188528.0,188528.0,557.9727574129938,15.64282059791185,0.15399602161769058
63866.098018689074,9.642670223220192,PPG_1,PPG_2,188540.0,188540.0,570.2034891146177,24.49586155548074,0.24240527201170597
63866.10802145902,9.652672993164742,PPG_1,PPG_2,188526.0,188526.0,556.4342208162416,33.37230127498202,0.33104818979893746
63866.11802422896,9.662675763102015,PPG_1,PPG_2,188537.0,188537.0,567.6649525178655,42.15173049661363,0.4187223302543895
63866.1280269989,9.672678533046565,PPG_1,PPG_2,188539.0,188539.0,569.8956842195184,50.72978300078358,0.5043854594965282
63866.13802976884,9.682681302983838,PPG_1,PPG_2,188552.0,188552.0,583.1264159211423,59.01889295686164,0.5871631176100262
63866.14803253878,9.692684072928389,PPG_1,PPG_2,188562.0,188562.0,593.3571476227662,66.94920875163164,0.6663577444239935
