timestamp,time_from_segment_start_sec,selected_channel_name,backup_channel_name,selected_channel_raw,selected_channel_clipped,selected_channel_detrended,selected_channel_filtered,selected_channel_filtered_z
63102.988402526855,0.0,PPG_1,PPG_3,171408.0,171408.0,-598.2676710142114,2.2585670228180077,0.08739068620350969
63102.99851169096,0.0101091641045059,PPG_1,PPG_3,171396.0,171396.0,-610.195254426013,2.894566368553707,0.11209680344827232
63103.008620855064,0.0202183282090118,PPG_1,PPG_3,171437.0,171437.0,-569.1228378378437,3.5618644189286637,0.13801875443816594
63103.018730019176,0.0303274923207936,PPG_1,PPG_3,171397.0,171397.0,-609.0504212496744,4.268644287269492,0.16547442150849487
63103.02883918328,0.0404366564252995,PPG_1,PPG_3,171422.0,171422.0,-583.9780046615051,5.02569405419674,0.19488287990901262
63103.038948347385,0.0505458205298054,PPG_1,PPG_3,171411.0,171411.0,-594.9055880733067,5.845540386355164,0.22673074223906609
63103.049057511496,0.0606549846415873,PPG_1,PPG_3,171428.0,171428.0,-577.8331714851374,6.7405751412114965,0.26149938428230385
63103.0591666756,0.0707641487460932,PPG_1,PPG_3,171423.0,171423.0,-582.7607548969681,7.720685785582447,0.2995728959219391
63103.069275839705,0.0808733128505991,PPG_1,PPG_3,171420.0,171420.0,-585.6883383087697,8.789970082816902,0.34111045943137785
63103.07938500382,0.090982476962381,PPG_1,PPG_3,171399.0,171399.0,-606.6159217206005,9.94227627609607,0.38587310282700804
63103.08949416792,0.1010916410668869,PPG_1,PPG_3,171427.0,171427.0,-578.5435051324312,11.157208726524825,0.43306853434123066
63103.099603332026,0.1112008051713928,PPG_1,PPG_3,171435.0,171435.0,-570.4710885442619,12.399636644776935,0.48133205854501043
63103.10971249614,0.1213099692831747,PPG_1,PPG_3,171433.0,171433.0,-572.3986719560635,13.62407224674417,0.5288966507787819
63103.11982166024,0.1314191333876806,PPG_1,PPG_3,171418.0,171418.0,-587.3262553678942,14.782134530163626,0.5738828960363179
63103.12993082435,0.1415282974921865,PPG_1,PPG_3,171459.0,171459.0,-546.2538387797249,15.830645698665078,0.6146135037564792
63103.14003998846,0.1516374616039684,PPG_1,PPG_3,171463.0,171463.0,-542.1814221915556,16.738924982116636,0.6498966445622065
63103.15014915256,0.1617466257084743,PPG_1,PPG_3,171431.0,171431.0,-574.1090056033572,17.49295179368601,0.679187672826989
63103.16025831667,0.1718557898129802,PPG_1,PPG_3,171422.0,171422.0,-583.0365890151879,18.09332229994634,0.7025097473187594
63103.17036748078,0.181964953924762,PPG_1,PPG_3,171421.0,171421.0,-583.9641724270186,18.547593227395065,0.7201564176647054
63103.18047664488,0.192074118029268,PPG_1,PPG_3,171438.0,171438.0,-566.8917558388202,18.862646304761924,0.7323950124367565
63103.19058580899,0.2021832821337739,PPG_1,PPG_3,171444.0,171444.0,-560.819339250651,19.042867294717794,0.7393959015692232
63103.2006949731,0.2122924462455557,PPG_1,PPG_3,171465.0,171465.0,-539.7469226624817,19.095315683986694,0.7414333188453014
63103.210804137205,0.2224016103500616,PPG_1,PPG_3,171452.0,171452.0,-552.6745060743124,19.038359625451378,0.7392207960346917
63103.22091330131,0.2325107744545675,PPG_1,PPG_3,171475.0,171475.0,-529.602089486114,18.908378878555954,0.7341715462298111
63103.23102246542,0.2426199385663494,PPG_1,PPG_3,171450.0,171450.0,-554.5296728979447,18.759976829252295,0.7284067000015213
63103.241131629526,0.2527291026708553,PPG_1,PPG_3,171436.0,171436.0,-568.4572563097754,18.657583295282382,0.7244291068289372
63103.25124079363,0.2628382667753612,PPG_1,PPG_3,171424.0,171424.0,-580.384839721577,18.660010721688707,0.7245234029658748
63103.26134995774,0.2729474308871431,PPG_1,PPG_3,171424.0,171424.0,-580.3124231334077,18.8036575271364,0.7301035263433935
63103.27145912185,0.283056594991649,PPG_1,PPG_3,171458.0,171458.0,-546.2400065452384,19.091777070649396,0.7412958573894346
63103.28156828595,0.2931657590961549,PPG_1,PPG_3,171479.0,171479.0,-525.1675899570691,19.494063386898773,0.756923126445386
63103.291677450055,0.3032749232006608,PPG_1,PPG_3,171435.0,171435.0,-569.0951733688707,19.954472496398772,0.7748082414476752
63103.30178661417,0.3133840873124427,PPG_1,PPG_3,171452.0,171452.0,-552.0227567807015,20.40162214209403,0.792178277512291
63103.31189577827,0.3234932514169486,PPG_1,PPG_3,171458.0,171458.0,-545.9503401925322,20.75867002642344,0.8060482082777586
63103.322004942376,0.3336024155214545,PPG_1,PPG_3,171477.0,171477.0,-526.8779236043629,20.95334798427896,0.8136106947551396
63103.33211410649,0.3437115796332364,PPG_1,PPG_3,171440.0,171440.0,-563.8055070161645,20.9282985898144,0.8126376225645765
63103.34222327059,0.3538207437377423,PPG_1,PPG_3,171453.0,171453.0,-550.7330904279952,20.64999792936605,0.8018267171879708
63103.3523324347,0.3639299078422482,PPG_1,PPG_3,171476.0,171476.0,-527.6606738398259,20.115712560763516,0.7810717949583166
63103.36244159881,0.3740390719540301,PPG_1,PPG_3,171481.0,171481.0,-522.5882572516275,19.35913054460236,0.7516815068677933
63103.37255076291,0.384148236058536,PPG_1,PPG_3,171478.0,171478.0,-525.5158406634582,18.452891045825215,0.7164776038154662
63103.38265992702,0.3942574001630419,PPG_1,PPG_3,171441.0,171441.0,-562.4434240752889,17.503797410043802,0.6796089831178311
63103.39276909113,0.4043665642748237,PPG_1,PPG_3,171460.0,171460.0,-543.3710074871196,16.638849511476106,0.6460090991935715
63103.402878255234,0.4144757283793296,PPG_1,PPG_3,171438.0,171438.0,-565.2985908989212,15.985412666902413,0.6206256024929409
63103.41298741934,0.4245848924838356,PPG_1,PPG_3,171435.0,171435.0,-568.226174310752,15.651675038054073,0.6076611850881112
63103.42309658345,0.4346940565956174,PPG_1,PPG_3,171458.0,171458.0,-545.1537577225827,15.712955276264458,0.6100416855715848
63103.433205747555,0.4448032207001233,PPG_1,PPG_3,171476.0,171476.0,-527.0813411343843,16.207032022607457,0.6292346581821788
63103.44331491166,0.4549123848046292,PPG_1,PPG_3,171474.0,171474.0,-529.008924546215,17.137711490319962,0.6653879595979223
63103.45342407577,0.4650215489164111,PPG_1,PPG_3,171466.0,171466.0,-536.9365079580457,18.481925895797954,0.7176054955537522
63103.46353323987,0.475130713020917,PPG_1,PPG_3,171459.0,171459.0,-543.8640913698764,20.19546149997087,0.7841697331172359
63103.47364240398,0.4852398771254229,PPG_1,PPG_3,171475.0,171475.0,-527.791674781678,22.215966291303193,0.8626585375522733
63103.48375156809,0.4953490412372048,PPG_1,PPG_3,171482.0,171482.0,-520.7192581935087,24.464782343400266,0.950016352332327
63103.4938607322,0.5054582053417107,PPG_1,PPG_3,171483.0,171483.0,-519.6468416053394,26.848636449819843,1.0426198737706747
63103.5039698963,0.5155673694462166,PPG_1,PPG_3,171466.0,171466.0,-536.5744250171701,29.260369036344123,1.1363063664458493
63103.51407906041,0.5256765335579985,PPG_1,PPG_3,171464.0,171464.0,-538.5020084289717,31.57823392383848,1.2263464616942361
63103.52418822452,0.5357856976625044,PPG_1,PPG_3,171472.0,171472.0,-530.4295918408025,33.666009426364994,1.3074484733425291
63103.53429738862,0.5458948617670103,PPG_1,PPG_3,171519.0,171519.0,-483.35717525263317,35.37752951301081,1.3739344158375237
63103.54440655273,0.5560040258787922,PPG_1,PPG_3,171481.0,171481.0,-521.2847586644348,36.566410472865556,1.4201178475991714
63103.55451571684,0.5661131899832981,PPG_1,PPG_3,171483.0,171483.0,-519.2123420762655,37.09752744025033,1.4407496896833991
63103.56462488094,0.576222354087804,PPG_1,PPG_3,171481.0,171481.0,-521.1399254880962,36.85680252190559,1.4313984567045643
63103.574734045054,0.5863315181995858,PPG_1,PPG_3,171528.0,171528.0,-474.0675088999269,35.75934504865533,1.3887664741607808
63103.58484320916,0.5964406823040918,PPG_1,PPG_3,171498.0,171498.0,-503.9950923117285,33.7563483558656,1.3109577917073563
63103.59495237326,0.6065498464085977,PPG_1,PPG_3,171437.0,171437.0,-564.9226757235592,30.83817475527038,1.1975980223926914
63103.60506153737,0.6166590105131036,PPG_1,PPG_3,171485.0,171485.0,-516.8502591353899,27.032166623865738,1.0497493119192067
63103.61517070148,0.6267681746248854,PPG_1,PPG_3,171453.0,171453.0,-548.7778425471915,22.39952952191095,0.8697892598205117
63103.625279865584,0.6368773387293913,PPG_1,PPG_3,171511.0,171511.0,-490.70542595902225,17.037268316684834,0.6614861303886564
63103.63538902969,0.6469865028338972,PPG_1,PPG_3,171492.0,171492.0,-509.63300937085296,11.085301145170694,0.4302752026379293
63103.6454981938,0.6570956669456791,PPG_1,PPG_3,171471.0,171471.0,-530.5605927826837,4.7322184672340875,0.18348248726931962
63103.655607357905,0.667204831050185,PPG_1,PPG_3,171449.0,171449.0,-552.4881761944853,-1.7877072104444653,-0.06979143400104165
63103.66571652201,0.6773139951546909,PPG_1,PPG_3,171474.0,171474.0,-527.415759606316,-8.208625888047832,-0.31921931585593744
63103.67582568612,0.6874231592664728,PPG_1,PPG_3,171430.0,171430.0,-571.3433430181467,-14.255528751980156,-0.5541181284501361
63103.685934850226,0.6975323233709787,PPG_1,PPG_3,171434.0,171434.0,-567.2709264299774,-19.671071539746304,-0.7644910414974097
63103.69604401433,0.7076414874754846,PPG_1,PPG_3,171403.0,171403.0,-598.198509841779,-24.243066287233603,-0.9420953724314246
63103.70615317844,0.7177506515872665,PPG_1,PPG_3,171428.0,171428.0,-573.1260932536097,-27.8276059686572,-1.0813408893199878
63103.71626234255,0.7278598156917724,PPG_1,PPG_3,171413.0,171413.0,-588.0536766654404,-30.362455522166645,-1.179810000470401
63103.72637150665,0.7379689797962783,PPG_1,PPG_3,171425.0,171425.0,-575.981260077242,-31.867885127082364,-1.2382901240305293
63103.73648067076,0.7480781439080602,PPG_1,PPG_3,171424.0,171424.0,-576.9088434890728,-32.43547814986023,-1.2603389199327293
63103.74658983487,0.7581873080125661,PPG_1,PPG_3,171458.0,171458.0,-542.8364269009035,-32.20764300455698,-1.251488404833805
63103.75669899897,0.768296472117072,PPG_1,PPG_3,171457.0,171457.0,-543.7640103127342,-31.35244378558302,-1.2182672194453843
63103.76680816308,0.7784056362288538,PPG_1,PPG_3,171441.0,171441.0,-559.6915937245358,-30.04039767290595,-1.1672992973749021
63103.77691732719,0.7885148003333597,PPG_1,PPG_3,171430.0,171430.0,-570.6191771363665,-28.42945615991845,-1.1047204438569236
63103.78702649129,0.7986239644378657,PPG_1,PPG_3,171437.0,171437.0,-563.5467605481972,-26.659967795164366,-1.0359826577318652
63103.797135655404,0.8087331285496475,PPG_1,PPG_3,171414.0,171414.0,-586.4743439599988,-24.85636262600355,-0.9659195655741181
63103.80724481951,0.8188422926541534,PPG_1,PPG_3,171439.0,171439.0,-561.4019273718295,-23.130310149021735,-0.8988690958639698
63103.81735398361,0.8289514567586593,PPG_1,PPG_3,171456.0,171456.0,-544.3295107836602,-21.581189381692646,-0.8386917394554396
63103.827463147725,0.8390606208704412,PPG_1,PPG_3,171463.0,171463.0,-537.2570941954909,-20.29295190060204,-0.7886486907316936
63103.83757231183,0.8491697849749471,PPG_1,PPG_3,171450.0,171450.0,-550.1846776072925,-19.330492344573123,-0.7512608556749037
63103.847681475934,0.859278949079453,PPG_1,PPG_3,171413.0,171413.0,-587.1122610191233,-18.739711441948295,-0.728311300232623
63103.857790640046,0.8693881131912349,PPG_1,PPG_3,171447.0,171447.0,-553.039844430954,-18.551538024954183,-0.7210014900358431
63103.86789980415,0.8794972772957408,PPG_1,PPG_3,171421.0,171421.0,-578.9674278427847,-18.78530965347468,-0.7300826145707207
63103.878008968255,0.8896064414002467,PPG_1,PPG_3,171488.0,171488.0,-511.8950112545863,-19.446730480203257,-0.7557762581300254
63103.88811813237,0.8997156055120286,PPG_1,PPG_3,171439.0,171439.0,-560.822594666417,-20.520381879684297,-0.7974834666883897
63103.89822729647,0.9098247696165344,PPG_1,PPG_3,171455.0,171455.0,-544.7501780782477,-21.961470434824545,-0.8534641890619253
63103.908336460576,0.9199339337210404,PPG_1,PPG_3,171443.0,171443.0,-556.6777614900493,-23.691663506775562,-0.9206755048884386
63103.91844562468,0.9300430978255464,PPG_1,PPG_3,171435.0,171435.0,-564.60534490188,-25.600298454952696,-0.9948185981530531
63103.92855478879,0.940152261937328,PPG_1,PPG_3,171445.0,171445.0,-554.5329283137107,-27.549325989409073,-1.070530787328104
63103.9386639529,0.950261426041834,PPG_1,PPG_3,171460.0,171460.0,-539.4605117255414,-29.38018532974875,-1.1416525987330772
63103.948773117,0.96037059014634,PPG_1,PPG_3,171444.0,171444.0,-555.388095137343,-30.922624435418346,-1.2015703984023496
63103.95888228111,0.9704797542581218,PPG_1,PPG_3,171433.0,171433.0,-566.3156785491738,-32.00728073842602,-1.2437051049426209
63103.96899144522,0.9805889183626276,PPG_1,PPG_3,171432.0,171432.0,-567.2432619610045,-32.483035636147996,-1.2621863445251753
63103.97910060932,0.9906980824671336,PPG_1,PPG_3,171423.0,171423.0,-576.1708453728061,-32.236991831457736,-1.2526284933626188
63103.989209773434,1.0008072465789155,PPG_1,PPG_3,171421.0,171421.0,-578.0984287846368,-31.212646698171813,-1.2128366427392678
63103.99931893754,1.0109164106834214,PPG_1,PPG_3,171422.0,171422.0,-577.0260121964675,-29.42173784361631,-1.1432667533486596
63104.00942810164,1.021025574787927,PPG_1,PPG_3,171447.0,171447.0,-551.9535956082982,-26.946371316019906,-1.047108327927932
63104.019537265754,1.0311347388997092,PPG_1,PPG_3,171460.0,171460.0,-538.8811790200998,-23.93045746561167,-0.9299517275510916
63104.02964642986,1.041243903004215,PPG_1,PPG_3,171434.0,171434.0,-564.8087624319305,-20.562969360490758,-0.7991378257707035
63104.03975559396,1.051353067108721,PPG_1,PPG_3,171443.0,171443.0,-555.7363458437612,-17.05719030359831,-0.6629518548344815
63104.049864758075,1.0614622312205029,PPG_1,PPG_3,171481.0,171481.0,-517.6639292555919,-13.628230726351074,-0.5297500238718639
63104.05997392218,1.0715713953250088,PPG_1,PPG_3,171461.0,171461.0,-537.5915126673935,-10.469454224090674,-0.40704376145492416
63104.07008308629,1.081680559429515,PPG_1,PPG_3,171490.0,171490.0,-508.51909607922425,-7.730244386925261,-0.3006360428797867
63104.0801922504,1.0917897235412966,PPG_1,PPG_3,171495.0,171495.0,-503.44667949105497,-5.499829746092335,-0.2139930518290487
63104.0903014145,1.1018988876458025,PPG_1,PPG_3,171440.0,171440.0,-558.3742629028566,-3.8015106430569405,-0.14801991654213079
63104.100410578605,1.1120080517503084,PPG_1,PPG_3,171483.0,171483.0,-515.3018463146873,-2.5986087027802727,-0.10129182386453535
63104.11051974272,1.1221172158620902,PPG_1,PPG_3,171445.0,171445.0,-553.229429726518,-1.8090445426886168,-0.07062030691679073
63104.12062890682,1.132226379966596,PPG_1,PPG_3,171467.0,171467.0,-531.1570131383487,-1.322799916704227,-0.05173158192084021
63104.130738070926,1.142335544071102,PPG_1,PPG_3,171501.0,171501.0,-497.0845965501503,-1.0177526031660145,-0.03988167241384696
63104.14084723504,1.152444708182884,PPG_1,PPG_3,171469.0,171469.0,-529.012179961981,-0.773033571404363,-0.03037528356098689
63104.15095639914,1.1625538722873898,PPG_1,PPG_3,171441.0,171441.0,-556.9397633738117,-0.4820605495200606,-0.019072105905323232
63104.16106556325,1.1726630363918955,PPG_1,PPG_3,171445.0,171445.0,-552.8673467856133,-0.06590599215550952,-0.002906109265346215
63104.17117472736,1.1827722005036776,PPG_1,PPG_3,171492.0,171492.0,-505.79493019744405,0.5173685560196126,0.019751853309176674
63104.18128389146,1.1928813646081835,PPG_1,PPG_3,171481.0,171481.0,-516.7225136092748,1.272458979148236,0.04908419877351581
63104.19139305557,1.2029905287126894,PPG_1,PPG_3,171484.0,171484.0,-513.6500970211055,2.174683332633992,0.08413212894475602
63104.20150221968,1.2130996928244713,PPG_1,PPG_3,171459.0,171459.0,-538.5776804329071,3.1803435930823047,0.12319814445188475
63104.211611383784,1.2232088569289772,PPG_1,PPG_3,171482.0,171482.0,-515.5052638447378,4.235969888213878,0.1642051473506161
63104.22172054789,1.233318021033483,PPG_1,PPG_3,171486.0,171486.0,-511.4328472565685,5.287004856258469,0.20503379493171917
63104.23182971199,1.243427185137989,PPG_1,PPG_3,171502.0,171502.0,-495.3604306683992,6.286914548370233,0.2438764230776825
63104.241938876105,1.2535363492497709,PPG_1,PPG_3,171480.0,171480.0,-517.2880140802008,7.2049172495270914,0.27953728109248827
63104.25204804021,1.2636455133542768,PPG_1,PPG_3,171482.0,171482.0,-515.2155974920315,8.029154725453875,0.31155572239169815
63104.26215720431,1.273754677458783,PPG_1,PPG_3,171469.0,171469.0,-528.1431809038622,8.764366945840177,0.34011587648373504
63104.272266368425,1.2838638415705643,PPG_1,PPG_3,171488.0,171488.0,-509.07076431566384,9.42645213044529,0.36583532777963607
63104.28237553253,1.2939730056750705,PPG_1,PPG_3,171483.0,171483.0,-513.9983477274945,10.037246747012716,0.3895623386807695
63104.292484696634,1.3040821697795764,PPG_1,PPG_3,171466.0,171466.0,-530.9259311393253,10.621292997778896,0.41225027891929567
63104.302593860746,1.3141913338913582,PPG_1,PPG_3,171492.0,171492.0,-504.85351455115597,11.205020998775998,0.434925856383928
63104.31270302485,1.324300497995864,PPG_1,PPG_3,171501.0,171501.0,-495.7810979629576,11.81863841326339,0.4587625220776906
63104.322812188955,1.33440966210037,PPG_1,PPG_3,171490.0,171490.0,-506.7086813747883,12.499950323213646,0.48522885736615373
63104.33292135307,1.344518826212152,PPG_1,PPG_3,171504.0,171504.0,-492.636264786619,13.297274234675609,0.5162018106729613
63104.34303051717,1.3546279903166578,PPG_1,PPG_3,171493.0,171493.0,-503.5638481984206,14.268375320364266,0.5539253357683953
63104.35313968128,1.3647371544211635,PPG_1,PPG_3,171500.0,171500.0,-496.4914316102513,15.474087080043686,0.6007625790733718
63104.36324884539,1.3748463185329456,PPG_1,PPG_3,171495.0,171495.0,-501.419015022082,16.9668828867461,0.6587519283866436
63104.37335800949,1.3849554826374515,PPG_1,PPG_3,171498.0,171498.0,-498.34659843391273,18.775558824689927,0.7290120003194708
63104.3834671736,1.3950646467419574,PPG_1,PPG_3,171446.0,171446.0,-550.2741818457143,20.88820071802521,0.811079975173378
63104.39357633771,1.4051738108537393,PPG_1,PPG_3,171495.0,171495.0,-501.20176525754505,23.237706293292142,0.9023491888902909
63104.40368550181,1.4152829749582452,PPG_1,PPG_3,171475.0,171475.0,-521.1293486693758,25.69619299698745,0.9978518983717369
63104.41379466592,1.425392139062751,PPG_1,PPG_3,171520.0,171520.0,-476.05693208120647,28.08313700373716,1.0905754504993341
63104.42390383003,1.435501303174533,PPG_1,PPG_3,171520.0,171520.0,-475.9845154930081,30.186647818792554,1.172288718242194
63104.434012994134,1.4456104672790389,PPG_1,PPG_3,171525.0,171525.0,-470.9120989048388,31.79195835541404,1.2346488300849898
63104.44412215824,1.4557196313835448,PPG_1,PPG_3,171506.0,171506.0,-489.8396823166695,32.709460705865666,1.2702902514081233
63104.45423132235,1.4658287954953266,PPG_1,PPG_3,171520.0,171520.0,-475.7672657284711,32.796923615412396,1.27368784750994
63104.464340486455,1.4759379595998323,PPG_1,PPG_3,171541.0,171541.0,-454.6948491403018,31.97420874709573,1.2417285536334208
63104.47444965056,1.4860471237043384,PPG_1,PPG_3,171511.0,171511.0,-484.6224325521325,30.229927219007113,1.1739699557201146
63104.48455881467,1.4961562878161203,PPG_1,PPG_3,171488.0,171488.0,-507.55001596396323,27.618633109237052,1.0725312689209814
63104.494667978775,1.5062654519206262,PPG_1,PPG_3,171491.0,171491.0,-504.47759937576484,24.248932048458283,0.9416314023635742
63104.50477714288,1.516374616025132,PPG_1,PPG_3,171512.0,171512.0,-483.40518278759555,20.266955516694416,0.7869469994325459
63104.51488630699,1.526483780136914,PPG_1,PPG_3,171485.0,171485.0,-510.33276619942626,15.840283155218772,0.6149878817069493
63104.524995471096,1.53659294424142,PPG_1,PPG_3,171484.0,171484.0,-511.26034961122787,11.143943602295314,0.43255323551792524
63104.5351046352,1.5467021083459258,PPG_1,PPG_3,171473.0,171473.0,-522.1879330230586,6.348154423911054,0.2462553556273945
63104.545213799305,1.5568112724504315,PPG_1,PPG_3,171481.0,171481.0,-514.1155164348893,1.608683071311485,0.06214520567107816
63104.55532296342,1.5669204365622136,PPG_1,PPG_3,171466.0,171466.0,-529.04309984672,-2.9384818648344906,-0.11449458302829904
63104.56543212752,1.5770296006667197,PPG_1,PPG_3,171482.0,171482.0,-512.9706832585216,-7.177630306164685,-0.2791691210001984
63104.575541291626,1.5871387647712254,PPG_1,PPG_3,171484.0,171484.0,-510.8982666703523,-11.010187406898297,-0.42804915635375873
63104.58565045574,1.5972479288830073,PPG_1,PPG_3,171471.0,171471.0,-523.825850082183,-14.35059975036598,-0.5578112694076629
63104.59575961984,1.6073570929875132,PPG_1,PPG_3,171456.0,171456.0,-538.7534334940137,-17.124476647856156,-0.6655656693318577
63104.60586878395,1.617466257092019,PPG_1,PPG_3,171464.0,171464.0,-530.6810169058153,-19.270521993748766,-0.748931239255311
63104.61597794806,1.627575421203801,PPG_1,PPG_3,171458.0,171458.0,-536.608600317646,-20.7450312657464,-0.8062102273497455
63104.62608711216,1.6376845853083069,PPG_1,PPG_3,171461.0,171461.0,-533.5361837294768,-21.526818490520036,-0.8365796404084527
63104.63619627627,1.6477937494128128,PPG_1,PPG_3,171483.0,171483.0,-511.46376714127837,-21.621723077363182,-0.8402663169205177
63104.64630544038,1.6579029135245946,PPG_1,PPG_3,171433.0,171433.0,-561.3913505531091,-21.067384317376533,-0.8187323979167112
63104.65641460448,1.6680120776291003,PPG_1,PPG_3,171437.0,171437.0,-557.3189339649398,-19.9386573840453,-0.7748857176658929
63104.66652376859,1.6781212417336064,PPG_1,PPG_3,171443.0,171443.0,-551.2465173767705,-18.350927110105342,-0.7132085311026838
63104.6766329327,1.6882304058453883,PPG_1,PPG_3,171482.0,171482.0,-512.1741007885721,-16.45599470125428,-0.6395977285478173
63104.686742096805,1.6983395699498942,PPG_1,PPG_3,171475.0,171475.0,-519.1016842004028,-14.428008295407036,-0.5608182922958996
63104.69685126091,1.7084487340544,PPG_1,PPG_3,171465.0,171465.0,-529.0292676122335,-12.443015101187283,-0.4837089762010539
63104.70696042502,1.718557898166182,PPG_1,PPG_3,171486.0,171486.0,-507.95685102403513,-10.658256820230285,-0.4143780128305211
63104.717069589125,1.728667062270688,PPG_1,PPG_3,171500.0,171500.0,-493.88443443586584,-9.195270450367936,-0.3575466449625273
63104.72717875323,1.7387762263751938,PPG_1,PPG_3,171476.0,171476.0,-517.8120178476966,-8.129202571734314,-0.316134026888321
63104.73728791734,1.7488853904869757,PPG_1,PPG_3,171454.0,171454.0,-539.7396012595273,-7.486523822175588,-0.29116844061252356
63104.747397081446,1.7589945545914816,PPG_1,PPG_3,171461.0,171461.0,-532.6671846713289,-7.250666647590246,-0.2820063006710377
63104.75750624555,1.7691037186959877,PPG_1,PPG_3,171506.0,171506.0,-487.5947680831596,-7.370991739674163,-0.2866804655934455
63104.76761540966,1.7792128828077691,PPG_1,PPG_3,171473.0,171473.0,-520.5223514949903,-7.770955239124731,-0.30221750219152677
63104.77772457377,1.7893220469122753,PPG_1,PPG_3,171462.0,171462.0,-531.449934906821,-8.356086628533092,-0.3249475958736064
63104.78783373787,1.7994312110167812,PPG_1,PPG_3,171468.0,171468.0,-525.3775183186226,-9.023935158597792,-0.35089093087253537
63104.79794290198,1.809540375128563,PPG_1,PPG_3,171492.0,171492.0,-501.3051017304533,-9.674963251441286,-0.37618085687524183
63104.80805206609,1.819649539233069,PPG_1,PPG_3,171466.0,171466.0,-527.232685142284,-10.221996135583252,-0.39743097083049816
63104.81816123019,1.8297587033375748,PPG_1,PPG_3,171475.0,171475.0,-518.1602685540856,-10.598140140532834,-0.4120427120995856
63104.828270394304,1.8398678674493567,PPG_1,PPG_3,171452.0,171452.0,-541.0878519659163,-10.764011520795197,-0.418486174338642
63104.83837955841,1.8499770315538624,PPG_1,PPG_3,171446.0,171446.0,-547.015435377747,-10.712805472646357,-0.4164970172149931
63104.84848872251,1.8600861956583683,PPG_1,PPG_3,171490.0,171490.0,-502.94301878957776,-10.46949398549097,-0.4070453060316979
63104.85859788662,1.8701953597628744,PPG_1,PPG_3,171514.0,171514.0,-478.87060220137937,-10.081869533539749,-0.3919875937540763
63104.86870705073,1.8803045238746563,PPG_1,PPG_3,171456.0,171456.0,-536.7981856132101,-9.606533203678575,-0.37352261391567626
63104.878816214834,1.8904136879791624,PPG_1,PPG_3,171488.0,171488.0,-504.7257690250408,-9.096615828733514,-0.3537142940879863
63104.88892537894,1.900522852083668,PPG_1,PPG_3,171483.0,171483.0,-509.6533524368424,-8.595098956650755,-0.3342323013391253
63104.89903454305,1.91063201619545,PPG_1,PPG_3,171469.0,171469.0,-523.5809358486731,-8.132741570611557,-0.316271503320925
63104.909143707155,1.920741180299956,PPG_1,PPG_3,171457.0,171457.0,-535.5085192605038,-7.728378948262269,-0.30056357779530224
63104.91925287126,1.9308503444044616,PPG_1,PPG_3,171498.0,171498.0,-494.4361026723345,-7.3894806096486265,-0.28739868675573915
63104.92936203537,1.9409595085162437,PPG_1,PPG_3,171482.0,171482.0,-510.36368608413613,-7.110995517184906,-0.2765806169079339
63104.939471199476,1.9510686726207496,PPG_1,PPG_3,171488.0,171488.0,-504.29126949596684,-6.872860793193475,-0.26733000297188364
63104.94958036358,1.9611778367252557,PPG_1,PPG_3,171478.0,171478.0,-514.2188529077976,-6.638987359941562,-0.2582449237165378
63104.95968952769,1.9712870008370371,PPG_1,PPG_3,171478.0,171478.0,-514.1464363196283,-6.359623883161966,-0.2473927320319107
63104.96979869179,1.9813961649415432,PPG_1,PPG_3,171505.0,171505.0,-487.07401973142987,-5.976631301384185,-0.23251495001417827
63104.9799078559,1.9915053290460492,PPG_1,PPG_3,171466.0,171466.0,-526.0016031432606,-5.430745797627734,-0.21130940735371798
63104.99001702001,2.001614493157831,PPG_1,PPG_3,171457.0,171457.0,-534.9291865550913,-4.670426419015378,-0.18177393717216817
63105.00012618412,2.011723657262337,PPG_1,PPG_3,171483.0,171483.0,-508.8567699668929,-3.6603179780631567,-0.14253512703908222
63105.01023534822,2.021832821366843,PPG_1,PPG_3,171515.0,171515.0,-476.7843533787236,-2.3854632613332734,-0.09301194700320815
63105.02034451233,2.0319419854786247,PPG_1,PPG_3,171494.0,171494.0,-497.7119367905543,-0.8500936528952656,-0.03336876998667322
63105.03045367644,2.0420511495831306,PPG_1,PPG_3,171493.0,171493.0,-498.63952020238503,0.9249181516231012,0.03558358043208432
63105.04056284054,2.0521603136876365,PPG_1,PPG_3,171469.0,171469.0,-522.5671036141866,2.9014053851159627,0.11236247281752382
63105.050672004654,2.0622694777994184,PPG_1,PPG_3,171495.0,171495.0,-496.49468702601735,5.020472828101465,0.19468005544867914
63105.06078116876,2.0723786419039243,PPG_1,PPG_3,171501.0,171501.0,-490.42227043784806,7.200474138216303,0.27936468338509773
63105.07089033286,2.08248780600843,PPG_1,PPG_3,171487.0,171487.0,-504.34985384964966,9.339418557742967,0.362454409755378
63105.080999496975,2.092596970120212,PPG_1,PPG_3,171484.0,171484.0,-507.2774372614804,11.321881843504809,0.4394654486815462
63105.09110866108,2.102706134224718,PPG_1,PPG_3,171514.0,171514.0,-477.2050206733111,13.030004765828567,0.5058194244683936
63105.101217825184,2.112815298329224,PPG_1,PPG_3,171511.0,171511.0,-480.1326040851418,14.358733379616542,0.5574353972501623
63105.111326989296,2.1229244624410057,PPG_1,PPG_3,171532.0,171532.0,-459.0601874969434,15.233597360068659,0.5914204826424546
63105.1214361534,2.1330336265455117,PPG_1,PPG_3,171510.0,171510.0,-480.9877709087741,15.62642125206756,0.6066801730766362
63105.131545317505,2.1431427906500176,PPG_1,PPG_3,171506.0,171506.0,-484.9153543206048,15.564238864793404,0.6042646275877059
63105.14165448162,2.153251954761799,PPG_1,PPG_3,171508.0,171508.0,-482.84293773243553,15.129786053055359,0.5873878144650435
63105.15176364572,2.1633611188663053,PPG_1,PPG_3,171535.0,171535.0,-455.77052114423714,14.455098796651473,0.561178821370908
63105.161872809826,2.1734702829708112,PPG_1,PPG_3,171509.0,171509.0,-481.69810455606785,13.70973608238057,0.5322243598103388
63105.17198197393,2.183579447075317,PPG_1,PPG_3,171516.0,171516.0,-474.62568796789856,13.083031365232571,0.5078793029741662
63105.18209113804,2.193688611187099,PPG_1,PPG_3,171506.0,171506.0,-484.55327137970016,12.759602350662357,0.49531533540422085
63105.19220030215,2.203797775291605,PPG_1,PPG_3,171466.0,171466.0,-524.4808547915309,12.890077589803042,0.5003837943222396
63105.20230946625,2.213906939396111,PPG_1,PPG_3,171476.0,171476.0,-514.4084382033616,13.562591510225843,0.5265083617107184
63105.21241863036,2.2240161035078927,PPG_1,PPG_3,171500.0,171500.0,-490.3360216151923,14.783190151807164,0.5739239028585202
63105.22252779447,2.2341252676123986,PPG_1,PPG_3,171524.0,171524.0,-466.2636050269939,16.4719667781097,0.6395263497940299
63105.23263695857,2.2442344317169045,PPG_1,PPG_3,171503.0,171503.0,-487.1911884388246,18.475445035251678,0.7173537391618993
63105.24274612268,2.2543435958286864,PPG_1,PPG_3,171543.0,171543.0,-447.1187718506553,20.589597215498493,0.7994803828269613
63105.25285528679,2.2644527599331923,PPG_1,PPG_3,171509.0,171509.0,-481.0463552624569,22.586716897383873,0.877060766114003
63105.26296445089,2.274561924037698,PPG_1,PPG_3,171533.0,171533.0,-456.97393867428764,24.241464168645656,0.9413413040868109
63105.27307361501,2.28467108814948,PPG_1,PPG_3,171525.0,171525.0,-464.90152208611835,25.353625322861426,0.9845444678248818
63105.28318277911,2.294780252253986,PPG_1,PPG_3,171535.0,171535.0,-454.82910549794906,25.766495655262446,1.0005828850144218
63105.29329194321,2.304889416358492,PPG_1,PPG_3,171539.0,171539.0,-450.75668890975066,25.379906087427525,0.9855653739861939
63105.303401107325,2.3149985804702737,PPG_1,PPG_3,171521.0,171521.0,-468.6842723215814,24.15636962050448,0.9380357096748638
63105.31351027143,2.3251077445747796,PPG_1,PPG_3,171514.0,171514.0,-475.6118557334121,22.11930075515168,0.8589034549634311
63105.323619435534,2.3352169086792856,PPG_1,PPG_3,171536.0,171536.0,-453.5394391452428,19.344178126099138,0.7511006631812233
63105.333728599646,2.3453260727910674,PPG_1,PPG_3,171484.0,171484.0,-505.4670225570444,15.945099949676004,0.6190596091866136
63105.34383776375,2.3554352368955733,PPG_1,PPG_3,171515.0,171515.0,-474.3946059688751,12.059436680132176,0.46811660436328495
63105.353946927855,2.3655444010000792,PPG_1,PPG_3,171480.0,171480.0,-509.3221893807058,7.8335831850713635,0.3039585236857153
63105.36405609197,2.375653565111861,PPG_1,PPG_3,171526.0,171526.0,-463.24977279250743,3.413008124646196,0.13223626254753457
63105.37416525607,2.385762729216367,PPG_1,PPG_3,171492.0,171492.0,-497.17735620433814,-1.062080052162479,-0.041603622537555104
63105.384274420176,2.395871893320873,PPG_1,PPG_3,171490.0,171490.0,-499.10493961616885,-5.457116394070594,-0.2123338031363551
63105.39438358429,2.405981057432655,PPG_1,PPG_3,171508.0,171508.0,-481.03252302799956,-9.642203828553559,-0.37490827986999553
63105.40449274839,2.4160902215371607,PPG_1,PPG_3,171517.0,171517.0,-471.96010643980117,-13.491525305875316,-0.5244395464807877
63105.4146019125,2.4261993856416666,PPG_1,PPG_3,171475.0,171475.0,-513.8876898516319,-16.88530413634396,-0.6562747413603686
63105.42471107661,2.4363085497534485,PPG_1,PPG_3,171457.0,171457.0,-531.8152732634626,-19.71676433255766,-0.7662660299529908
63105.43482024071,2.4464177138579544,PPG_1,PPG_3,171488.0,171488.0,-500.7428566752642,-21.903027027523816,-0.8511938884985105
63105.44492940482,2.4565268779624603,PPG_1,PPG_3,171471.0,171471.0,-517.6704400870949,-23.394848135853056,-0.9091453745459672
63105.45503856893,2.466636042074242,PPG_1,PPG_3,171490.0,171490.0,-498.5980234989256,-24.181290471906383,-0.9396956206917438
63105.46514773303,2.476745206178748,PPG_1,PPG_3,171463.0,171463.0,-525.5256069107563,-24.289553386709617,-0.9439012166319322
63105.47525689714,2.486854370283254,PPG_1,PPG_3,171490.0,171490.0,-498.45319032255793,-23.781701246825317,-0.9241731232068183
63105.48536606124,2.49696353438776,PPG_1,PPG_3,171475.0,171475.0,-513.3807737343886,-22.74898836648509,-0.884056217941219
63105.495475225354,2.5070726984995417,PPG_1,PPG_3,171474.0,171474.0,-514.3083571462194,-21.303792142825042,-0.8279159285166584
63105.50558438946,2.5171818626040476,PPG_1,PPG_3,171496.0,171496.0,-492.23594055805006,-19.569247906258227,-0.7605355867565967
63105.51569355356,2.5272910267085535,PPG_1,PPG_3,171498.0,171498.0,-490.16352396985167,-17.667018371169096,-0.6866413190415909
63105.525802717675,2.5374001908203354,PPG_1,PPG_3,171496.0,171496.0,-492.0911073816824,-15.704824808280971,-0.6104176805320969
63105.53591188178,2.5475093549248413,PPG_1,PPG_3,171518.0,171518.0,-470.0186907935131,-13.766747929692958,-0.5351308820270283
63105.54602104589,2.5576185190293472,PPG_1,PPG_3,171473.0,171473.0,-514.9462742053147,-11.909093932592967,-0.4629682017345442
63105.55613021,2.567727683141129,PPG_1,PPG_3,171515.0,171515.0,-472.8738576171454,-10.162648721424311,-0.39512555309349057
63105.5662393741,2.577836847245635,PPG_1,PPG_3,171498.0,171498.0,-489.8014410289761,-8.539852253435384,-0.3320861803781883
63105.576348538205,2.587946011350141,PPG_1,PPG_3,171519.0,171519.0,-468.7290244408068,-7.044885187033323,-0.2740124860147714
63105.58645770232,2.5980551754619228,PPG_1,PPG_3,171441.0,171441.0,-546.6566078526084,-5.685618545957357,-0.22121022886390762
63105.59656686642,2.6081643395664287,PPG_1,PPG_3,171505.0,171505.0,-482.58419126443914,-4.485140311492567,-0.1745762877925309
63105.606676030526,2.6182735036709346,PPG_1,PPG_3,171489.0,171489.0,-498.51177467626985,-3.4872625264443102,-0.13581259138522112
63105.61678519464,2.6283826677827165,PPG_1,PPG_3,171527.0,171527.0,-460.43935808807146,-2.7510737539472268,-0.10721450201682525
63105.62689435874,2.6384918318872224,PPG_1,PPG_3,171523.0,171523.0,-464.36694149990217,-2.3357097430599034,-0.0910792150530213
63105.63700352285,2.6486009959917283,PPG_1,PPG_3,171516.0,171516.0,-471.2945249117329,-2.2818985569519312,-0.08898885838523979
63105.64711268696,2.65871016010351,PPG_1,PPG_3,171516.0,171516.0,-471.2221083235636,-2.597103611739265,-0.10123335689287494
63105.65722185106,2.668819324208016,PPG_1,PPG_3,171525.0,171525.0,-462.1496917353652,-3.2478510080881153,-0.1265123789213032
63105.66733101517,2.678928488312522,PPG_1,PPG_3,171516.0,171516.0,-471.0772751471959,-4.159917493113905,-0.16194263787542165
63105.67744017928,2.689037652424304,PPG_1,PPG_3,171509.0,171509.0,-478.0048585590266,-5.2261676336475915,-0.20336233612023263
63105.68754934338,2.6991468165288097,PPG_1,PPG_3,171484.0,171484.0,-502.9324419708573,-6.321139476422099,-0.2458977615238665
63105.69765850749,2.7092559806333156,PPG_1,PPG_3,171490.0,171490.0,-496.86002538265893,-7.319178195091004,-0.2846677095805325
63105.7077676716,2.7193651447450975,PPG_1,PPG_3,171525.0,171525.0,-461.78760879448964,-8.110816770057038,-0.31541980953114385
63105.717876835704,2.7294743088496034,PPG_1,PPG_3,171494.0,171494.0,-492.71519220632035,-8.61350230658762,-0.3349472003783855
63105.72798599981,2.7395834729541093,PPG_1,PPG_3,171491.0,171491.0,-495.64277561812196,-8.7766863229496,-0.3412862689131914
63105.73809516392,2.749692637065891,PPG_1,PPG_3,171496.0,171496.0,-490.57035902995267,-8.58260489540546,-0.3337469553335686
63105.748204328025,2.759801801170397,PPG_1,PPG_3,171528.0,171528.0,-458.4979424417834,-8.042169992838325,-0.31275314746959915
63105.75831349213,2.769910965274903,PPG_1,PPG_3,171527.0,171527.0,-459.4255258536141,-7.185679213608966,-0.279481789955511
63105.76842265624,2.780020129386685,PPG_1,PPG_3,171520.0,171520.0,-466.3531092654157,-6.051811910297418,-0.23543542619201832
63105.778531820346,2.7901292934911908,PPG_1,PPG_3,171528.0,171528.0,-458.2806926772464,-4.680454633997931,-0.1821634945778099
63105.78864098445,2.8002384575956967,PPG_1,PPG_3,171488.0,171488.0,-498.2082760890771,-3.112466753276418,-0.12125322371163322
63105.798750148555,2.8103476217002026,PPG_1,PPG_3,171506.0,171506.0,-480.1358595008787,-1.3949255658130806,-0.054533384713855125
63105.80885931267,2.8204567858119844,PPG_1,PPG_3,171524.0,171524.0,-462.06344291270943,0.41303161499544333,0.015698766281357242
63105.81896847677,2.8305659499164904,PPG_1,PPG_3,171502.0,171502.0,-483.99102632454014,2.2385722675537005,0.08661396721605714
63105.82907764088,2.8406751140209963,PPG_1,PPG_3,171538.0,171538.0,-447.91860973637085,3.999348850958607,0.1550133342957714
63105.83918680499,2.850784278132778,PPG_1,PPG_3,171545.0,171545.0,-440.84619314817246,5.612009758689647,0.21765897965623957
63105.84929596909,2.860893442237284,PPG_1,PPG_3,171540.0,171540.0,-445.77377656000317,7.001680592148845,0.2716423222072519
63105.8594051332,2.87100260634179,PPG_1,PPG_3,171507.0,171507.0,-478.7013599718339,8.108225500797808,0.3146273165047734
63105.86951429731,2.881111770453572,PPG_1,PPG_3,171516.0,171516.0,-469.6289433836646,8.887476220379293,0.34489819613716605
63105.87962346141,2.8912209345580777,PPG_1,PPG_3,171544.0,171544.0,-441.5565267954662,9.310364430949454,0.36132576918708564
63105.88973262552,2.9013300986625836,PPG_1,PPG_3,171539.0,171539.0,-446.4841102072969,9.3641345516008,0.3634145306205436
63105.89984178963,2.9114392627743655,PPG_1,PPG_3,171529.0,171529.0,-456.4116936191276,9.055931179988095,0.3514420204515488
63105.909950953734,2.9215484268788714,PPG_1,PPG_3,171525.0,171525.0,-460.3392770309292,8.415936192714431,0.3265806879711623
63105.92006011784,2.9316575909833773,PPG_1,PPG_3,171555.0,171555.0,-430.26686044275993,7.498417794273357,0.2909386432456442
63105.93016928195,2.941766755095159,PPG_1,PPG_3,171539.0,171539.0,-446.19444385459065,6.380651705875532,0.24751774947061736
63105.940278446054,2.951875919199665,PPG_1,PPG_3,171514.0,171514.0,-471.12202726642136,5.1587869036467255,0.20005302287377813
63105.95038761016,2.961985083304171,PPG_1,PPG_3,171521.0,171521.0,-464.04961067822296,3.9397801430789836,0.15269932015273707
63105.96049677427,2.972094247415953,PPG_1,PPG_3,171530.0,171530.0,-454.9771940900537,2.8314720336682453,0.10964583231817257
63105.970605938375,2.9822034115204588,PPG_1,PPG_3,171542.0,171542.0,-442.9047775018844,1.9343857378162383,0.07479749583387696
63105.98071510248,2.9923125756249647,PPG_1,PPG_3,171524.0,171524.0,-460.832360913686,1.3362304180566469,0.05156147277875223
63105.99082426659,3.0024217397367465,PPG_1,PPG_3,171533.0,171533.0,-451.7599443255167,1.1072260552588562,0.04266553809771943
63106.000933430696,3.0125309038412524,PPG_1,PPG_3,171532.0,171532.0,-452.6875277373474,1.2946682663654616,0.04994694377096021
63106.0110425948,3.0226400679457583,PPG_1,PPG_3,171531.0,171531.0,-453.6151111491781,1.9168549336987644,0.07411649182840858
63106.02115175891,3.03274923205754,PPG_1,PPG_3,171527.0,171527.0,-457.5426945609797,2.9571448516658165,0.11452773573009525
63106.03126092302,3.042858396162046,PPG_1,PPG_3,171511.0,171511.0,-473.47027797281044,4.359188865638153,0.16899172853727185
63106.04137008712,3.052967560266552,PPG_1,PPG_3,171521.0,171521.0,-463.39786138464115,6.025547496387988,0.23372332296289908
63106.05147925123,3.063076724378334,PPG_1,PPG_3,171545.0,171545.0,-439.32544479647186,7.822890820133555,0.30354316662041564
63106.06158841534,3.07318588848284,PPG_1,PPG_3,171563.0,171563.0,-421.25302820827346,9.595284204704274,0.37239380154110496
63106.07169757944,3.0832950525873457,PPG_1,PPG_3,171553.0,171553.0,-431.1806116201042,11.182601647703292,0.4340549512173306
63106.081806743554,3.0934042166991276,PPG_1,PPG_3,171522.0,171522.0,-462.1081950319349,12.438087651853843,0.4828257316051963
63106.09191590766,3.1035133808036335,PPG_1,PPG_3,171554.0,171554.0,-430.0357784437365,13.241340715541805,0.5140290095672724
63106.10202507176,3.1136225449081394,PPG_1,PPG_3,171588.0,171588.0,-395.9633618555672,13.507368890398626,0.5243631762963592
63106.11213423587,3.1237317090126453,PPG_1,PPG_3,171525.0,171525.0,-458.8909452673979,13.192411446597594,0.5121282965188371
63106.12224339998,3.133840873124427,PPG_1,PPG_3,171530.0,171530.0,-453.8185286792286,12.29458018031331,0.47725102081162074
63106.13235256408,3.143950037228933,PPG_1,PPG_3,171553.0,171553.0,-430.7461120910302,10.849104093534368,0.4210998597862098
63106.14246172819,3.154059201333439,PPG_1,PPG_3,171537.0,171537.0,-446.67369550286094,8.922041162186202,0.3462409105763642
63106.1525708923,3.164168365445221,PPG_1,PPG_3,171575.0,171575.0,-408.60127891469165,6.605429678907342,0.2562495052389194
63106.1626800564,3.1742775295497268,PPG_1,PPG_3,171514.0,171514.0,-469.52886232649325,4.0125214146980595,0.15552503750166788
63106.17278922051,3.1843866936542327,PPG_1,PPG_3,171545.0,171545.0,-438.45644573832396,1.270471298453503,0.049006985058409835
63106.18289838462,3.1944958577660145,PPG_1,PPG_3,171548.0,171548.0,-435.3840291501547,-1.4896516257042893,-0.05821312614361938
63106.193007548725,3.2046050218705204,PPG_1,PPG_3,171506.0,171506.0,-477.3116125619854,-4.143728831032016,-0.16131377090234583
63106.20311671283,3.2147141859750263,PPG_1,PPG_3,171525.0,171525.0,-458.239195973787,-6.584661414009584,-0.25613457061849254
63106.21322587694,3.224823350086808,PPG_1,PPG_3,171536.0,171536.0,-447.1667793856177,-8.729695822910234,-0.3394608695458074
63106.223335041046,3.234932514191314,PPG_1,PPG_3,171510.0,171510.0,-473.0943627974484,-10.522820510087747,-0.4091168354723763
63106.23344420515,3.24504167829582,PPG_1,PPG_3,171543.0,171543.0,-440.0219462092791,-11.931855403261492,-0.4638523969255775
63106.24355336926,3.255150842407602,PPG_1,PPG_3,171560.0,171560.0,-422.9495296210807,-12.942117823856659,-0.5030971885728543
63106.25366253337,3.265260006512108,PPG_1,PPG_3,171514.0,171514.0,-468.87711303291144,-13.550197603877319,-0.5267187385635725
63106.26377169747,3.2753691706166137,PPG_1,PPG_3,171519.0,171519.0,-463.80469644474215,-13.761768073292872,-0.5349374338467628
63106.27388086158,3.2854783347283956,PPG_1,PPG_3,171520.0,171520.0,-462.73227985654376,-13.5941490676696,-0.5284260831148078
63106.28399002569,3.2955874988329015,PPG_1,PPG_3,171544.0,171544.0,-438.65986326837447,-13.080099170265358,-0.5084572307565772
63106.29409918979,3.3056966629374074,PPG_1,PPG_3,171511.0,171511.0,-471.5874466802052,-12.269533295260965,-0.47696987832967036
63106.304208353904,3.3158058270491892,PPG_1,PPG_3,171517.0,171517.0,-465.5150300920359,-11.228719160625138,-0.4365382706358395
63106.31431751801,3.325914991153695,PPG_1,PPG_3,171549.0,171549.0,-433.4426135038375,-10.036876772897516,-0.3902397988435223
63106.32442668211,3.336024155258201,PPG_1,PPG_3,171543.0,171543.0,-439.3701969156682,-8.779505432045983,-0.3413957804092771
63106.334535846225,3.346133319369983,PPG_1,PPG_3,171527.0,171527.0,-455.2977803274989,-7.539694682185199,-0.2932339230854383
63106.34464501033,3.356242483474489,PPG_1,PPG_3,171550.0,171550.0,-432.2253637393005,-6.390440189322396,-0.24858982646000227
63106.354754174434,3.3663516475789947,PPG_1,PPG_3,171534.0,171534.0,-448.15294715113123,-5.389578213195693,-0.20971020575943783
63106.364863338546,3.3764608116907766,PPG_1,PPG_3,171563.0,171563.0,-419.08053056296194,-4.5772260590214655,-0.17815346328850384
63106.37497250265,3.3865699757952825,PPG_1,PPG_3,171545.0,171545.0,-437.00811397479265,-3.976117318624996,-0.1548027112528903
63106.385081666755,3.3966791398997884,PPG_1,PPG_3,171516.0,171516.0,-465.93569738659426,-3.5959374210763926,-0.1400341911499766
63106.395190830866,3.4067883040115703,PPG_1,PPG_3,171508.0,171508.0,-473.86328079842497,-3.440773027239007,-0.13400665396450273
63106.40529999497,3.416897468116076,PPG_1,PPG_3,171568.0,171568.0,-413.7908642102557,-3.514905372449955,-0.136886409147729
63106.415409159075,3.427006632220582,PPG_1,PPG_3,171536.0,171536.0,-445.7184476220864,-3.821848171978629,-0.14880995096178376
63106.42551832318,3.437115796325088,PPG_1,PPG_3,171553.0,171553.0,-428.646031033888,-4.356815777387402,-0.16959137545537376
63106.43562748729,3.44722496043687,PPG_1,PPG_3,171534.0,171534.0,-447.5736144457187,-5.097241153987013,-0.1983540405240097
63106.44573665139,3.457334124541376,PPG_1,PPG_3,171567.0,171567.0,-414.5011978575494,-5.995030988087801,-0.23322970675098054
63106.4558458155,3.4674432886458817,PPG_1,PPG_3,171545.0,171545.0,-436.428781269351,-6.972031514481592,-0.27118240232389507
63106.46595497961,3.4775524527576636,PPG_1,PPG_3,171562.0,171562.0,-419.35636468118173,-7.920304079794063,-0.3080191276062159
63106.47606414372,3.4876616168621695,PPG_1,PPG_3,171542.0,171542.0,-439.28394809301244,-8.709295736302337,-0.33866840500175194
63106.48617330782,3.4977707809666754,PPG_1,PPG_3,171542.0,171542.0,-439.21153150484315,-9.200726278969492,-0.3577585828237864
63106.49628247193,3.5078799450784572,PPG_1,PPG_3,171509.0,171509.0,-472.13911491664476,-9.269451373002383,-0.3604282871909659
63106.50639163604,3.517989109182963,PPG_1,PPG_3,171536.0,171536.0,-445.06669832847547,-8.825715339438025,-0.3431908567683208
63106.51650080014,3.528098273287469,PPG_1,PPG_3,171510.0,171510.0,-470.9942817403062,-7.832490593268161,-0.3046079129432972
63106.526609964254,3.538207437399251,PPG_1,PPG_3,171563.0,171563.0,-417.9218651521078,-6.312677243364453,-0.24556903646545805
63106.53671912836,3.548316601503757,PPG_1,PPG_3,171544.0,171544.0,-436.8494485639385,-4.344721074221411,-0.16912154296818163
63106.54682829246,3.5584257656082627,PPG_1,PPG_3,171556.0,171556.0,-424.7770319757692,-2.049504951642535,-0.07996126472778808
63106.556937456575,3.5685349297200446,PPG_1,PPG_3,171550.0,171550.0,-430.7046153875999,0.4266743314092266,0.01622873310210307
63106.56704662068,3.5786440938245505,PPG_1,PPG_3,171573.0,171573.0,-407.6321987994015,2.929412413438488,0.11345043765593615
63106.577155784784,3.5887532579290564,PPG_1,PPG_3,171561.0,171561.0,-419.55978221123223,5.311853207521233,0.20599905737067145
63106.587264948896,3.5988624220408383,PPG_1,PPG_3,171539.0,171539.0,-441.48736562306294,7.447259704045837,0.2889513491019416
63106.597374113,3.608971586145344,PPG_1,PPG_3,171577.0,171577.0,-403.41494903489365,9.238152914501775,0.35852063077972657
63106.607483277105,3.61908075024985,PPG_1,PPG_3,171585.0,171585.0,-395.34253244669526,10.623227684333857,0.4123254340168272
63106.61759244122,3.629189914361632,PPG_1,PPG_3,171559.0,171559.0,-421.27011585852597,11.582179435965623,0.44957700442603715
63106.62770160532,3.639299078466138,PPG_1,PPG_3,171590.0,171590.0,-390.1976992703567,12.13605569469039,0.4710929570428049
63106.637810769425,3.649408242570644,PPG_1,PPG_3,171563.0,171563.0,-417.1252826821583,12.340933016177143,0.4790516493895548
63106.64791993354,3.6595174066824256,PPG_1,PPG_3,171540.0,171540.0,-440.052866093989,12.275230336715367,0.47649935415063444
63106.65802909764,3.669626570786931,PPG_1,PPG_3,171546.0,171546.0,-433.9804495058197,12.023817098449795,0.46673292123978055
63106.668138261746,3.6797357348914375,PPG_1,PPG_3,171568.0,171568.0,-411.9080329176504,11.664614914680172,0.4527793042647168
63106.67824742586,3.6898448990032193,PPG_1,PPG_3,171572.0,171572.0,-407.835616329452,11.262805468363224,0.43717055976313823
63106.68835658996,3.699954063107725,PPG_1,PPG_3,171571.0,171571.0,-408.76319974128273,10.872971479975403,0.4220270155320324
63106.69846575407,3.710063227212231,PPG_1,PPG_3,171580.0,171580.0,-399.69078315311344,10.54514054129265,0.40929205021821186
63106.70857491818,3.720172391324013,PPG_1,PPG_3,171579.0,171579.0,-400.61836656491505,10.330156152119564,0.40094073734294483
63106.71868408228,3.730281555428519,PPG_1,PPG_3,171571.0,171571.0,-408.54594997674576,10.281287254362995,0.3990423694818907
63106.72879324639,3.740390719533025,PPG_1,PPG_3,171553.0,171553.0,-426.47353338857647,10.450745827456236,0.4056251803024409
63106.73890241049,3.7504998836375303,PPG_1,PPG_3,171544.0,171544.0,-435.4011168004072,10.882401923379367,0.4223933518214808
63106.74901157461,3.7606090477493126,PPG_1,PPG_3,171598.0,171598.0,-381.3287002122088,11.604684348930556,0.45045123334155857
63106.75912073871,3.7707182118538185,PPG_1,PPG_3,171572.0,171572.0,-407.2562836240395,12.627076734764872,0.49016722727132617
63106.76922990281,3.780827375958325,PPG_1,PPG_3,171590.0,171590.0,-389.1838670358702,13.93923402314388,0.5411394680882744
63106.779339066925,3.7909365400701063,PPG_1,PPG_3,171542.0,171542.0,-437.1114504477009,15.50886765678648,0.6021136700966714
63106.78944823103,3.801045704174612,PPG_1,PPG_3,171603.0,171603.0,-376.0390338595025,17.276918119397376,0.6707955992791493
63106.799557395134,3.811154868279118,PPG_1,PPG_3,171559.0,171559.0,-419.96661727133323,19.15219776690984,0.7436429679892009
63106.809666559246,3.8212640323909,PPG_1,PPG_3,171548.0,171548.0,-430.89420068316394,21.008232024395998,0.8157427276559428
63106.81977572335,3.831373196495406,PPG_1,PPG_3,171579.0,171579.0,-399.82178409496555,22.684687313420213,0.880866538244652
63106.829884887455,3.841482360599912,PPG_1,PPG_3,171590.0,171590.0,-388.74936750679626,23.996387747892403,0.9318210320524858
63106.83999405157,3.8515915247116936,PPG_1,PPG_3,171577.0,171577.0,-401.67695091862697,24.75107220063338,0.9611376071358295
63106.85010321567,3.861700688816199,PPG_1,PPG_3,171617.0,171617.0,-361.6045343304577,24.772681073518573,0.9619770283563203
63106.860212379775,3.8718098529207055,PPG_1,PPG_3,171567.0,171567.0,-411.5321177422593,23.92473305746981,0.9290375241847694
63106.87032154389,3.8819190170324873,PPG_1,PPG_3,171591.0,171591.0,-387.45970115409,22.12949150161716,0.8592993260892049
63106.88043070799,3.8920281811369937,PPG_1,PPG_3,171588.0,171588.0,-390.3872845659207,19.381185272213013,0.7525382478217009
63106.890539872096,3.902137345241499,PPG_1,PPG_3,171615.0,171615.0,-363.3148679777223,15.753058175409652,0.6115995282561397
63106.90064903621,3.912246509353281,PPG_1,PPG_3,171556.0,171556.0,-422.242451389553,11.396787867438483,0.4423752582938558
63106.91075820031,3.922355673457787,PPG_1,PPG_3,171573.0,171573.0,-405.17003480138374,6.531837391758514,0.2533907292247617
63106.92086736442,3.932464837562293,PPG_1,PPG_3,171573.0,171573.0,-405.09761821321445,1.425020504797626,0.0550106245866959
63106.93097652853,3.9425740016740742,PPG_1,PPG_3,171548.0,171548.0,-430.02520162501605,-3.636260010666626,-0.14160056795949416
63106.94108569263,3.9526831657785806,PPG_1,PPG_3,171520.0,171520.0,-457.95278503684676,-8.373371358721666,-0.3256190408577031
63106.95119485674,3.9627923298830865,PPG_1,PPG_3,171541.0,171541.0,-436.8803684486775,-12.544412604504128,-0.4876478774311713
63106.96130402085,3.972901493994869,PPG_1,PPG_3,171553.0,171553.0,-424.8079518605082,-15.965551219444492,-0.6205458942263434
63106.971413184954,3.9830106580993743,PPG_1,PPG_3,171542.0,171542.0,-435.7355352723098,-18.52244184959034,-0.7198712160430583
63106.98152234906,3.99311982220388,PPG_1,PPG_3,171524.0,171524.0,-453.6631186841405,-20.17299722357842,-0.7839889150031903
63106.99163151317,4.003228986315662,PPG_1,PPG_3,171518.0,171518.0,-459.5907020959712,-20.944036361275973,-0.813940806406822
63107.001740677275,4.013338150420168,PPG_1,PPG_3,171567.0,171567.0,-410.5182855077728,-20.921651213925088,-0.813071229922663
63107.01184984138,4.023447314524674,PPG_1,PPG_3,171557.0,171557.0,-420.4458689196035,-20.234596172927176,-0.7863817961829722
63107.02195900549,4.033556478636456,PPG_1,PPG_3,171560.0,171560.0,-417.37345233143424,-19.034072208517216,-0.7397460786799144
63107.0320681696,4.043665642740962,PPG_1,PPG_3,171534.0,171534.0,-443.30103574326495,-17.476379847952153,-0.6792357489925872
63107.0421773337,4.0537748068454675,PPG_1,PPG_3,171546.0,171546.0,-431.22861915506655,-15.71230199872444,-0.6107081404908946
63107.052286497805,4.0638839709499734,PPG_1,PPG_3,171577.0,171577.0,-400.15620256689726,-13.882201465000973,-0.5396158057911284
63107.06239566192,4.073993135061755,PPG_1,PPG_3,171535.0,171535.0,-442.083785978728,-12.114634487748859,-0.4709526581467767
63107.07250482602,4.084102299166261,PPG_1,PPG_3,171517.0,171517.0,-460.0113693905296,-10.527876790374103,-0.4093132524253412
63107.082613990126,4.094211463270767,PPG_1,PPG_3,171545.0,171545.0,-431.9389528023603,-9.232530643050367,-0.35899405948448687
63107.09272315424,4.104320627382549,PPG_1,PPG_3,171548.0,171548.0,-428.866536214191,-8.330123247696742,-0.32393901884390636
63107.10283231834,4.114429791487055,PPG_1,PPG_3,171582.0,171582.0,-394.7941196260217,-7.903919083837938,-0.30738263382070935
63107.112941482446,4.124538955591561,PPG_1,PPG_3,171546.0,171546.0,-430.7217030378233,-8.004158663685528,-0.31127655419796313
63107.12305064656,4.134648119703343,PPG_1,PPG_3,171570.0,171570.0,-406.649286449654,-8.633762433073494,-0.3357342280124701
63107.13315981066,4.144757283807849,PPG_1,PPG_3,171563.0,171563.0,-413.57686986148474,-9.739248406068365,-0.3786780867512837
63107.14326897477,4.1548664479123545,PPG_1,PPG_3,171580.0,171580.0,-396.50445327331545,-11.208967230316787,-0.435770984459713
63107.15337813888,4.164975612024136,PPG_1,PPG_3,171543.0,171543.0,-433.43203668511705,-12.880101368508832,-0.5006880888981438
63107.16348730298,4.175084776128642,PPG_1,PPG_3,171536.0,171536.0,-440.35962009694776,-14.555289181332995,-0.5657626629336814
63107.17359646709,4.185193940233148,PPG_1,PPG_3,171565.0,171565.0,-411.2872035087785,-16.02684348679033,-0.622926861995252
63107.1837056312,4.19530310434493,PPG_1,PPG_3,171527.0,171527.0,-449.2147869205801,-17.10403128474439,-0.6647714459705637
63107.193814795304,4.205412268449436,PPG_1,PPG_3,171523.0,171523.0,-453.1423703324108,-17.639377181145917,-0.6855675656076035
63107.20392395941,4.215521432553942,PPG_1,PPG_3,171507.0,171507.0,-469.0699537442415,-17.55039002540808,-0.6821107584305556
63107.21403312352,4.225630596665724,PPG_1,PPG_3,171559.0,171559.0,-416.9975371560722,-16.831636563118334,-0.654189963498183
63107.224142287625,4.23573976077023,PPG_1,PPG_3,171541.0,171541.0,-434.9251205678738,-15.553006264083946,-0.6045201166776529
63107.23425145173,4.2458489248747355,PPG_1,PPG_3,171548.0,171548.0,-427.85270397970453,-13.845120565879323,-0.5381753561312613
63107.24436061584,4.255958088986517,PPG_1,PPG_3,171549.0,171549.0,-426.78028739153524,-11.876842298017786,-0.4617153503432776
63107.254469779946,4.266067253091023,PPG_1,PPG_3,171558.0,171558.0,-417.70787080333685,-9.829318010402385,-0.38217694287399184
63107.26457894405,4.276176417195529,PPG_1,PPG_3,171567.0,171567.0,-408.63545421516756,-7.86918056352352,-0.306033176527157
63107.27468810816,4.286285581307311,PPG_1,PPG_3,171584.0,171584.0,-391.56303762699827,-6.123711149303491,-0.2382284338273303
63107.28479727227,4.296394745411817,PPG_1,PPG_3,171593.0,171593.0,-382.490621038829,-4.6623024785338165,-0.18145835347326553
63107.29490643637,4.306503909516323,PPG_1,PPG_3,171569.0,171569.0,-406.4182044506306,-3.489589919240232,-0.13590300160289853
63107.30501560048,4.316613073628105,PPG_1,PPG_3,171544.0,171544.0,-431.3457878624613,-2.5540542974553744,-0.09956105736436814
63107.31512476459,4.326722237732611,PPG_1,PPG_3,171518.0,171518.0,-457.273371274292,-1.7704497139345081,-0.06912104694013535
63107.32523392869,4.336831401837117,PPG_1,PPG_3,171533.0,171533.0,-442.2009546861227,-1.0474722928969618,-0.041036167530695535
63107.3353430928,4.3469405659416225,PPG_1,PPG_3,171560.0,171560.0,-415.1285380979243,-0.3091679001696149,-0.012355894490563624
63107.34545225691,4.357049730053404,PPG_1,PPG_3,171606.0,171606.0,-369.05612150975503,0.4968216194024133,0.018953684209650292
63107.35556142101,4.36715889415791,PPG_1,PPG_3,171580.0,171580.0,-394.98370492158574,1.4014841394282735,0.054096327730528304
63107.36567058512,4.377268058262416,PPG_1,PPG_3,171530.0,171530.0,-444.91128833338735,2.4178305032237497,0.09357745706435329
63107.37577974923,4.387377222374198,PPG_1,PPG_3,171528.0,171528.0,-446.83887174521806,3.5394314555857633,0.1371473204874658
63107.38588891333,4.397486386478704,PPG_1,PPG_3,171564.0,171564.0,-410.76645515704877,4.737992830129185,0.1837067989571486
63107.39599807744,4.40759555058321,PPG_1,PPG_3,171602.0,171602.0,-372.6940385688795,5.968298490057609,0.23149942026232573
63107.40610724155,4.417704714694992,PPG_1,PPG_3,171573.0,171573.0,-401.6216219806811,7.182249507939389,0.27865672691410004
63107.416216405654,4.427813878799498,PPG_1,PPG_3,171572.0,171572.0,-402.5492053925118,8.345065592390862,0.3238276389742716
63107.42632556976,4.4379230429040035,PPG_1,PPG_3,171588.0,171588.0,-386.4767888043425,9.446121160521136,0.3665993936020348
63107.43643473387,4.448032207015785,PPG_1,PPG_3,171580.0,171580.0,-394.4043722161441,10.501945571758311,0.4076140925459994
63107.446543897975,4.458141371120291,PPG_1,PPG_3,171578.0,171578.0,-396.3319556279748,11.551802618706633,0.4483969824436951
63107.45665306208,4.468250535224797,PPG_1,PPG_3,171557.0,171557.0,-417.25953903980553,12.646496555843601,0.4909216122870661
63107.46676222619,4.478359699336579,PPG_1,PPG_3,171564.0,171564.0,-410.18712245163624,13.832474912041885,0.5369922891115705
63107.476871390296,4.488468863441085,PPG_1,PPG_3,171573.0,171573.0,-401.11470586343785,15.135561531995462,0.5876121695069089
63107.4869805544,4.498578027545591,PPG_1,PPG_3,171544.0,171544.0,-430.04228927526856,16.548905325944123,0.6425151151067366
63107.49708971851,4.508687191657373,PPG_1,PPG_3,171594.0,171594.0,-379.96987268709927,18.028051428436278,0.6999742261503688
63107.50719888262,4.518796355761879,PPG_1,PPG_3,171585.0,171585.0,-388.89745609893,19.493956052152846,0.7569189569052204
63107.51730804672,4.528905519866385,PPG_1,PPG_3,171595.0,171595.0,-378.8250395107316,20.84199340487983,0.8092849995907936
63107.52741721083,4.539014683978166,PPG_1,PPG_3,171569.0,171569.0,-404.7526229225623,21.95255165833077,0.852425896827345
63107.53752637494,4.549123848082672,PPG_1,PPG_3,171553.0,171553.0,-420.680206334393,22.69999550775885,0.8814612024478022
63107.54763553904,4.559233012187178,PPG_1,PPG_3,171585.0,171585.0,-388.6077897461946,22.961266989680514,0.8916105900349901
63107.557744703154,4.56934217629896,PPG_1,PPG_3,171594.0,171594.0,-379.5353731580253,22.62790858937979,0.8786609041939942
63107.56785386726,4.579451340403466,PPG_1,PPG_3,171608.0,171608.0,-365.46295656985603,21.62219657372907,0.8395928781972208
63107.57796303136,4.589560504507972,PPG_1,PPG_3,171610.0,171610.0,-363.39053998168674,19.912332411676843,0.7731712619746226
63107.588072195475,4.599669668619754,PPG_1,PPG_3,171574.0,171574.0,-399.31812339348835,17.519121396545366,0.6802042607854941
63107.59818135958,4.60977883272426,PPG_1,PPG_3,171537.0,171537.0,-436.24570680531906,14.509820389717287,0.5633045438314246
63107.60829052368,4.619887996828766,PPG_1,PPG_3,171533.0,171533.0,-440.17329021714977,10.982250971950215,0.426272101567545
63107.618399687795,4.6299971609405475,PPG_1,PPG_3,171568.0,171568.0,-405.1008736289514,7.048746591774227,0.27347065444184177
63107.6285088519,4.640106325045053,PPG_1,PPG_3,171575.0,171575.0,-398.0284570407821,2.8287453525135455,0.10953991129050362
63107.638618016,4.650215489149559,PPG_1,PPG_3,171554.0,171554.0,-418.9560404526128,-1.5490387269226205,-0.060520085569543705
63107.64872718011,4.660324653261341,PPG_1,PPG_3,171575.0,171575.0,-397.8836238644435,-5.940830765189696,-0.23112423750703995
63107.65883634422,4.670433817365847,PPG_1,PPG_3,171561.0,171561.0,-411.8112072762451,-10.184920349227307,-0.3959907197818242
63107.668945508325,4.680542981470353,PPG_1,PPG_3,171545.0,171545.0,-427.7387906880758,-14.105531687549846,-0.548291322046902
63107.67905467243,4.690652145574859,PPG_1,PPG_3,171530.0,171530.0,-442.66637409990653,-17.524718493423624,-0.681113518601123
63107.68916383654,4.700761309686641,PPG_1,PPG_3,171529.0,171529.0,-443.59395751173724,-20.28056246154334,-0.7881674088938531
63107.699273000646,4.710870473791147,PPG_1,PPG_3,171512.0,171512.0,-460.52154092353885,-22.247107492968684,-0.8645600851430683
63107.70938216475,4.720979637895653,PPG_1,PPG_3,171532.0,171532.0,-440.44912433536956,-23.350825195648728,-0.9074352534122903
63107.71949132886,4.731088802007434,PPG_1,PPG_3,171536.0,171536.0,-436.37670774720027,-23.580115010950333,-0.9163422768201817
63107.72960049297,4.74119796611194,PPG_1,PPG_3,171505.0,171505.0,-467.3042911590019,-22.987098220435247,-0.8933058657722571
63107.73970965707,4.751307130216446,PPG_1,PPG_3,171554.0,171554.0,-418.2318745708326,-21.682800512182663,-0.8426389392758346
63107.74981882118,4.761416294328228,PPG_1,PPG_3,171521.0,171521.0,-451.1594579826633,-19.82690034258384,-0.7705443884054348
63107.75992798529,4.771525458432734,PPG_1,PPG_3,171525.0,171525.0,-447.087041394494,-17.613132093589787,-0.6845480453602819
63107.77003714939,4.78163462253724,PPG_1,PPG_3,171546.0,171546.0,-426.0146248062956,-15.251475240150288,-0.5928068014357626
63107.780146313504,4.791743786649022,PPG_1,PPG_3,171538.0,171538.0,-433.9422082181263,-12.947778852519912,-0.5033170976636703
63107.79025547761,4.801852950753528,PPG_1,PPG_3,171581.0,171581.0,-390.86979162995704,-10.882185345317081,-0.4230767708282066
63107.80036464171,4.811962114858034,PPG_1,PPG_3,171547.0,171547.0,-424.79737504175864,-9.190173867714911,-0.35734866241833524
63107.810473805825,4.8220712789698155,PPG_1,PPG_3,171529.0,171529.0,-442.72495845358935,-7.951135668902752,-0.30921681571779797
63107.82058296993,4.832180443074321,PPG_1,PPG_3,171558.0,171558.0,-413.65254186542006,-7.18656094154648,-0.2795160416791146
63107.83069213403,4.842289607178827,PPG_1,PPG_3,171556.0,171556.0,-415.5801252772508,-6.865686372907518,-0.26705130446387965
63107.840801298145,4.852398771290609,PPG_1,PPG_3,171540.0,171540.0,-431.5077086890524,-6.91584328636404,-0.26899970675831725
63107.85091046225,4.862507935395115,PPG_1,PPG_3,171528.0,171528.0,-443.4352921008831,-7.236769347901673,-0.28146644427371026
63107.861019626354,4.872617099499621,PPG_1,PPG_3,171518.0,171518.0,-453.3628755127138,-7.717487571820617,-0.30014048990200726
63107.871128790466,4.882726263611403,PPG_1,PPG_3,171529.0,171529.0,-442.2904589245445,-8.251293740697522,-0.32087679707382466
63107.88123795457,4.892835427715909,PPG_1,PPG_3,171545.0,171545.0,-426.2180423363461,-8.743711804068194,-0.34000533625966606
63107.891347118675,4.902944591820415,PPG_1,PPG_3,171570.0,171570.0,-401.1456257481768,-9.11179836138453,-0.35430407682009674
63107.90145628279,4.9130537559321965,PPG_1,PPG_3,171562.0,171562.0,-409.07320916000754,-9.278656269117125,-0.3607858618396845
63107.91156544689,4.923162920036702,PPG_1,PPG_3,171525.0,171525.0,-446.00079257180914,-9.170284230270715,-0.356576026852046
63107.92167461099,4.933272084141208,PPG_1,PPG_3,171544.0,171544.0,-426.92837598363985,-8.719632140892282,-0.33906993438287586
63107.93178377511,4.94338124825299,PPG_1,PPG_3,171528.0,171528.0,-442.85595939547056,-7.876784489834912,-0.30632855968474887
63107.94189293921,4.953490412357496,PPG_1,PPG_3,171537.0,171537.0,-433.7835428073013,-6.620459747152678,-0.25752519754559616
63107.95200210332,4.963599576462002,PPG_1,PPG_3,171527.0,171527.0,-443.7111262191029,-4.966633940887864,-0.1932804549276179
63107.96211126742,4.973708740566508,PPG_1,PPG_3,171549.0,171549.0,-421.6387096309336,-2.972032263603453,-0.115797886390405
63107.97222043153,4.98381790467829,PPG_1,PPG_3,171528.0,171528.0,-442.5662930427643,-0.7315738421209764,-0.02876473326800414
63107.98232959564,4.993927068782796,PPG_1,PPG_3,171548.0,171548.0,-422.4938764545659,1.6301162338318556,0.06297780122279495
63107.99243875974,5.004036232887302,PPG_1,PPG_3,171540.0,171540.0,-430.4214598663966,3.972498985191435,0.15397032075165754
63108.002547923854,5.0141453969990835,PPG_1,PPG_3,171580.0,171580.0,-390.3490432782273,6.157202027056128,0.23883759280028186
63108.01265708796,5.024254561103589,PPG_1,PPG_3,171582.0,171582.0,-388.27662669005804,8.067614191379917,0.3130497240454901
63108.02276625206,5.034363725208095,PPG_1,PPG_3,171514.0,171514.0,-456.20421010185964,9.624884601383226,0.373543662583801
63108.032875416175,5.044472889319877,PPG_1,PPG_3,171573.0,171573.0,-397.13179351369035,10.79638734033992,0.41905201760851285
63108.04298458028,5.054582053424383,PPG_1,PPG_3,171575.0,171575.0,-395.05937692552106,11.597521160549073,0.4501729711496462
63108.053093744384,5.064691217528889,PPG_1,PPG_3,171566.0,171566.0,-403.9869603373518,12.08927367294772,0.4692756562517412
63108.063202908495,5.074800381640671,PPG_1,PPG_3,171519.0,171519.0,-450.9145437491534,12.370853111239052,0.48021392947919683
63108.0733120726,5.084909545745177,PPG_1,PPG_3,171579.0,171579.0,-390.8421271609841,12.566547461823477,0.4878158988870171
63108.083421236704,5.095018709849683,PPG_1,PPG_3,171557.0,171557.0,-412.7697105728148,12.80959543963624,0.49725737375048334
63108.093530400816,5.1051278739614645,PPG_1,PPG_3,171547.0,171547.0,-422.6972939846164,13.226022538890453,0.5134339575898423
63108.10363956492,5.11523703806597,PPG_1,PPG_3,171533.0,171533.0,-436.6248773964471,13.918807489081503,0.5403459761627986
63108.113748729025,5.125346202170476,PPG_1,PPG_3,171578.0,171578.0,-391.55246080827783,14.953279299645379,0.5805312090715349
63108.12385789314,5.135455366282258,PPG_1,PPG_3,171542.0,171542.0,-427.48004422010854,16.346223999034848,0.6346417286645665
63108.13396705724,5.145564530386764,PPG_1,PPG_3,171530.0,171530.0,-439.40762763191015,18.05992020619431,0.701212205033549
63108.144076221346,5.15567369449127,PPG_1,PPG_3,171574.0,171574.0,-395.33521104374086,20.00141825661541,0.7766319028458093
63108.15418538546,5.165782858603052,PPG_1,PPG_3,171546.0,171546.0,-423.26279445557157,22.028405149321255,0.855372511874044
63108.16429454956,5.175892022707558,PPG_1,PPG_3,171554.0,171554.0,-415.1903778673732,23.9623078403099,0.930497159318859
63108.17440371367,5.186001186812064,PPG_1,PPG_3,171580.0,171580.0,-389.1179612792039,25.607186492417632,0.9943943395673255
63108.18451287778,5.1961103509238455,PPG_1,PPG_3,171575.0,171575.0,-394.0455446910346,26.77199107081064,1.0396424969340992
63108.19462204188,5.2062195150283515,PPG_1,PPG_3,171579.0,171579.0,-389.9731281028653,27.29268939450407,1.059869614965864
63108.20473120599,5.216328679132857,PPG_1,PPG_3,171564.0,171564.0,-404.9007115146669,27.04978043055586,1.050433540253922
63108.2148403701,5.226437843244639,PPG_1,PPG_3,171563.0,171563.0,-405.8282949264976,25.978207974112845,1.0088070906000866
63108.22494953421,5.236547007349145,PPG_1,PPG_3,171547.0,171547.0,-421.75587833832833,24.06991432861303,0.9346772556257805
63108.23505869831,5.246656171453651,PPG_1,PPG_3,171570.0,171570.0,-398.68346175015904,21.37149254967397,0.8298539955182234
63108.24516786242,5.256765335565433,PPG_1,PPG_3,171550.0,171550.0,-418.61104516196065,17.979314044088973,0.6980809670771306
63108.255277026525,5.266874499669939,PPG_1,PPG_3,171536.0,171536.0,-432.53862857379136,14.03291330235576,0.5447785461331367
63108.26538619063,5.276983663774445,PPG_1,PPG_3,171575.0,171575.0,-393.46621198562207,9.70645717073483,0.3767124417277889
63108.27549535474,5.287092827886227,PPG_1,PPG_3,171545.0,171545.0,-423.3937953974237,5.197917399346669,0.20157309144160057
63108.285604518846,5.2972019919907325,PPG_1,PPG_3,171509.0,171509.0,-459.3213788092544,0.7147469992132097,0.02741924320796476
63108.29571368295,5.307311156095238,PPG_1,PPG_3,171519.0,171519.0,-449.2489622210851,-3.5443293355424923,-0.13802941642728664
63108.305822847055,5.317420320199744,PPG_1,PPG_3,171515.0,171515.0,-453.1765456329158,-7.407948006132899,-0.2881160737559068
63108.315932011166,5.327529484311526,PPG_1,PPG_3,171531.0,171531.0,-437.1041290447174,-10.745831878260839,-0.4177799654676216
63108.32604117527,5.337638648416032,PPG_1,PPG_3,171504.0,171504.0,-464.0317124565481,-13.475406285295806,-0.5238133848110026
63108.336150339375,5.347747812520538,PPG_1,PPG_3,171524.0,171524.0,-443.95929586837883,-15.562771362744074,-0.604899453030782
63108.34625950349,5.35785697663232,PPG_1,PPG_3,171500.0,171500.0,-467.88687928018044,-17.019968496402157,-0.6615059314403522
63108.35636866759,5.367966140736826,PPG_1,PPG_3,171517.0,171517.0,-450.81446269201115,-17.899285933340405,-0.695664016410126
63108.366477831696,5.378075304841332,PPG_1,PPG_3,171505.0,171505.0,-462.74204610384186,-18.284751669932966,-0.7106378709367818
63108.37658699581,5.3881844689531135,PPG_1,PPG_3,171484.0,171484.0,-483.66962951567257,-18.280910011460662,-0.710488637348308
63108.38669615991,5.3982936330576194,PPG_1,PPG_3,171539.0,171539.0,-428.5972129274742,-17.998665604212512,-0.6995245326461482
63108.39680532402,5.408402797162125,PPG_1,PPG_3,171524.0,171524.0,-443.5247963393049,-17.538474561649924,-0.681647888701823
63108.40691448813,5.418511961273907,PPG_1,PPG_3,171532.0,171532.0,-435.4523797511356,-16.974031193977368,-0.6597214447310111
63108.41702365223,5.428621125378413,PPG_1,PPG_3,171506.0,171506.0,-461.3799631629663,-16.342142830278085,-0.6351750232545914
63108.42713281634,5.438730289482919,PPG_1,PPG_3,171531.0,171531.0,-436.3075465747679,-15.642699444097964,-0.6080043501699353
63108.43724198045,5.448839453594701,PPG_1,PPG_3,171499.0,171499.0,-468.2351299865986,-14.848427269931603,-0.5771499450659378
63108.447351144554,5.458948617699207,PPG_1,PPG_3,171508.0,171508.0,-459.16271339842933,-13.921615079802978,-0.541146872442167
63108.45746030866,5.469057781803713,PPG_1,PPG_3,171489.0,171489.0,-478.09029681023094,-12.834046141966438,-0.49889902129246205
63108.46756947277,5.479166945915495,PPG_1,PPG_3,171477.0,171477.0,-490.01788022206165,-11.585226884448824,-0.4503872182527003
63108.477678636875,5.4892761100200005,PPG_1,PPG_3,171511.0,171511.0,-455.94546363389236,-10.213178929681753,-0.3970884564486293
63108.48778780098,5.499385274124506,PPG_1,PPG_3,171527.0,171527.0,-439.87304704572307,-8.793520350526464,-0.34194020584222157
63108.49789696509,5.509494438236288,PPG_1,PPG_3,171508.0,171508.0,-458.8006304575247,-7.427189448889542,-0.2888635294630414
63108.5080061292,5.519603602340794,PPG_1,PPG_3,171514.0,171514.0,-452.7282138693554,-6.221676894960797,-0.2420340245317991
63108.5181152933,5.5297127664453,PPG_1,PPG_3,171550.0,171550.0,-416.6557972811861,-5.270962481863948,-0.2051024428977238
63108.52822445741,5.539821930557082,PPG_1,PPG_3,171528.0,171528.0,-438.5833806929877,-4.637765871915027,-0.18050520110923093
63108.53833362152,5.549931094661588,PPG_1,PPG_3,171518.0,171518.0,-448.5109641048184,-4.341922306146153,-0.16901282164217424
63108.54844278562,5.560040258766094,PPG_1,PPG_3,171533.0,171533.0,-433.4385475166491,-4.358265104859422,-0.16964767622783503
63108.55855194973,5.570149422877876,PPG_1,PPG_3,171501.0,171501.0,-465.36613092847983,-4.624270505339274,-0.1799809582603709
63108.56866111384,5.5802585869823815,PPG_1,PPG_3,171509.0,171509.0,-457.29371434028144,-5.054769356524617,-0.19670417529264228
63108.57877027794,5.590367751086887,PPG_1,PPG_3,171497.0,171497.0,-469.22129775211215,-5.559720931354793,-0.2163195929724369
63108.588879442046,5.600476915191393,PPG_1,PPG_3,171489.0,171489.0,-477.14888116394286,-6.060424630344069,-0.2357699970885068
63108.59898860616,5.610586079303175,PPG_1,PPG_3,171522.0,171522.0,-444.07646457574447,-6.499930386595331,-0.2528430975822362
63108.60909777026,5.620695243407681,PPG_1,PPG_3,171506.0,171506.0,-460.0040479875752,-6.845563901188654,-0.26626962418563094
63108.61920693437,5.630804407512187,PPG_1,PPG_3,171515.0,171515.0,-450.9316313994059,-7.084766349525666,-0.27556171508709615
63108.62931609848,5.640913571623969,PPG_1,PPG_3,171498.0,171498.0,-467.8592148112366,-7.21747054462504,-0.28071676033200027
63108.63942526258,5.651022735728475,PPG_1,PPG_3,171523.0,171523.0,-442.7867982230382,-7.247483044369717,-0.28188262998654007
63108.64953442669,5.661131899832981,PPG_1,PPG_3,171517.0,171517.0,-448.7143816348689,-7.173961208737891,-0.2790265907416115
63108.6596435908,5.671241063944763,PPG_1,PPG_3,171523.0,171523.0,-442.6419650466996,-6.984519051827415,-0.27166749490116393
63108.669752754904,5.6813502280492685,PPG_1,PPG_3,171490.0,171490.0,-475.56954845853033,-6.65240036698625,-0.2587659672158319
63108.67986191901,5.691459392153774,PPG_1,PPG_3,171511.0,171511.0,-454.49713187033194,-6.138790542484471,-0.2388142099895341
63108.68997108312,5.701568556265556,PPG_1,PPG_3,171530.0,171530.0,-435.42471528216265,-5.398650842887291,-0.21006264236866048
63108.700080247225,5.711677720370062,PPG_1,PPG_3,171505.0,171505.0,-460.35229869399336,-4.388266901485554,-0.17081313010757343
63108.71018941133,5.721786884474568,PPG_1,PPG_3,171485.0,171485.0,-480.27988210579497,-3.0746971872215494,-0.11978602200224156
63108.72029857544,5.73189604858635,PPG_1,PPG_3,171497.0,171497.0,-468.2074655176257,-1.4466201536103047,-0.05654151971525283
63108.730407739546,5.742005212690856,PPG_1,PPG_3,171502.0,171502.0,-463.1350489294564,0.47740876062398985,0.018199569652376735
63108.74051690365,5.752114376795362,PPG_1,PPG_3,171537.0,171537.0,-428.0626323412871,2.6477579151063844,0.10250924863590921
63108.75062606776,5.762223540907144,PPG_1,PPG_3,171501.0,171501.0,-463.9902157530887,4.989802883158025,0.19348864658836576
63108.76073523187,5.7723327050116495,PPG_1,PPG_3,171517.0,171517.0,-447.9177991649194,7.41370471897896,0.2876478675798819
63108.77084439597,5.782441869116155,PPG_1,PPG_3,171517.0,171517.0,-447.8453825767501,9.82491895861921,0.3813142244813705
63108.78095356008,5.792551033227937,PPG_1,PPG_3,171548.0,171548.0,-416.77296598855173,12.13489205530435,0.47104775414865907
63108.79106272419,5.802660197332443,PPG_1,PPG_3,171522.0,171522.0,-442.70054940038244,14.271113604048608,0.5540317075095117
63108.80117188829,5.812769361436949,PPG_1,PPG_3,171514.0,171514.0,-450.62813281221315,16.183899522286318,0.6283360499227041
63108.8112810524,5.822878525548731,PPG_1,PPG_3,171524.0,171524.0,-440.55571622404386,17.848366425104896,0.6929941580273498
63108.82139021651,5.832987689653237,PPG_1,PPG_3,171561.0,171561.0,-403.48329963584547,19.263017363125922,0.7479478811239223
63108.83149938061,5.843096853757743,PPG_1,PPG_3,171522.0,171522.0,-442.4108830476762,20.44614032189193,0.7939076367907004
63108.84160854472,5.853206017869525,PPG_1,PPG_3,171508.0,171508.0,-456.3384664595069,21.428590939604227,0.8320720473535949
63108.85171770883,5.863315181974031,PPG_1,PPG_3,171520.0,171520.0,-444.2660498713376,22.242506354415294,0.863689516460235
63108.86182687293,5.8734243460785365,PPG_1,PPG_3,171519.0,171519.0,-445.1936332831392,22.909784987243793,0.8896107131534731
63108.871936037045,5.883533510190318,PPG_1,PPG_3,171546.0,171546.0,-418.1212166949699,23.435135264095905,0.9100185415915083
63108.88204520115,5.893642674294824,PPG_1,PPG_3,171510.0,171510.0,-454.0488001068006,23.804799671969693,0.9243785755496894
63108.892154365254,5.90375183839933,PPG_1,PPG_3,171523.0,171523.0,-440.97638351860223,23.989035462674135,0.9315354241790856
63108.902263529366,5.913861002511112,PPG_1,PPG_3,171525.0,171525.0,-438.90396693043294,23.947177483097537,0.9299094034009479
63108.91237269347,5.923970166615618,PPG_1,PPG_3,171560.0,171560.0,-403.83155034226365,23.63557074397605,0.9178046855539692
63108.922481857575,5.934079330720124,PPG_1,PPG_3,171531.0,171531.0,-432.75913375409436,23.016984731978525,0.8937750090443144
63108.93259102168,5.94418849482463,PPG_1,PPG_3,171525.0,171525.0,-438.68671716589597,22.06725620406472,0.8568817252403949
63108.94270018579,5.954297658936412,PPG_1,PPG_3,171528.0,171528.0,-435.6143005777267,20.77569276047659,0.8067094757242794
63108.952809349896,5.9644068230409175,PPG_1,PPG_3,171493.0,171493.0,-470.5418839895574,19.139880691108676,0.7431644971843228
63108.962918514,5.974515987145423,PPG_1,PPG_3,171499.0,171499.0,-464.469467401359,17.158924365229538,0.6662119978270942
63108.97302767811,5.984625151257205,PPG_1,PPG_3,171499.0,171499.0,-464.3970508131897,14.830428083209446,0.5757589139783428
63108.98313684222,5.994734315361711,PPG_1,PPG_3,171534.0,171534.0,-429.3246342250204,12.155554365485925,0.4718504050653878
63108.99324600632,6.004843479466217,PPG_1,PPG_3,171544.0,171544.0,-419.2522176368511,9.152068316535617,0.3551765767573754
63109.00335517043,6.014952643577999,PPG_1,PPG_3,171526.0,171526.0,-437.17980104865273,5.86906771195523,0.22764468793512424
63109.01346433454,6.025061807682505,PPG_1,PPG_3,171493.0,171493.0,-470.10738446048344,2.3944802553949343,0.0926703901555255
63109.02357349864,6.035170971787011,PPG_1,PPG_3,171504.0,171504.0,-459.03496787231416,-1.1494943530061597,-0.0449993303790698
63109.03368266275,6.045280135898793,PPG_1,PPG_3,171495.0,171495.0,-467.96255128414487,-4.620961563898593,-0.17985241867029483
63109.04379182686,6.055389300003299,PPG_1,PPG_3,171475.0,171475.0,-487.8901346959465,-7.8777084727301565,-0.3063644528501981
63109.05390099096,6.0654984641078045,PPG_1,PPG_3,171465.0,171465.0,-497.8177181077772,-10.796867113995223,-0.4197624871889439
63109.064010155074,6.075607628219586,PPG_1,PPG_3,171481.0,171481.0,-481.7453015196079,-13.2908521037087,-0.5166441679259948
63109.07411931918,6.085716792324092,PPG_1,PPG_3,171483.0,171483.0,-479.6728849314095,-15.315831046883995,-0.5953067758731655
63109.08422848328,6.095825956428598,PPG_1,PPG_3,171508.0,171508.0,-454.6004683432402,-16.871769271972042,-0.6557489641747367
63109.094337647395,6.10593512054038,PPG_1,PPG_3,171439.0,171439.0,-523.5280517550709,-17.99702820912392,-0.6994609261734277
63109.1044468115,6.116044284644886,PPG_1,PPG_3,171482.0,171482.0,-480.45563516690163,-18.76097991798282,-0.7291374983506707
63109.1145559756,6.126153448749392,PPG_1,PPG_3,171473.0,171473.0,-489.38321857870324,-19.2545970013978,-0.74831261483253
63109.12466513971,6.136262612861174,PPG_1,PPG_3,171504.0,171504.0,-458.31080199053395,-19.57718334932238,-0.7608438480591384
63109.13477430382,6.14637177696568,PPG_1,PPG_3,171483.0,171483.0,-479.23838540236466,-19.820633337776137,-0.770300939482742
63109.144883467925,6.1564809410701855,PPG_1,PPG_3,171476.0,171476.0,-486.16596881416626,-20.056155800011943,-0.7794500771426904
63109.15499263204,6.166590105181967,PPG_1,PPG_3,171477.0,171477.0,-485.093552225997,-20.327360850408418,-0.7899853454843839
63109.16510179614,6.176699269286473,PPG_1,PPG_3,171480.0,171480.0,-482.0211356378277,-20.64982318099469,-0.8025117611165701
63109.175210960246,6.186808433390979,PPG_1,PPG_3,171461.0,171461.0,-500.9487190496584,-21.01507105308735,-0.8167002297240069
63109.18532012436,6.196917597502761,PPG_1,PPG_3,171473.0,171473.0,-488.87630246146,-21.396967819978446,-0.8315354435673371
63109.19542928846,6.207026761607267,PPG_1,PPG_3,171478.0,171478.0,-483.8038858732907,-21.75872238249558,-0.84558821059501
63109.20553845257,6.217135925711773,PPG_1,PPG_3,171488.0,171488.0,-473.7314692851214,-22.05947620361645,-0.8572713345105342
63109.21564761667,6.227245089816279,PPG_1,PPG_3,171467.0,171467.0,-494.65905269695213,-22.261268376739707,-0.8651101807635782
63109.22575678078,6.237354253928061,PPG_1,PPG_3,171431.0,171431.0,-530.5866361087537,-22.33775941998854,-0.8680815622521767
63109.23586594489,6.2474634180325666,PPG_1,PPG_3,171445.0,171445.0,-516.5142195205844,-22.282875376353914,-0.8659495292147289
63109.24597510899,6.2575725821370725,PPG_1,PPG_3,171492.0,171492.0,-469.44180293241516,-22.11349038760208,-0.8593695768615315
63109.2560842731,6.267681746248854,PPG_1,PPG_3,171489.0,171489.0,-472.36938634421676,-21.86191795931432,-0.8495969600333847
63109.26619343721,6.27779091035336,PPG_1,PPG_3,171480.0,171480.0,-481.2969697560475,-21.561450194857002,-0.8379249483139903
63109.27630260131,6.287900074457866,PPG_1,PPG_3,171464.0,171464.0,-497.2245531678782,-21.232926256486582,-0.8251630626398756
63109.286411765424,6.298009238569648,PPG_1,PPG_3,171499.0,171499.0,-462.1521365797089,-20.87752667544167,-0.8113571620883928
63109.29652092953,6.308118402674154,PPG_1,PPG_3,171466.0,171466.0,-495.0797199915105,-20.47625396324344,-0.7957692676335246
63109.30663009363,6.31822756677866,PPG_1,PPG_3,171449.0,171449.0,-512.0073034033412,-19.995055650220717,-0.777076572398486
63109.316739257745,6.328336730890442,PPG_1,PPG_3,171479.0,171479.0,-481.9348868151719,-19.393780956733487,-0.7537193737264962
63109.32684842185,6.338445894994948,PPG_1,PPG_3,171448.0,171448.0,-512.8624702269735,-18.635301625044647,-0.7242553822584594
63109.336957585954,6.3485550590994535,PPG_1,PPG_3,171510.0,171510.0,-450.79005363880424,-17.69135208819191,-0.6875865899287347
63109.347066750066,6.358664223211235,PPG_1,PPG_3,171475.0,171475.0,-485.71763705063495,-16.545046656891717,-0.6430570529505946
63109.35717591417,6.368773387315741,PPG_1,PPG_3,171441.0,171441.0,-519.6452204624657,-15.19303682508797,-0.5905366948015213
63109.367285078275,6.378882551420247,PPG_1,PPG_3,171466.0,171466.0,-494.57280387426727,-13.648870935593235,-0.5305518162524887
63109.37739424239,6.388991715532029,PPG_1,PPG_3,171507.0,171507.0,-453.500387286098,-11.944663718873247,-0.46434995049907357
63109.38750340649,6.399100879636535,PPG_1,PPG_3,171463.0,171463.0,-497.4279706979287,-10.127778319871581,-0.3937709727233848
63109.39761257059,6.409210043741041,PPG_1,PPG_3,171489.0,171489.0,-471.3555541097594,-8.2538895445775,-0.32097763402504664
63109.40772173471,6.419319207852823,PPG_1,PPG_3,171456.0,171456.0,-504.283137521561,-6.379684900041829,-0.24817202502710983
63109.41783089881,6.429428371957329,PPG_1,PPG_3,171514.0,171514.0,-446.2107209333917,-4.555585195898538,-0.17731279937087918
63109.42794006292,6.4395375360618345,PPG_1,PPG_3,171514.0,171514.0,-446.1383043452224,-2.8177916989989913,-0.10980623640119289
63109.43804922703,6.449646700173616,PPG_1,PPG_3,171487.0,171487.0,-473.06588775702403,-1.1822614256731825,-0.04627220454868498
63109.44815839113,6.459755864278122,PPG_1,PPG_3,171470.0,171470.0,-489.99347116885474,0.3546622266346685,0.01343134106776957
63109.45826755524,6.469865028382628,PPG_1,PPG_3,171487.0,171487.0,-472.92105458068545,1.8080351484097081,0.06988926362144973
63109.46837671935,6.47997419249441,PPG_1,PPG_3,171491.0,171491.0,-468.84863799251616,3.1931376802377063,0.12369514530482653
63109.478485883454,6.490083356598916,PPG_1,PPG_3,171497.0,171497.0,-462.77622140431777,4.5163258691152315,0.17509589398559405
63109.48859504756,6.500192520703422,PPG_1,PPG_3,171455.0,171455.0,-504.7038048161485,5.7693631691636496,0.22377155168025156
63109.49870421167,6.510301684815204,PPG_1,PPG_3,171487.0,171487.0,-472.6313882279792,6.927570479265575,0.2687634306640559
63109.508813375774,6.52041084891971,PPG_1,PPG_3,171518.0,171518.0,-441.5589716397808,7.953819302979321,0.30862923230516026
63109.51892253988,6.530520013024216,PPG_1,PPG_3,171501.0,171501.0,-458.4865550516115,8.809290812631682,0.34186099513437634
63109.52903170399,6.5406291771359975,PPG_1,PPG_3,171510.0,171510.0,-449.4141384634422,9.467196390904416,0.3674180848731829
63109.539140868095,6.550738341240503,PPG_1,PPG_3,171489.0,171489.0,-470.3417218752729,9.923541485582627,0.3851453286019485
63109.5492500322,6.560847505345009,PPG_1,PPG_3,171518.0,171518.0,-441.26930528707453,10.201920132997124,0.3959592634708676
63109.559359196304,6.570956669449515,PPG_1,PPG_3,171503.0,171503.0,-456.19688869890524,10.352451506912598,0.4018068257331665
63109.569468360416,6.581065833561297,PPG_1,PPG_3,171482.0,171482.0,-477.12447211073595,10.44535408133147,0.405415731797807
63109.57957752452,6.591174997665803,PPG_1,PPG_3,171494.0,171494.0,-465.05205552256666,10.559896918776795,0.40986527846864274
63109.589686688625,6.601284161770309,PPG_1,PPG_3,171468.0,171468.0,-490.97963893436827,10.771556626724303,0.4180874403240049
63109.59979585274,6.611393325882091,PPG_1,PPG_3,171500.0,171500.0,-458.907222346199,11.141919019912432,0.4324745883148133
63109.60990501684,6.621502489986597,PPG_1,PPG_3,171496.0,171496.0,-462.8348057580297,11.714844584734914,0.4547305328718826
63109.620014180946,6.6316116540911025,PPG_1,PPG_3,171528.0,171528.0,-430.7623891698313,12.519042893172763,0.4859705299403104
63109.63012334506,6.641720818202884,PPG_1,PPG_3,171514.0,171514.0,-444.689972581662,13.57326155360419,0.5269228516696777
63109.64023250916,6.65182998230739,PPG_1,PPG_3,171500.0,171500.0,-458.6175559934927,14.888320822752743,0.5780078232270192
63109.65034167327,6.661939146411896,PPG_1,PPG_3,171467.0,171467.0,-491.5451394053234,16.46249939652115,0.63915857859883
63109.66045083738,6.672048310523678,PPG_1,PPG_3,171480.0,171480.0,-478.47272281712503,18.272707197905536,0.7094781575075985
63109.67056000148,6.682157474628184,PPG_1,PPG_3,171517.0,171517.0,-441.40030622895574,20.268688780601853,0.7870143300384661
63109.68066916559,6.69226663873269,PPG_1,PPG_3,171520.0,171520.0,-438.32788964078645,22.37588490840376,0.8688707579424318
63109.6907783297,6.702375802844472,PPG_1,PPG_3,171513.0,171513.0,-445.25547305258806,24.505688352221384,0.9516053927247833
63109.70088749381,6.712484966948978,PPG_1,PPG_3,171531.0,171531.0,-427.18305646441877,26.566972860114895,1.0316783315859392
63109.71099665791,6.722594131053484,PPG_1,PPG_3,171525.0,171525.0,-433.1106398762495,28.473545409112596,1.1057413086110102
63109.72110582202,6.7327032951652654,PPG_1,PPG_3,171485.0,171485.0,-473.0382232880802,30.14530154685466,1.1706825753287138
63109.731214986125,6.742812459269771,PPG_1,PPG_3,171499.0,171499.0,-458.9658066998818,31.504220641258517,1.2234713316341965
63109.74132415023,6.752921623374277,PPG_1,PPG_3,171510.0,171510.0,-447.8933901117125,32.4700031007292,1.2609882486508592
63109.75143331434,6.763030787486059,PPG_1,PPG_3,171516.0,171516.0,-441.8209735235432,32.96104400078268,1.2800632903628306
63109.761542478445,6.773139951590565,PPG_1,PPG_3,171551.0,171551.0,-406.7485569353739,32.90234713075531,1.2777831437518004
63109.77165164255,6.783249115695071,PPG_1,PPG_3,171495.0,171495.0,-462.67614034717553,32.23664057122939,1.2519230160322825
63109.78176080666,6.793358279806853,PPG_1,PPG_3,171510.0,171510.0,-447.60372375900624,30.93355849744427,1.2013033122380234
63109.791869970766,6.803467443911359,PPG_1,PPG_3,171526.0,171526.0,-431.53130717083695,28.99507251623672,1.1260006216768526
63109.80197913487,6.813576608015865,PPG_1,PPG_3,171509.0,171509.0,-448.45889058263856,26.45859225547703,1.0274681638503989
63109.81208829898,6.8236857721276465,PPG_1,PPG_3,171522.0,171522.0,-435.38647399446927,23.398278564039074,0.9085868011990622
63109.82219746309,6.833794936232152,PPG_1,PPG_3,171507.0,171507.0,-450.3140574063,19.922833844276504,0.7735792020562985
63109.83230662719,6.843904100336658,PPG_1,PPG_3,171468.0,171468.0,-489.2416408181307,16.16833894876223,0.6277315817633271
63109.842415791296,6.854013264441164,PPG_1,PPG_3,171516.0,171516.0,-441.1692242299323,12.287298493384485,0.47696815540899185
63109.85252495541,6.864122428552946,PPG_1,PPG_3,171497.0,171497.0,-460.096807641763,8.436909231654006,0.32739540949956375
63109.86263411951,6.874231592657452,PPG_1,PPG_3,171488.0,171488.0,-469.0243910535937,4.768020349514135,0.18487325206668095
63109.87274328362,6.884340756761958,PPG_1,PPG_3,171476.0,171476.0,-480.9519744653953,1.4135268829171763,0.05456414178502433
63109.88285244773,6.89444992087374,PPG_1,PPG_3,171487.0,171487.0,-469.87955787722603,-1.5245432392155618,-0.059568530516357014
63109.89296161183,6.904559084978246,PPG_1,PPG_3,171448.0,171448.0,-508.80714128905674,-3.987445773974081,-0.1552427779729791
63109.90307077594,6.914668249082752,PPG_1,PPG_3,171450.0,171450.0,-506.73472470088745,-5.968427065525868,-0.23219624715012926
63109.91317994005,6.924777413194533,PPG_1,PPG_3,171478.0,171478.0,-478.66230811268906,-7.513835203732903,-0.29222938226190676
63109.923289104154,6.934886577299039,PPG_1,PPG_3,171481.0,171481.0,-475.58989152451977,-8.713628900392985,-0.33883673168444767
63109.93339826826,6.944995741403545,PPG_1,PPG_3,171471.0,171471.0,-485.5174749363505,-9.682432931672887,-0.37647102509132596
63109.94350743237,6.955104905515327,PPG_1,PPG_3,171516.0,171516.0,-440.4450583481812,-10.536658982693153,-0.40965440666481534
63109.953616596475,6.965214069619833,PPG_1,PPG_3,171461.0,171461.0,-495.3726417599828,-11.374306152489623,-0.4421937627592717
63109.96372576058,6.975323233724339,PPG_1,PPG_3,171486.0,171486.0,-470.3002251718135,-12.262582203365785,-0.4766998552667649
63109.97383492469,6.985432397836121,PPG_1,PPG_3,171471.0,171471.0,-485.2278085836442,-13.235491193150784,-0.5144936104510677
63109.983944088795,6.995541561940627,PPG_1,PPG_3,171444.0,171444.0,-512.1553919954458,-14.300022023019888,-0.5558465201195316
63109.9940532529,7.005650726045133,PPG_1,PPG_3,171434.0,171434.0,-522.0829754072765,-15.447000552654835,-0.600402204367299
63110.00416241701,7.0157598901569145,PPG_1,PPG_3,171468.0,171468.0,-488.01055881910725,-16.660870820989437,-0.6475563742111609
63110.01427158112,7.02586905426142,PPG_1,PPG_3,171478.0,171478.0,-477.93814223093796,-17.92311379211307,-0.6965896366587572
63110.02438074522,7.035978218365926,PPG_1,PPG_3,171479.0,171479.0,-476.86572564273956,-19.20895075505908,-0.7465394345275672
63110.03448990933,7.046087382477708,PPG_1,PPG_3,171452.0,171452.0,-503.7933090545703,-20.482583208065364,-0.7960151343402905
63110.04459907344,7.056196546582214,PPG_1,PPG_3,171452.0,171452.0,-503.720892466401,-21.69628890119046,-0.843162911073139
63110.05470823754,7.06630571068672,PPG_1,PPG_3,171466.0,171466.0,-489.6484758782026,-22.79401775043553,-0.8858054355257939
63110.06481740165,7.076414874798502,PPG_1,PPG_3,171462.0,171462.0,-493.5760592900333,-23.716986654552944,-0.9216592113374927
63110.07492656576,7.086524038903008,PPG_1,PPG_3,171447.0,171447.0,-508.503642701864,-24.409806368315227,-0.9485725803408739
63110.08503572986,7.096633203007514,PPG_1,PPG_3,171435.0,171435.0,-520.4312261136947,-24.82713266730287,-0.9647840946156013
63110.095144893974,7.1067423671192955,PPG_1,PPG_3,171448.0,171448.0,-507.3588095254963,-24.939475772474534,-0.9691481901868022
63110.10525405808,7.116851531223801,PPG_1,PPG_3,171471.0,171471.0,-484.28639293732704,-24.735169318252673,-0.9612116738276099
63110.11536322218,7.126960695328307,PPG_1,PPG_3,171454.0,171454.0,-501.21397634915775,-24.217303039620386,-0.9410945698041803
63110.125472386295,7.137069859440089,PPG_1,PPG_3,171454.0,171454.0,-501.14155976098846,-23.397985040181872,-0.9092672311589542
63110.1355815504,7.147179023544595,PPG_1,PPG_3,171474.0,171474.0,-481.06914317279006,-22.29319320661408,-0.8663503370549074
63110.145690714504,7.157288187649101,PPG_1,PPG_3,171472.0,171472.0,-482.9967265846208,-20.919977432569013,-0.8130062099840379
63110.155799878616,7.167397351760883,PPG_1,PPG_3,171456.0,171456.0,-498.9243099964515,-19.29727374439939,-0.7499704414062385
63110.16590904272,7.177506515865389,PPG_1,PPG_3,171449.0,171449.0,-505.8518934082531,-17.451390166043,-0.6782649964040879
63110.176018206825,7.187615679969895,PPG_1,PPG_3,171427.0,171427.0,-527.7794768200838,-15.424578978661545,-0.5995312128488257
63110.18612737093,7.197724844074401,PPG_1,PPG_3,171457.0,171457.0,-497.7070602319145,-13.28143814258863,-0.5162784719095924
63110.19623653504,7.2078340081861825,PPG_1,PPG_3,171495.0,171495.0,-459.6346436437452,-11.107458011866935,-0.4318277435283167
63110.206345699145,7.217943172290688,PPG_1,PPG_3,171461.0,171461.0,-493.5622270555468,-8.998687345405251,-0.3499101508810289
63110.21645486325,7.228052336395194,PPG_1,PPG_3,171484.0,171484.0,-470.48981046737754,-7.047270993829226,-0.2741051653906515
63110.22656402736,7.238161500506976,PPG_1,PPG_3,171468.0,171468.0,-486.41739387920825,-5.328561190758588,-0.2073399301917584
63110.236673191466,7.248270664611482,PPG_1,PPG_3,171499.0,171499.0,-455.34497729100985,-3.892296870776934,-0.1515466107145364
63110.24678235557,7.258379828715988,PPG_1,PPG_3,171470.0,171470.0,-484.27256070284056,-2.7584008042033603,-0.10749912960944787
63110.25689151968,7.26848899282777,PPG_1,PPG_3,171449.0,171449.0,-505.2001441146713,-1.917855266770928,-0.07484718313087771
63110.26700068379,7.278598156932276,PPG_1,PPG_3,171479.0,171479.0,-475.127727526502,-1.3374340131214497,-0.05230006002428359
63110.27710984789,7.288707321036782,PPG_1,PPG_3,171485.0,171485.0,-469.0553109383036,-0.9646352085634591,-0.03781826686541985
63110.287219012,7.2988164851485635,PPG_1,PPG_3,171486.0,171486.0,-467.9828943501343,-0.7303922464871745,-0.028718832843011025
63110.29732817611,7.308925649253069,PPG_1,PPG_3,171488.0,171488.0,-465.910477761965,-0.5513271944862286,-0.021762847433847793
63110.30743734021,7.319034813357575,PPG_1,PPG_3,171477.0,171477.0,-476.8380611737957,-0.33516762836607983,-0.013365883474767335
63110.31754650432,7.329143977469357,PPG_1,PPG_3,171479.0,171479.0,-474.76564458559733,0.008892421480131054,-4.79897336852303e-07
63110.32765566843,7.339253141573863,PPG_1,PPG_3,171450.0,171450.0,-503.69322799742804,0.5559944651804655,0.021252320639547413
63110.33776483253,7.349362305678369,PPG_1,PPG_3,171450.0,171450.0,-503.62081140925875,1.3512594894308019,0.0521452941331913
63110.347873996645,7.359471469790151,PPG_1,PPG_3,171482.0,171482.0,-471.54839482106036,2.4007631572940076,0.09291445661879566
63110.35798316075,7.369580633894657,PPG_1,PPG_3,171497.0,171497.0,-456.47597823289107,3.67219337654196,0.14230460815886975
63110.368092324854,7.379689797999163,PPG_1,PPG_3,171503.0,171503.0,-450.4035616447218,5.104258471567894,0.19793480397128174
63110.378201488966,7.389798962110945,PPG_1,PPG_3,171462.0,171462.0,-491.3311450565525,6.618717159750989,0.2567656725303038
63110.38831065307,7.399908126215451,PPG_1,PPG_3,171481.0,171481.0,-472.2587284683541,8.129552829854921,0.3154558008353558
63110.398419817175,7.410017290319956,PPG_1,PPG_3,171492.0,171492.0,-461.1863118801848,9.549128382727249,0.37060082619146256
63110.40852898129,7.420126454431738,PPG_1,PPG_3,171481.0,171481.0,-472.1138952920155,10.794191258045144,0.4189667082964551
63110.41863814539,7.430235618536244,PPG_1,PPG_3,171484.0,171484.0,-469.0414787038171,11.792955465772076,0.45776483879992325
63110.428747309496,7.44034478264075,PPG_1,PPG_3,171506.0,171506.0,-446.96906211564783,12.492395670742324,0.48493538830686717
63110.43885647361,7.450453946752532,PPG_1,PPG_3,171458.0,171458.0,-494.89664552747854,12.864704255160335,0.4993981383073766
63110.44896563771,7.460563110857038,PPG_1,PPG_3,171512.0,171512.0,-440.82422893930925,12.912386828591046,0.5012504220520217
63110.459074801816,7.470672274961544,PPG_1,PPG_3,171500.0,171500.0,-452.75181235111086,12.671840855015914,0.49190614038608976
63110.46918396592,7.48078143906605,PPG_1,PPG_3,171489.0,171489.0,-463.67939576294157,12.214412415745283,0.47413681290567217
63110.47929313003,7.490890603177832,PPG_1,PPG_3,171490.0,171490.0,-462.6069791747723,11.642566783123328,0.45192281954201446
63110.48940229414,7.500999767282337,PPG_1,PPG_3,171473.0,171473.0,-479.534562586603,11.079990834349323,0.43006891758018734
63110.49951145824,7.511108931386843,PPG_1,PPG_3,171467.0,171467.0,-485.4621459984046,10.657722668387619,0.4136654308676142
63110.50962062235,7.521218095498625,PPG_1,PPG_3,171509.0,171509.0,-443.3897294102353,10.500289422730711,0.4075497575552089
63110.51972978646,7.531327259603131,PPG_1,PPG_3,171490.0,171490.0,-462.317312822066,10.714480804139285,0.41587026514280157
63110.52983895056,7.541436423707637,PPG_1,PPG_3,171473.0,171473.0,-479.2448962338676,11.379944827176555,0.4417209712568336
63110.539948114674,7.551545587819419,PPG_1,PPG_3,171456.0,171456.0,-496.17247964569833,12.539727535952231,0.48677404839217997
63110.55005727878,7.561654751923925,PPG_1,PPG_3,171495.0,171495.0,-457.10006305752904,14.192364731996959,0.5509726180955905
63110.56016644288,7.571763916028431,PPG_1,PPG_3,171491.0,171491.0,-461.02764646935975,16.289839594715637,0.6324514124115284
63110.570275606995,7.5818730801402126,PPG_1,PPG_3,171504.0,171504.0,-447.95522988116136,18.742922816688765,0.7277442175057243
63110.5803847711,7.5919822442447185,PPG_1,PPG_3,171502.0,171502.0,-449.88281329299207,21.43073050616238,0.832155161247647
63110.5904939352,7.602091408349224,PPG_1,PPG_3,171479.0,171479.0,-472.8103967048228,24.210249235244337,0.9401287245306035
63110.60060309931,7.612200572461006,PPG_1,PPG_3,171502.0,171502.0,-449.7379801166244,26.92424129091884,1.0455568297298081
63110.61071226342,7.622309736565512,PPG_1,PPG_3,171526.0,171526.0,-425.6655635284551,29.408723795309445,1.1420693756272124
63110.620821427525,7.632418900670018,PPG_1,PPG_3,171495.0,171495.0,-456.5931469402858,31.500817527119047,1.2233391337986315
63110.63093059164,7.6425280647818,PPG_1,PPG_3,171497.0,171497.0,-454.5207303521165,33.04548909519601,1.2833436560067724
63110.64103975574,7.652637228886306,PPG_1,PPG_3,171486.0,171486.0,-465.4483137639181,33.900278413946005,1.3165489183552408
63110.651148919846,7.662746392990812,PPG_1,PPG_3,171494.0,171494.0,-457.37589717574883,33.94049728953471,1.318111266276523
63110.66125808396,7.672855557102594,PPG_1,PPG_3,171531.0,171531.0,-420.30348058757954,33.068504242390496,1.2842377055506988
63110.67136724806,7.6829647212070995,PPG_1,PPG_3,171526.0,171526.0,-425.23106399941025,31.22714456517679,1.2127079966287566
63110.68147641217,7.693073885311605,PPG_1,PPG_3,171498.0,171498.0,-453.15864741121186,28.412379463667452,1.1033652479598683
63110.69158557628,7.703183049423387,PPG_1,PPG_3,171488.0,171488.0,-463.08623082304257,24.6790076816095,0.9583381790104251
63110.70169474038,7.713292213527893,PPG_1,PPG_3,171509.0,171509.0,-442.0138142348733,20.137736725963986,0.7819273486806736
63110.71180390449,7.723401377632399,PPG_1,PPG_3,171476.0,171476.0,-474.9413976466749,14.946178845119384,0.5802553838475208
63110.7219130686,7.733510541744181,PPG_1,PPG_3,171477.0,171477.0,-473.8689810585056,9.296440563379592,0.3607848807302215
63110.7320222327,7.743619705848687,PPG_1,PPG_3,171457.0,171457.0,-493.7965644703363,3.400947317100571,0.13176774677422975
63110.74213139681,7.753728869953193,PPG_1,PPG_3,171473.0,171473.0,-477.724147882167,-2.5211682266005986,-0.09828356057493699
63110.75224056092,7.763838034064975,PPG_1,PPG_3,171492.0,171492.0,-458.6517312939686,-8.254899675328113,-0.32101687370182386
63110.762349725024,7.77394719816948,PPG_1,PPG_3,171463.0,171463.0,-487.57931470579933,-13.598244972292138,-0.5285851931838766
63110.77245888913,7.784056362273987,PPG_1,PPG_3,171434.0,171434.0,-516.50689811763,-18.372850577792917,-0.714060173115734
63110.78256805324,7.794165526385768,PPG_1,PPG_3,171429.0,171429.0,-521.4344815294317,-22.438248859163327,-0.8719851886989003
63110.792677217345,7.804274690490274,PPG_1,PPG_3,171419.0,171419.0,-531.3620649412624,-25.705898200509395,-0.998920740257811
63110.80278638145,7.81438385459478,PPG_1,PPG_3,171453.0,171453.0,-497.28964835309307,-28.146299582283866,-1.0937209048596415
63110.812895545554,7.824493018699286,PPG_1,PPG_3,171469.0,171469.0,-481.2172317649238,-29.785684728442828,-1.1574046836274852
63110.823004709666,7.834602182811068,PPG_1,PPG_3,171422.0,171422.0,-528.1448151767254,-30.69512239619498,-1.192732823187593
63110.83311387377,7.844711346915574,PPG_1,PPG_3,171426.0,171426.0,-524.0723985885561,-30.97795678901249,-1.203719846549571
63110.843223037875,7.85482051102008,PPG_1,PPG_3,171453.0,171453.0,-496.9999820003868,-30.758242862206956,-1.1951848094109943
63110.85333220199,7.864929675131862,PPG_1,PPG_3,171449.0,171449.0,-500.9275654122175,-30.168801375600225,-1.1722872851058592
63110.86344136609,7.875038839236368,PPG_1,PPG_3,171433.0,171433.0,-516.8551488240191,-29.33857262479035,-1.1400361059261788
63110.87355053019,7.885148003340873,PPG_1,PPG_3,171438.0,171438.0,-511.78273223584983,-28.381480717864346,-1.1028567832978284
63110.88365969431,7.895257167452655,PPG_1,PPG_3,171463.0,171463.0,-486.71031564768055,-27.38814112736397,-1.0642693782142931
63110.89376885841,7.905366331557161,PPG_1,PPG_3,171451.0,171451.0,-498.63789905948215,-26.42040567259836,-1.0266765948762917
63110.90387802252,7.915475495661667,PPG_1,PPG_3,171438.0,171438.0,-511.56548247131286,-25.509887395062066,-0.9913064778012667
63110.91398718663,7.925584659773449,PPG_1,PPG_3,171441.0,171441.0,-508.4930658831436,-24.661970211070525,-0.9583681713360119
63110.92409635073,7.935693823877955,PPG_1,PPG_3,171422.0,171422.0,-527.4206492949743,-23.86414976893108,-0.9273759297308504
63110.93420551484,7.945802987982461,PPG_1,PPG_3,171452.0,171452.0,-497.3482327067759,-23.094887814871374,-0.8974930750449709
63110.94431467895,7.955912152094243,PPG_1,PPG_3,171441.0,171441.0,-508.2758161186066,-22.32941396531296,-0.86775737358271
63110.95442384305,7.9660213161987485,PPG_1,PPG_3,171482.0,171482.0,-467.2033995304373,-21.541775211943897,-0.8371606512468643
63110.96453300716,7.9761304803032544,PPG_1,PPG_3,171420.0,171420.0,-529.1309829422389,-20.705688268146723,-0.8046819039041706
63110.97464217127,7.986239644415036,PPG_1,PPG_3,171452.0,171452.0,-497.0585663540696,-19.797312383542263,-0.7693950105168949
63110.984751335374,7.996348808519542,PPG_1,PPG_3,171438.0,171438.0,-510.98614976590034,-18.80000036488441,-0.7306532919478773
63110.99486049948,8.006457972624048,PPG_1,PPG_3,171442.0,171442.0,-506.91373317773105,-17.708049141731316,-0.6882352059456419
63111.00496966359,8.01656713673583,PPG_1,PPG_3,171468.0,171468.0,-480.84131658953265,-16.526891167369254,-0.6423517823307653
63111.015078827695,8.026676300840336,PPG_1,PPG_3,171464.0,171464.0,-484.76890000136336,-15.269949596702926,-0.5935244588076943
63111.0251879918,8.036785464944842,PPG_1,PPG_3,171430.0,171430.0,-518.6964834131941,-13.95474556211553,-0.54243386367239
63111.03529715591,8.046894629056624,PPG_1,PPG_3,171464.0,171464.0,-484.6240668250248,-12.600530428324623,-0.48982783806183244
63111.045406320016,8.05700379316113,PPG_1,PPG_3,171455.0,171455.0,-493.5516502368264,-11.226974853868073,-0.43647051105787793
63111.05551548412,8.067112957265635,PPG_1,PPG_3,171468.0,171468.0,-480.4792336486571,-9.852317584691411,-0.3830703874707107
63111.06562464823,8.077222121377417,PPG_1,PPG_3,171485.0,171485.0,-463.4068170604878,-8.491544255745234,-0.3302096013175417
63111.07573381234,8.087331285481923,PPG_1,PPG_3,171431.0,171431.0,-517.3344004722894,-7.1572233599176505,-0.27837638998566633
63111.08584297644,8.09744044958643,PPG_1,PPG_3,171436.0,171436.0,-512.2619838841201,-5.864277831925148,-0.22815045183045785
63111.095952140546,8.107549613690935,PPG_1,PPG_3,171475.0,171475.0,-473.18956729595084,-4.6356842161911045,-0.18042433682733616
63111.10606130466,8.117658777802717,PPG_1,PPG_3,171448.0,171448.0,-500.11715070778155,-3.503844807951489,-0.1364567489521257
63111.11617046876,8.127767941907223,PPG_1,PPG_3,171485.0,171485.0,-463.04473411958315,-2.5056639893834087,-0.09768128086341402
63111.12627963287,8.137877106011729,PPG_1,PPG_3,171464.0,171464.0,-483.97231753141386,-1.6740194819551506,-0.06537510500922696
63111.13638879698,8.14798627012351,PPG_1,PPG_3,171477.0,171477.0,-470.8999009432446,-1.0296426083160009,-0.040343553174017534
63111.14649796108,8.158095434228017,PPG_1,PPG_3,171449.0,171449.0,-498.8274843550462,-0.5761073034729948,-0.022725458924048068
63111.15660712519,8.168204598332522,PPG_1,PPG_3,171477.0,171477.0,-470.7550677668769,-0.2983950894339912,-0.011937412416840609
63111.1667162893,8.178313762444304,PPG_1,PPG_3,171458.0,171458.0,-489.6826511787076,-0.16364990594974516,-0.00670308265903568
63111.1768254534,8.18842292654881,PPG_1,PPG_3,171475.0,171475.0,-472.6102345905383,-0.12272894126311566,-0.005113461288989809
63111.18693461751,8.198532090653316,PPG_1,PPG_3,171485.0,171485.0,-462.5378180023399,-0.11259951165905543,-0.004719972086369653
63111.19704378162,8.208641254765098,PPG_1,PPG_3,171476.0,171476.0,-471.4654014141706,-0.06115966728914006,-0.002721732882860144
63111.207152945724,8.218750418869604,PPG_1,PPG_3,171431.0,171431.0,-516.3929848260013,0.1035319918036164,0.0036759017468946777
63111.21726210983,8.22885958297411,PPG_1,PPG_3,171452.0,171452.0,-495.32056823783205,0.44018996192192195,0.016753763126618706
63111.22737127394,8.238968747085892,PPG_1,PPG_3,171469.0,171469.0,-478.24815164963366,0.9823469927128062,0.037814469018222455
63111.237480438045,8.249077911190398,PPG_1,PPG_3,171477.0,171477.0,-470.17573506146437,1.7329477126438653,0.06697240686038881
63111.24758960215,8.259187075294903,PPG_1,PPG_3,171447.0,171447.0,-500.1033184732951,2.666151393048173,0.10322376418630355
63111.25769876626,8.269296239406685,PPG_1,PPG_3,171471.0,171471.0,-476.0309018850967,3.733464259439109,0.1446847452245707
63111.267807930366,8.279405403511191,PPG_1,PPG_3,171465.0,171465.0,-481.9584852969274,4.872590215419987,0.18893538732619225
63111.27791709447,8.289514567615697,PPG_1,PPG_3,171488.0,171488.0,-458.8860687087581,6.019071544022949,0.23347175723492325
63111.28802625858,8.299623731727479,PPG_1,PPG_3,171472.0,171472.0,-474.8136521205888,7.119494527819149,0.27621893840545003
63111.29813542269,8.309732895831985,PPG_1,PPG_3,171493.0,171493.0,-453.7412355323904,8.143108633040722,0.3159823914130047
63111.30824458679,8.31984205993649,PPG_1,PPG_3,171485.0,171485.0,-461.66881894422113,9.088583113943002,0.35271042192706453
63111.3183537509,8.329951224048273,PPG_1,PPG_3,171470.0,171470.0,-476.59640235605184,9.983731090877077,0.38748346221056174
63111.32846291501,8.340060388152779,PPG_1,PPG_3,171461.0,171461.0,-485.52398576785345,10.8779105866204,0.4222188807417592
63111.33857207911,8.350169552257285,PPG_1,PPG_3,171476.0,171476.0,-470.45156917968416,11.82962299501795,0.4591892306372708
63111.348681243224,8.360278716369066,PPG_1,PPG_3,171493.0,171493.0,-453.37915259151487,12.893454487255022,0.5005149737407902
63111.35879040733,8.370387880473572,PPG_1,PPG_3,171468.0,171468.0,-478.3067360033456,14.108688328125519,0.5477221131091797
63111.36889957143,8.380497044578078,PPG_1,PPG_3,171449.0,171449.0,-497.2343194151472,15.489337800612264,0.601355010642619
63111.379008735545,8.39060620868986,PPG_1,PPG_3,171446.0,171446.0,-500.1619028269779,17.01666403585884,0.6606857336881817
63111.38911789965,8.400715372794366,PPG_1,PPG_3,171492.0,171492.0,-454.0894862388086,18.63897573195146,0.7237062748883457
63111.399227063754,8.410824536898872,PPG_1,PPG_3,171511.0,171511.0,-435.0170696506393,20.282898870906685,0.7875663371426931
63111.40933622786,8.420933701003378,PPG_1,PPG_3,171495.0,171495.0,-450.9446530624409,21.873527353079506,0.8493561078978216
63111.41944539197,8.43104286511516,PPG_1,PPG_3,171510.0,171510.0,-435.87223647427163,23.35480823862342,0.9068981470147646
63111.429554556074,8.441152029219666,PPG_1,PPG_3,171495.0,171495.0,-450.79981988610234,24.702152725711407,0.9592372745473166
63111.43966372018,8.451261193324171,PPG_1,PPG_3,171480.0,171480.0,-465.72740329790395,25.924212567864636,1.0067095776916357
63111.44977288429,8.461370357435953,PPG_1,PPG_3,171507.0,171507.0,-438.65498670973466,27.055105492599747,1.0506403983396637
63111.459882048395,8.47147952154046,PPG_1,PPG_3,171465.0,171465.0,-480.58257012156537,28.140519401825664,1.0928045349543194
63111.4699912125,8.481588685644965,PPG_1,PPG_3,171486.0,171486.0,-459.5101535333961,29.22157583376264,1.1347994004124655
63111.48010037661,8.491697849756747,PPG_1,PPG_3,171514.0,171514.0,-431.4377369451977,30.3200405270771,1.1774705095641051
63111.49020954072,8.501807013861253,PPG_1,PPG_3,171503.0,171503.0,-442.3653203570284,31.426873655749084,1.2204667000959133
63111.50031870482,8.511916177965759,PPG_1,PPG_3,171452.0,171452.0,-493.2929037688591,32.49319193292973,1.2618890451861964
63111.51042786893,8.52202534207754,PPG_1,PPG_3,171473.0,171473.0,-472.2204871806607,33.42296472836765,1.2980071258872197
63111.52053703304,8.532134506182047,PPG_1,PPG_3,171474.0,171474.0,-471.1480705924914,34.071625524804325,1.3232050915711426
63111.53064619714,8.542243670286553,PPG_1,PPG_3,171500.0,171500.0,-445.07565400432213,34.25706699295746,1.3304087761109946
63111.54075536125,8.552352834398334,PPG_1,PPG_3,171528.0,171528.0,-417.00323741615284,33.78458359983858,1.3120546218420224
63111.55086452536,8.56246199850284,PPG_1,PPG_3,171504.0,171504.0,-440.93082082795445,32.47982878669836,1.2613699385868504
63111.56097368946,8.572571162607346,PPG_1,PPG_3,171507.0,171507.0,-437.85840423978516,30.220131863570366,1.1735894440081183
63111.571082853574,8.582680326719128,PPG_1,PPG_3,171518.0,171518.0,-426.78598765161587,26.95639011162195,1.046805687199391
63111.58119201768,8.592789490823634,PPG_1,PPG_3,171458.0,171458.0,-486.7135710634466,22.72222833560402,0.8823248619076873
63111.59130118178,8.60289865492814,PPG_1,PPG_3,171482.0,171482.0,-462.6411544752482,17.631056272820754,0.6845524982413657
63111.601410345895,8.613007819039922,PPG_1,PPG_3,171481.0,171481.0,-463.5687378870789,11.864682703174058,0.4605511648374861
63111.61151951,8.623116983144428,PPG_1,PPG_3,171502.0,171502.0,-442.4963212989096,5.657549623804126,0.21942802746167012
63111.621628674104,8.633226147248934,PPG_1,PPG_3,171456.0,171456.0,-488.4239047107112,-0.7230056903244625,-0.028431893675833292
63111.631737838215,8.643335311360715,PPG_1,PPG_3,171423.0,171423.0,-521.3514881225419,-7.002754384933028,-0.27237586713570366
63111.64184700232,8.653444475465221,PPG_1,PPG_3,171385.0,171385.0,-559.2790715343726,-12.931184882147624,-0.502672486029519
63111.651956166424,8.663553639569727,PPG_1,PPG_3,171455.0,171455.0,-489.20665494620334,-18.30775098283325,-0.711531305379558
63111.662065330536,8.673662803681509,PPG_1,PPG_3,171457.0,171457.0,-487.13423835800495,-22.99379579467702,-0.8935660406538545
63111.67217449464,8.683771967786015,PPG_1,PPG_3,171425.0,171425.0,-519.0618217698357,-26.908737272826265,-1.0456463907580738
63111.682283658745,8.693881131890521,PPG_1,PPG_3,171437.0,171437.0,-506.98940518166637,-30.017816687531408,-1.1664221133401915
63111.69239282286,8.703990296002303,PPG_1,PPG_3,171458.0,171458.0,-485.916988593468,-32.318832242024456,-1.255807677102945
63111.70250198696,8.714099460106809,PPG_1,PPG_3,171420.0,171420.0,-523.8445720052987,-33.831296874814974,-1.31456108431448
63111.712611151066,8.724208624211315,PPG_1,PPG_3,171426.0,171426.0,-517.7721554171294,-34.5898991011666,-1.344029849765333
63111.72272031517,8.73431778831582,PPG_1,PPG_3,171435.0,171435.0,-508.6997388289601,-34.64297024054957,-1.3460914584771972
63111.73282947928,8.744426952427602,PPG_1,PPG_3,171412.0,171412.0,-531.6273222407617,-34.05440446396275,-1.3232279521228185
63111.74293864339,8.754536116532108,PPG_1,PPG_3,171421.0,171421.0,-522.5549056525924,-32.90664119642154,-1.2786417838394173
63111.75304780749,8.764645280636614,PPG_1,PPG_3,171423.0,171423.0,-520.4824890644231,-31.30255760267557,-1.2163293339867454
63111.7631569716,8.774754444748396,PPG_1,PPG_3,171420.0,171420.0,-523.4100724762538,-29.36419112815939,-1.1410312857987912
63111.77326613571,8.784863608852902,PPG_1,PPG_3,171437.0,171437.0,-506.33765588805545,-27.22702205975533,-1.0580105249601264
63111.78337529981,8.794972772957408,PPG_1,PPG_3,171437.0,171437.0,-506.26523929988616,-25.030130405341623,-0.972669772407621
63111.79348446392,8.80508193706919,PPG_1,PPG_3,171429.0,171429.0,-514.1928227117169,-22.903878259173464,-0.8900730918176553
63111.80359362803,8.815191101173696,PPG_1,PPG_3,171452.0,171452.0,-491.1204061235185,-20.957185303633995,-0.8144515920133167
63111.81370279213,8.825300265278202,PPG_1,PPG_3,171454.0,171454.0,-489.0479895353492,-19.266180333586803,-0.7487625825330713
63111.823811956245,8.835409429389983,PPG_1,PPG_3,171453.0,171453.0,-489.9755729471799,-17.866308160153505,-0.6943829573394059
63111.83392112035,8.84551859349449,PPG_1,PPG_3,171445.0,171445.0,-497.9031563590106,-16.7505868235358,-0.6510414942706444
63111.844030284454,8.855627757598995,PPG_1,PPG_3,171439.0,171439.0,-503.8307397708122,-15.8755879997195,-0.6170511707346534
63111.854139448566,8.865736921710777,PPG_1,PPG_3,171423.0,171423.0,-519.7583231826429,-15.173786292266168,-0.589788885980477
63111.86424861267,8.875846085815283,PPG_1,PPG_3,171461.0,171461.0,-481.68590659447364,-14.568458494985125,-0.5662742398862429
63111.874357776775,8.885955249919789,PPG_1,PPG_3,171419.0,171419.0,-523.6134900062752,-13.987227835388246,-0.5436956744859276
63111.884466940886,8.89606441403157,PPG_1,PPG_3,171456.0,171456.0,-486.54107341810595,-13.372256950324545,-0.5198064316897358
63111.89457610499,8.906173578136077,PPG_1,PPG_3,171424.0,171424.0,-518.4686568299367,-12.686586926983148,-0.4931708005346505
63111.904685269095,8.916282742240583,PPG_1,PPG_3,171456.0,171456.0,-486.3962402417674,-11.916234614064779,-0.46324558961997675
63111.91479443321,8.926391906352364,PPG_1,PPG_3,171447.0,171447.0,-495.323823653569,-11.067893281159897,-0.43029080660824043
63111.92490359731,8.93650107045687,PPG_1,PPG_3,171449.0,171449.0,-493.2514070653997,-10.163206946475967,-0.3951472379799101
63111.935012761416,8.946610234561376,PPG_1,PPG_3,171437.0,171437.0,-505.1789904772304,-9.23140132589921,-0.3589501898765539
63111.94512192553,8.956719398673158,PPG_1,PPG_3,171475.0,171475.0,-467.1065738890611,-8.301525856632086,-0.32282812069397127
63111.95523108963,8.966828562777664,PPG_1,PPG_3,171456.0,171456.0,-486.0341573008627,-7.395127546310922,-0.28761804842676575
63111.96534025374,8.97693772688217,PPG_1,PPG_3,171461.0,171461.0,-480.9617407126934,-6.5213342441475115,-0.2536745547491656
63111.97544941785,8.987046890993952,PPG_1,PPG_3,171424.0,171424.0,-517.8893241245241,-5.676737650274208,-0.22086524038010252
63111.98555858195,8.997156055098458,PPG_1,PPG_3,171433.0,171433.0,-508.81690753632574,-4.849457562157807,-0.18872860535319308
63111.99566774606,9.007265219202964,PPG_1,PPG_3,171480.0,171480.0,-461.74449094815645,-4.022950533295712,-0.1566220006914123
63112.00577691017,9.017374383314746,PPG_1,PPG_3,171449.0,171449.0,-492.67207435998716,-3.1757701579216118,-0.12371231639410706
63112.015886074274,9.027483547419251,PPG_1,PPG_3,171472.0,171472.0,-469.5996577718179,-2.2784780756697436,-0.0888559859032823
63112.02599523838,9.037592711523756,PPG_1,PPG_3,171453.0,171453.0,-488.5272411836195,-1.2920483739138438,-0.050537003299446034
63112.03610440248,9.047701875628263,PPG_1,PPG_3,171472.0,171472.0,-469.4548245954502,-0.17059390963531534,-0.0069728303723848315
63112.046213566595,9.057811039740043,PPG_1,PPG_3,171454.0,171454.0,-487.3824080072809,1.1313006806119472,0.043600744274557825
63112.0563227307,9.067920203844553,PPG_1,PPG_3,171438.0,171438.0,-503.3099914190825,2.647652717095424,0.10250516209964132
63112.0664318948,9.078029367949055,PPG_1,PPG_3,171443.0,171443.0,-498.2375748309132,4.389164885912633,0.17015618110534173
63112.076541058916,9.08813853206084,PPG_1,PPG_3,171459.0,171459.0,-482.1651582427439,6.334877838638524,0.2457396115868503
63112.08665022302,9.098247696165345,PPG_1,PPG_3,171485.0,171485.0,-456.09274165457464,8.431328045030808,0.32717860196351495
63112.096759387125,9.10835686026985,PPG_1,PPG_3,171468.0,171468.0,-473.02032506637624,10.598872619732681,0.4113793338587454
63112.10686855124,9.118466024381632,PPG_1,PPG_3,171455.0,171455.0,-485.94790847820695,12.740951245889013,0.49459081204682404
63112.11697771534,9.128575188486138,PPG_1,PPG_3,171477.0,171477.0,-463.87549189003767,14.752814201998817,0.572743914573284
63112.127086879445,9.138684352590644,PPG_1,PPG_3,171473.0,171473.0,-467.8030753018684,16.529700175094394,0.6417690691999631
63112.13719604356,9.148793516702426,PPG_1,PPG_3,171476.0,171476.0,-464.73065871367,17.975523331738955,0.6979337125486651
63112.14730520766,9.158902680806932,PPG_1,PPG_3,171468.0,171468.0,-472.6582421255007,19.011667993016015,0.7381839292441459
63112.157414371766,9.169011844911438,PPG_1,PPG_3,171491.0,171491.0,-449.5858255373314,19.58484641525906,0.7604496963350285
63112.16752353588,9.17912100902322,PPG_1,PPG_3,171486.0,171486.0,-454.513408949133,19.673212096799517,0.7638823616407238
63112.17763269998,9.189230173127726,PPG_1,PPG_3,171469.0,171469.0,-471.4409923609637,19.28933834590612,0.7489703496074593
63112.18774186409,9.199339337232232,PPG_1,PPG_3,171474.0,171474.0,-466.36857577279443,18.478563701008696,0.7174748872768411
63112.1978510282,9.209448501344012,PPG_1,PPG_3,171462.0,171462.0,-478.29615918462514,17.31312648671704,0.6722021544497466
63112.2079601923,9.21955766544852,PPG_1,PPG_3,171485.0,171485.0,-455.22374259642675,15.884441233966932,0.6167032524509136
63112.21806935641,9.229666829553024,PPG_1,PPG_3,171471.0,171471.0,-469.15132600825746,14.295353831203267,0.5549733466764984
63112.22817852052,9.239775993664807,PPG_1,PPG_3,171458.0,171458.0,-482.07890942008817,12.652274851154491,0.49114607673405475
63112.238287684624,9.249885157769311,PPG_1,PPG_3,171448.0,171448.0,-492.0064928318898,11.056771679998123,0.4291669431464536
63112.24839684873,9.25999432187382,PPG_1,PPG_3,171465.0,171465.0,-474.9340762437205,9.59822699520438,0.37250811758185226
63112.25850601284,9.2701034859856,PPG_1,PPG_3,171460.0,171460.0,-479.8616596555512,8.350475820567478,0.32403780543521
63112.268615176945,9.280212650090109,PPG_1,PPG_3,171493.0,171493.0,-446.7892430673819,7.373364727051031,0.28608081475678304
63112.27872434105,9.290321814194613,PPG_1,PPG_3,171444.0,171444.0,-495.7168264791835,6.716685617968768,0.2605713686072663
63112.28883350516,9.300430978306396,PPG_1,PPG_3,171472.0,171472.0,-467.6444098910142,6.42268986716149,0.2491507696119883
63112.298942669266,9.3105401424109,PPG_1,PPG_3,171489.0,171489.0,-450.57199330284493,6.525268527875346,0.25313555424329265
63112.30905183337,9.320649306515406,PPG_1,PPG_3,171447.0,171447.0,-492.49957671467564,7.045558993064715,0.2733468285480346
63112.31916099748,9.330758470627188,PPG_1,PPG_3,171438.0,171438.0,-501.42716012647725,7.983898282177063,0.3097976844295922
63112.32927016159,9.340867634731694,PPG_1,PPG_3,171441.0,171441.0,-498.35474353830796,9.310219866163335,0.3613201534037059
63112.33937932569,9.3509767988362,PPG_1,PPG_3,171468.0,171468.0,-471.28232695013867,10.958658756361666,0.4253556351461525
63112.349488489795,9.361085962940706,PPG_1,PPG_3,171497.0,171497.0,-442.2099103619403,12.831143371135889,0.49809442763360745
63112.35959765391,9.371195127052488,PPG_1,PPG_3,171460.0,171460.0,-479.137493773771,14.808458528946897,0.5749054816799214
63112.36970681801,9.381304291156994,PPG_1,PPG_3,171468.0,171468.0,-471.0650771856017,16.762779352691524,0.6508232946919192
63112.37981598211,9.3914134552615,PPG_1,PPG_3,171476.0,171476.0,-462.9926605974324,18.56764183489719,0.7209352286035261
63112.38992514623,9.40152261937328,PPG_1,PPG_3,171493.0,171493.0,-445.920244009234,20.10553362903242,0.7806763827893244
63112.40003431033,9.411631783477787,PPG_1,PPG_3,171465.0,171465.0,-473.8478274210647,21.273818429481192,0.8260597333362861
63112.41014347444,9.421740947582292,PPG_1,PPG_3,171468.0,171468.0,-470.77541083289543,21.98814488548651,0.8538085561793165
63112.42025263855,9.431850111694075,PPG_1,PPG_3,171483.0,171483.0,-455.70299424469704,22.183305874425823,0.8613898065479957
63112.43036180265,9.44195927579858,PPG_1,PPG_3,171472.0,171472.0,-466.63057765652775,21.813300449563265,0.8470165253974025
63112.44047096676,9.452068439903089,PPG_1,PPG_3,171475.0,171475.0,-463.55816106835846,20.851799518225945,0.8096659292060031
63112.45058013087,9.462177604014869,PPG_1,PPG_3,171475.0,171475.0,-463.48574448018917,19.292686114557345,0.7491003974846467
63112.460689294974,9.472286768119377,PPG_1,PPG_3,171476.0,171476.0,-462.4133278919908,17.150056879953098,0.6658675302857754
63112.47079845908,9.48239593222388,PPG_1,PPG_3,171460.0,171460.0,-478.3409113038215,14.457315370972916,0.5612649267190258
63112.48090762319,9.492505096335664,PPG_1,PPG_3,171457.0,171457.0,-481.2684947156522,11.265295359523948,0.4372672824144366
63112.491016787295,9.502614260440168,PPG_1,PPG_3,171455.0,171455.0,-483.1960781274829,7.640338274231565,0.2964517055479718
63112.5011259514,9.512723424544674,PPG_1,PPG_3,171472.0,171472.0,-466.1236615392845,3.663897505171351,0.14198234560922413
63112.51123511551,9.522832588656456,PPG_1,PPG_3,171452.0,171452.0,-486.0512449511152,-0.56602987315001,-0.02233398969258591
63112.521344279616,9.532941752760962,PPG_1,PPG_3,171465.0,171465.0,-472.97882836294593,-4.933573265317158,-0.19199617541960032
63112.53145344372,9.543050916865468,PPG_1,PPG_3,171430.0,171430.0,-507.90641177474754,-9.306347579463525,-0.36186156225457705
63112.54156260783,9.55316008097725,PPG_1,PPG_3,171445.0,171445.0,-492.83399518657825,-13.540494069261962,-0.5263417937357153
63112.55167177194,9.563269245081756,PPG_1,PPG_3,171444.0,171444.0,-493.76157859840896,-17.488347672852736,-0.6797006527493931
63112.56178093604,9.573378409186262,PPG_1,PPG_3,171450.0,171450.0,-487.68916201023967,-21.007468189623463,-0.8164048878539341
63112.57189010015,9.583487573298044,PPG_1,PPG_3,171407.0,171407.0,-530.6167454220413,-23.971338597947025,-0.9315398015881923
63112.58199926426,9.59359673740255,PPG_1,PPG_3,171410.0,171410.0,-527.544328833872,-26.282051750460077,-1.0213020795650107
63112.59210842836,9.603705901507055,PPG_1,PPG_3,171425.0,171425.0,-512.4719122457027,-27.882311729705236,-1.0834659967677847
63112.60221759247,9.613815065618835,PPG_1,PPG_3,171412.0,171412.0,-525.3994956575043,-28.76211863111948,-1.1176430955412866
63112.61232675658,9.623924229723343,PPG_1,PPG_3,171437.0,171437.0,-500.327079069335,-28.957739316259413,-1.1252422033312126
63112.62243592068,9.634033393827847,PPG_1,PPG_3,171395.0,171395.0,-542.2546624811657,-28.54399903206378,-1.1091699918757205
63112.632545084794,9.644142557939633,PPG_1,PPG_3,171450.0,171450.0,-487.18224589299643,-27.621879078439086,-1.0733491945105387
63112.6426542489,9.654251722044137,PPG_1,PPG_3,171450.0,171450.0,-487.10982930479804,-26.303091926169277,-1.022119409097513
63112.652763413,9.664360886148645,PPG_1,PPG_3,171442.0,171442.0,-495.03741271662875,-24.69481787146179,-0.9596441760273438
63112.66287257711,9.674470050253149,PPG_1,PPG_3,171413.0,171413.0,-523.9649961284595,-22.88962301260053,-0.8895193305668847
63112.67298174122,9.68457921436493,PPG_1,PPG_3,171440.0,171440.0,-496.89257954029017,-20.963281220151476,-0.8146883948169752
63112.68309090533,9.694688378469436,PPG_1,PPG_3,171416.0,171416.0,-520.8201629520918,-18.978158215234284,-0.737574036078089
63112.69320006943,9.704797542573942,PPG_1,PPG_3,171456.0,171456.0,-480.7477463639225,-16.987832244612836,-0.6602575622245069
63112.70330923354,9.714906706685724,PPG_1,PPG_3,171432.0,171432.0,-504.6753297757532,-15.040778216431178,-0.5846220361431107
