timestamp,time_from_start_sec,PPG_1,PPG_2,PPG_3
62846.939474677296,0.0,164710.0,89682.0,5109.0
62846.94956364484,0.010088967545016203,164677.0,89688.0,5098.0
62846.95965261239,0.020177935097308364,164720.0,89665.0,5138.0
62846.96974157994,0.030266902642324567,164756.0,89700.0,5125.0
62846.97983054748,0.04035587018734077,164721.0,89693.0,5107.0
62846.989919515036,0.05044483773963293,164747.0,89719.0,5104.0
62847.00000848258,0.060533805284649134,164758.0,89695.0,5150.0
62847.010097450126,0.07062277282966534,164748.0,89690.0,5124.0
62847.02018641768,0.0807117403819575,164753.0,89702.0,5141.0
62847.03027538522,0.0908007079269737,164781.0,89688.0,5153.0
62847.04036435277,0.1008896754719899,164741.0,89686.0,5120.0
62847.05045332031,0.1109786430170061,164738.0,89680.0,5122.0
62847.060542287865,0.12106761056929827,164781.0,89716.0,5130.0
62847.07063125541,0.13115657811431447,164780.0,89707.0,5167.0
62847.080720222955,0.14124554565933067,164818.0,89698.0,5176.0
62847.09080919051,0.15133451321162283,164792.0,89693.0,5147.0
62847.10089815805,0.16142348075663904,164771.0,89707.0,5134.0
62847.1109871256,0.17151244830165524,164793.0,89690.0,5165.0
62847.12107609315,0.1816014158539474,164813.0,89723.0,5167.0
62847.131165060695,0.1916903833989636,164786.0,89691.0,5143.0
62847.14125402824,0.2017793509439798,164840.0,89720.0,5167.0
62847.15134299579,0.21186831849627197,164826.0,89748.0,5160.0
62847.16143196334,0.22195728604128817,164782.0,89695.0,5156.0
62847.17152093088,0.23204625358630437,164774.0,89682.0,5149.0
62847.181609898435,0.24213522113859653,164710.0,89699.0,5151.0
62847.19169886598,0.25222418868361274,164714.0,89690.0,5132.0
62847.201787833525,0.26231315622862894,164678.0,89691.0,5119.0
62847.21187680107,0.27240212377364514,164666.0,89705.0,5129.0
62847.22196576862,0.2824910913259373,164587.0,89648.0,5081.0
62847.23205473617,0.2925800588709535,164575.0,89658.0,5060.0
62847.24214370371,0.3026690264159697,164553.0,89662.0,5062.0
62847.252232671264,0.31275799396826187,164496.0,89628.0,5041.0
62847.26232163881,0.3228469615132781,164482.0,89643.0,5041.0
62847.272410606354,0.3329359290582943,164482.0,89631.0,5031.0
62847.28249957391,0.34302489661058644,164481.0,89619.0,5006.0
62847.29258854145,0.35311386415560264,164442.0,89627.0,5005.0
62847.302677509,0.36320283170061884,164485.0,89632.0,5035.0
62847.31276647655,0.373291799252911,164456.0,89631.0,5006.0
62847.322855444094,0.3833807667979272,164422.0,89629.0,5009.0
62847.33294441164,0.3934697343429434,164434.0,89648.0,5030.0
62847.34303337919,0.40355870189523557,164429.0,89626.0,5023.0
62847.353122346736,0.4136476694402518,164446.0,89629.0,5016.0
62847.36321131428,0.423736636985268,164455.0,89655.0,4999.0
62847.37330028183,0.43382560453756014,164456.0,89642.0,5027.0
62847.38338924938,0.44391457208257634,164414.0,89619.0,4977.0
62847.39347821692,0.45400353962759255,164444.0,89619.0,5013.0
62847.40356718447,0.46409250717260875,164449.0,89644.0,5012.0
62847.41365615202,0.4741814747249009,164430.0,89616.0,5000.0
62847.423745119566,0.4842704422699171,164440.0,89627.0,4986.0
62847.43383408711,0.4943594098149333,164449.0,89640.0,5014.0
62847.44392305466,0.5044483773672255,164424.0,89614.0,5041.0
62847.45401202221,0.5145373449122417,164438.0,89675.0,5034.0
62847.46410098975,0.5246263124572579,164437.0,89611.0,5026.0
62847.474189957305,0.53471528000955,164427.0,89637.0,4995.0
62847.48427892485,0.5448042475545662,164396.0,89606.0,4979.0
62847.494367892396,0.5548932150995824,164436.0,89644.0,5013.0
62847.50445685995,0.5649821826518746,164399.0,89603.0,5007.0
62847.51454582749,0.5750711501968908,164373.0,89591.0,4974.0
62847.52463479504,0.585160117741907,164396.0,89620.0,4997.0
62847.53472376259,0.5952490852941992,164406.0,89605.0,5009.0
62847.544812730135,0.6053380528392154,164401.0,89606.0,4977.0
62847.55490169768,0.6154270203842316,164400.0,89628.0,4977.0
62847.56499066523,0.6255159879365237,164420.0,89629.0,5007.0
62847.57507963278,0.63560495548154,164397.0,89607.0,4978.0
62847.58516860032,0.6456939230265561,164398.0,89621.0,4995.0
62847.59525756787,0.6557828905715724,164432.0,89630.0,5013.0
62847.60534653542,0.6658718581238645,164400.0,89601.0,5000.0
62847.615435502965,0.6759608256688807,164429.0,89612.0,5005.0
62847.62552447051,0.6860497932138969,164475.0,89652.0,5018.0
62847.63561343806,0.6961387607661891,164448.0,89633.0,4994.0
62847.64570240561,0.7062277283112053,164429.0,89637.0,5037.0
62847.65579137315,0.7163166958562215,164484.0,89658.0,5039.0
62847.665880340704,0.7264056634085136,164452.0,89636.0,5037.0
62847.67596930825,0.7364946309535298,164490.0,89646.0,5030.0
62847.686058275794,0.746583598498546,164480.0,89649.0,5037.0
62847.69614724335,0.7566725660508382,164485.0,89615.0,5021.0
62847.70623621089,0.7667615335958544,164499.0,89651.0,5017.0
62847.71632517844,0.7768505011408706,164540.0,89656.0,5064.0
62847.72641414599,0.7869394686931628,164525.0,89694.0,5041.0
62847.736503113534,0.797028436238179,164525.0,89648.0,5031.0
62847.74659208108,0.8071174037831952,164565.0,89657.0,5046.0
62847.756681048624,0.8172063713282114,164533.0,89663.0,5055.0
62847.76677001618,0.8272953388805036,164554.0,89667.0,5051.0
62847.77685898372,0.8373843064255198,164551.0,89711.0,5065.0
62847.78694795127,0.847473273970536,164547.0,89666.0,5050.0
62847.79703691882,0.8575622415228281,164549.0,89663.0,5034.0
62847.807125886364,0.8676512090678443,164566.0,89677.0,5059.0
62847.81721485391,0.8777401766128605,164588.0,89696.0,5077.0
62847.82730382146,0.8878291441651527,164537.0,89653.0,5051.0
62847.837392789006,0.8979181117101689,164592.0,89690.0,5077.0
62847.84748175655,0.9080070792551851,164600.0,89685.0,5079.0
62847.8575707241,0.9180960468074773,164599.0,89672.0,5065.0
62847.86765969165,0.9281850143524935,164606.0,89683.0,5039.0
62847.87774865919,0.9382739818975097,164602.0,89675.0,5069.0
62847.887837626746,0.9483629494498018,164622.0,89687.0,5079.0
62847.89792659429,0.958451916994818,164633.0,89679.0,5076.0
62847.908015561836,0.9685408845398342,164649.0,89708.0,5109.0
62847.91810452939,0.9786298520921264,164640.0,89708.0,5083.0
62847.92819349693,0.9887188196371426,164621.0,89685.0,5101.0
62847.93828246448,0.9988077871821588,164636.0,89698.0,5078.0
62847.94837143202,1.008896754727175,164581.0,89687.0,5112.0
62847.958460399575,1.0189857222794672,164555.0,89643.0,5069.0
62847.96854936712,1.0290746898244834,164531.0,89665.0,5055.0
62847.978638334665,1.0391636573694996,164500.0,89634.0,5043.0
62847.98872730222,1.0492526249217917,164436.0,89628.0,5005.0
62847.99881626976,1.059341592466808,164453.0,89659.0,5027.0
62848.00890523731,1.0694305600118241,164402.0,89633.0,5000.0
62848.01899420486,1.0795195275641163,164345.0,89617.0,4999.0
62848.029083172405,1.0896084951091325,164367.0,89653.0,5000.0
62848.03917213995,1.0996974626541487,164329.0,89617.0,4984.0
62848.0492611075,1.1097864302064409,164278.0,89582.0,4929.0
62848.05935007505,1.119875397751457,164258.0,89583.0,4936.0
62848.06943904259,1.1299643652964733,164297.0,89624.0,4966.0
62848.079528010145,1.1400533328487654,164245.0,89606.0,4933.0
62848.08961697769,1.1501423003937816,164274.0,89607.0,4929.0
62848.099705945235,1.1602312679387978,164296.0,89600.0,4924.0
62848.10979491279,1.17032023549109,164258.0,89576.0,4950.0
62848.11988388033,1.1804092030361062,164289.0,89626.0,4957.0
62848.12997284788,1.1904981705811224,164267.0,89603.0,4948.0
62848.14006181542,1.2005871381261386,164250.0,89616.0,4955.0
62848.150150782974,1.2106761056784308,164230.0,89605.0,4917.0
62848.16023975052,1.220765073223447,164292.0,89635.0,4962.0
62848.170328718064,1.2308540407684632,164256.0,89608.0,4952.0
62848.18041768562,1.2409430083207553,164253.0,89605.0,4914.0
62848.19050665316,1.2510319758657715,164295.0,89616.0,4966.0
62848.20059562071,1.2611209434107877,164230.0,89594.0,4921.0
62848.21068458826,1.27120991096308,164261.0,89603.0,4914.0
62848.220773555804,1.281298878508096,164249.0,89594.0,4957.0
62848.23086252335,1.2913878460531123,164290.0,89627.0,4952.0
62848.2409514909,1.3014768136054045,164249.0,89588.0,4922.0
62848.25104045845,1.3115657811504207,164249.0,89603.0,4941.0
62848.26112942599,1.3216547486954369,164235.0,89602.0,4941.0
62848.271218393544,1.331743716247729,164220.0,89585.0,4922.0
62848.28130736109,1.3418326837927452,164260.0,89619.0,4955.0
62848.291396328634,1.3519216513377614,164247.0,89596.0,4926.0
62848.30148529618,1.3620106188827776,164221.0,89605.0,4929.0
62848.31157426373,1.3720995864350698,164254.0,89608.0,4892.0
62848.321663231276,1.382188553980086,164249.0,89594.0,4960.0
62848.33175219882,1.3922775215251022,164211.0,89587.0,4922.0
62848.34184116637,1.4023664890773944,164248.0,89603.0,4935.0
62848.35193013392,1.4124554566224106,164241.0,89619.0,4920.0
62848.36201910146,1.4225444241674268,164243.0,89573.0,4937.0
62848.372108069016,1.432633391719719,164263.0,89609.0,4926.0
62848.38219703656,1.4427223592647351,164262.0,89622.0,4941.0
62848.392286004106,1.4528113268097513,164264.0,89598.0,4933.0
62848.40237497166,1.4629002943620435,164328.0,89644.0,4958.0
62848.4124639392,1.4729892619070597,164313.0,89642.0,4970.0
62848.42255290675,1.483078229452076,164303.0,89632.0,4957.0
62848.4326418743,1.493167197004368,164332.0,89616.0,4942.0
62848.442730841845,1.5032561645493843,164336.0,89632.0,4936.0
62848.45281980939,1.5133451320944005,164366.0,89608.0,5005.0
62848.46290877694,1.5234340996466926,164340.0,89640.0,4969.0
62848.47299774449,1.5335230671917088,164368.0,89651.0,4981.0
62848.48308671203,1.543612034736725,164346.0,89630.0,4996.0
62848.49317567958,1.5537010022817412,164359.0,89631.0,4963.0
62848.50326464713,1.5637899698340334,164387.0,89653.0,4981.0
62848.513353614675,1.5738789373790496,164413.0,89672.0,5010.0
62848.52344258222,1.5839679049240658,164406.0,89633.0,4973.0
62848.53353154977,1.594056872476358,164425.0,89680.0,5010.0
62848.54362051732,1.6041458400213742,164420.0,89666.0,4985.0
62848.55370948486,1.6142348075663904,164422.0,89644.0,5008.0
62848.563798452415,1.6243237751186825,164392.0,89643.0,4992.0
62848.57388741996,1.6344127426636987,164454.0,89681.0,5016.0
62848.583976387505,1.644501710208715,164393.0,89660.0,4982.0
62848.59406535506,1.654590677761007,164401.0,89664.0,5006.0
62848.6041543226,1.6646796453060233,164431.0,89679.0,4999.0
62848.61424329015,1.6747686128510395,164445.0,89650.0,5016.0
62848.6243322577,1.6848575804033317,164458.0,89679.0,5010.0
62848.634421225244,1.6949465479483479,164468.0,89666.0,5020.0
62848.64451019279,1.705035515493364,164494.0,89709.0,5036.0
62848.65459916034,1.7151244830456562,164468.0,89682.0,5002.0
62848.66468812789,1.7252134505906724,164503.0,89695.0,5029.0
62848.67477709543,1.7353024181356886,164514.0,89676.0,5006.0
62848.68486606298,1.7453913856807048,164492.0,89673.0,5035.0
62848.69495503053,1.755480353232997,164509.0,89691.0,5063.0
62848.705043998074,1.7655693207780132,164542.0,89690.0,5039.0
62848.71513296562,1.7756582883230294,164531.0,89691.0,5047.0
62848.72522193317,1.7857472558753216,164514.0,89722.0,5052.0
62848.735310900716,1.7958362234203378,164585.0,89716.0,5081.0
62848.74539986826,1.805925190965354,164583.0,89705.0,5060.0
62848.75548883581,1.8160141585176461,164582.0,89708.0,5047.0
62848.76557780336,1.8261031260626623,164604.0,89740.0,5073.0
62848.7756667709,1.8361920936076785,164541.0,89677.0,5047.0
62848.785755738456,1.8462810611599707,164532.0,89709.0,5062.0
62848.795844706,1.856370028704987,164524.0,89673.0,5052.0
62848.805933673546,1.866458996250003,164458.0,89676.0,5009.0
62848.8160226411,1.8765479638022953,164476.0,89679.0,4998.0
62848.82611160864,1.8866369313473115,164411.0,89671.0,5023.0
62848.83620057619,1.8967258988923277,164368.0,89667.0,4992.0
62848.84628954373,1.9068148664373439,164325.0,89653.0,4958.0
62848.856378511286,1.916903833989636,164311.0,89648.0,4973.0
62848.86646747883,1.9269928015346522,164265.0,89648.0,4928.0
62848.876556446376,1.9370817690796684,164277.0,89603.0,4942.0
62848.88664541393,1.9471707366319606,164288.0,89618.0,4911.0
62848.89673438147,1.9572597041769768,164221.0,89619.0,4905.0
62848.90682334902,1.967348671721993,164247.0,89625.0,4946.0
62848.91691231657,1.9774376392742852,164231.0,89618.0,4912.0
62848.927001284115,1.9875266068193014,164233.0,89605.0,4915.0
62848.93709025166,1.9976155743643176,164203.0,89609.0,4889.0
62848.94717921921,2.0077045419166097,164248.0,89632.0,4913.0
62848.95726818676,2.017793509461626,164233.0,89626.0,4914.0
62848.9673571543,2.027882477006642,164212.0,89618.0,4937.0
62848.977446121855,2.0379714445589343,164229.0,89631.0,4909.0
62848.9875350894,2.0480604121039505,164227.0,89650.0,4926.0
62848.997624056945,2.0581493796489667,164228.0,89613.0,4926.0
62849.0077130245,2.068238347201259,164194.0,89586.0,4919.0
62849.01780199204,2.078327314746275,164255.0,89638.0,4941.0
62849.02789095959,2.0884162822912913,164196.0,89638.0,4926.0
62849.03797992713,2.0985052498363075,164241.0,89627.0,4920.0
62849.048068894685,2.1085942173885996,164256.0,89654.0,4940.0
62849.05815786223,2.118683184933616,164245.0,89620.0,4954.0
62849.068246829775,2.128772152478632,164255.0,89625.0,4940.0
62849.07833579733,2.138861120030924,164216.0,89622.0,4924.0
62849.08842476487,2.1489500875759404,164225.0,89632.0,4895.0
62849.09851373242,2.1590390551209566,164192.0,89657.0,4919.0
62849.10860269997,2.169128022673249,164176.0,89599.0,4905.0
62849.118691667514,2.179216990218265,164190.0,89611.0,4945.0
62849.12878063506,2.189305957763281,164224.0,89623.0,4898.0
62849.13886960261,2.1993949253155733,164208.0,89634.0,4919.0
62849.14895857016,2.2094838928605895,164231.0,89655.0,4915.0
62849.1590475377,2.2195728604056058,164220.0,89634.0,4916.0
62849.169136505254,2.229661827957898,164193.0,89634.0,4895.0
62849.1792254728,2.239750795502914,164250.0,89652.0,4946.0
62849.189314440344,2.2498397630479303,164241.0,89657.0,4934.0
62849.19940340789,2.2599287305929465,164233.0,89642.0,4918.0
62849.20949237544,2.2700176981452387,164230.0,89603.0,4909.0
62849.219581342986,2.280106665690255,164271.0,89660.0,4949.0
62849.22967031053,2.290195633235271,164247.0,89639.0,4915.0
62849.23975927808,2.3002846007875632,164282.0,89646.0,4934.0
62849.24984824563,2.3103735683325795,164293.0,89628.0,4923.0
62849.25993721317,2.3204625358775957,164273.0,89643.0,4949.0
62849.270026180726,2.330551503429888,164272.0,89656.0,4926.0
62849.28011514827,2.340640470974904,164312.0,89663.0,4954.0
62849.290204115816,2.3507294385199202,164353.0,89629.0,4949.0
62849.30029308337,2.3608184060722124,164360.0,89652.0,4999.0
62849.31038205091,2.3709073736172286,164329.0,89654.0,4949.0
62849.32047101846,2.380996341162245,164369.0,89677.0,4969.0
62849.33055998601,2.391085308714537,164351.0,89667.0,4975.0
62849.340648953556,2.401174276259553,164373.0,89663.0,4976.0
62849.3507379211,2.4112632438045694,164374.0,89678.0,4988.0
62849.36082688865,2.4213522113568615,164405.0,89681.0,4974.0
62849.3709158562,2.4314411789018777,164422.0,89665.0,4994.0
62849.38100482374,2.441530146446894,164424.0,89706.0,4990.0
62849.39109379129,2.45161911399191,164405.0,89682.0,4973.0
62849.40118275884,2.4617080815442023,164427.0,89681.0,4975.0
62849.411271726385,2.4717970490892185,164407.0,89665.0,5012.0
62849.42136069393,2.4818860166342347,164416.0,89669.0,4970.0
62849.43144966148,2.491974984186527,164403.0,89697.0,5001.0
62849.44153862903,2.502063951731543,164444.0,89706.0,5016.0
62849.45162759657,2.5121529192765593,164455.0,89726.0,5003.0
62849.461716564125,2.5222418868288514,164453.0,89705.0,4993.0
62849.47180553167,2.5323308543738676,164436.0,89700.0,4982.0
62849.481894499215,2.542419821918884,164506.0,89695.0,5018.0
62849.49198346677,2.552508789471176,164474.0,89727.0,5017.0
62849.50207243431,2.562597757016192,164476.0,89689.0,5031.0
62849.51216140186,2.5726867245612084,164484.0,89706.0,5016.0
62849.52225036941,2.5827756921135006,164498.0,89738.0,4979.0
62849.532339336954,2.5928646596585168,164515.0,89719.0,5017.0
62849.5424283045,2.602953627203533,164526.0,89723.0,5032.0
62849.55251727205,2.613042594755825,164533.0,89715.0,5022.0
62849.5626062396,2.6231315623008413,164559.0,89747.0,5062.0
62849.57269520714,2.6332205298458575,164571.0,89723.0,5051.0
62849.58278417469,2.6433094973908737,164588.0,89725.0,5032.0
62849.59287314224,2.653398464943166,164591.0,89760.0,5050.0
62849.602962109784,2.663487432488182,164580.0,89749.0,5050.0
62849.61305107733,2.6735764000331983,164609.0,89740.0,5063.0
62849.62314004488,2.6836653675854905,164632.0,89729.0,5049.0
62849.63322901243,2.6937543351305067,164631.0,89744.0,5094.0
62849.64331797997,2.703843302675523,164592.0,89723.0,5047.0
62849.653406947524,2.713932270227815,164621.0,89759.0,5061.0
62849.66349591507,2.7240212377728312,164596.0,89737.0,5073.0
62849.673584882614,2.7341102053178474,164509.0,89709.0,5023.0
62849.683673850166,2.7441991728701396,164512.0,89712.0,5037.0
62849.69376281771,2.754288140415156,164468.0,89708.0,5029.0
62849.703851785256,2.764377107960172,164440.0,89701.0,4969.0
62849.71394075281,2.774466075512464,164400.0,89656.0,4988.0
62849.72402972035,2.7845550430574804,164385.0,89714.0,4990.0
62849.7341186879,2.7946440106024966,164346.0,89671.0,4950.0
62849.74420765544,2.8047329781475128,164297.0,89665.0,4948.0
62849.754296622996,2.814821945699805,164326.0,89694.0,4957.0
62849.76438559054,2.824910913244821,164299.0,89658.0,4942.0
62849.774474558086,2.8349998807898373,164297.0,89669.0,4936.0
62849.78456352564,2.8450888483421295,164290.0,89646.0,4950.0
62849.79465249318,2.8551778158871457,164253.0,89649.0,4938.0
62849.80474146073,2.865266783432162,164286.0,89648.0,4938.0
62849.81483042828,2.875355750984454,164287.0,89657.0,4930.0
62849.824919395825,2.8854447185294703,164267.0,89661.0,4946.0
62849.83500836337,2.8955336860744865,164288.0,89665.0,4918.0
62849.84509733092,2.9056226536267786,164331.0,89668.0,4942.0
62849.85518629847,2.915711621171795,164299.0,89680.0,4934.0
62849.86527526601,2.925800588716811,164277.0,89679.0,4921.0
62849.875364233565,2.935889556269103,164281.0,89694.0,4931.0
62849.88545320111,2.9459785238141194,164297.0,89662.0,4948.0
62849.895542168655,2.9560674913591356,164306.0,89659.0,4938.0
62849.90563113621,2.9661564589114278,164307.0,89679.0,4924.0
62849.91572010375,2.976245426456444,164305.0,89656.0,4958.0
62849.9258090713,2.98633439400146,164311.0,89660.0,4928.0
62849.93589803884,2.9964233615464764,164306.0,89672.0,4946.0
62849.945987006395,3.0065123290987685,164284.0,89693.0,4936.0
62849.95607597394,3.0166012966437847,164276.0,89657.0,4934.0
62849.966164941485,3.026690264188801,164308.0,89682.0,4920.0
62849.97625390904,3.036779231741093,164295.0,89672.0,4937.0
62849.98634287658,3.0468681992861093,164280.0,89672.0,4929.0
62849.99643184413,3.0569571668311255,164272.0,89655.0,4925.0
62850.00652081168,3.0670461343834177,164306.0,89658.0,4959.0
62850.016609779224,3.077135101928434,164274.0,89674.0,4912.0
62850.02669874677,3.08722406947345,164281.0,89639.0,4923.0
62850.03678771432,3.0973130370257422,164280.0,89650.0,4919.0
62850.04687668187,3.1074020045707584,164299.0,89685.0,4924.0
62850.05696564941,3.1174909721157746,164317.0,89667.0,4945.0
62850.067054616964,3.127579939668067,164305.0,89705.0,4940.0
62850.07714358451,3.137668907213083,164306.0,89656.0,4931.0
62850.087232552054,3.147757874758099,164321.0,89675.0,4940.0
62850.097321519606,3.1578468423103914,164291.0,89690.0,4950.0
62850.10741048715,3.1679358098554076,164340.0,89681.0,4948.0
62850.1174994547,3.1780247774004238,164330.0,89682.0,4967.0
62850.12758842224,3.18811374494544,164372.0,89692.0,4954.0
62850.137677389794,3.198202712497732,164384.0,89701.0,4951.0
62850.14776635734,3.2082916800427483,164389.0,89697.0,4968.0
62850.157855324884,3.2183806475877645,164376.0,89699.0,4977.0
62850.167944292436,3.2284696151400567,164402.0,89700.0,4985.0
62850.17803325998,3.238558582685073,164385.0,89712.0,4959.0
62850.188122227526,3.248647550230089,164414.0,89730.0,4963.0
62850.19821119508,3.2587365177823813,164434.0,89711.0,5008.0
62850.20830016262,3.2688254853273975,164449.0,89714.0,4961.0
62850.21838913017,3.2789144528724137,164454.0,89714.0,5016.0
62850.22847809772,3.289003420424706,164452.0,89716.0,4995.0
62850.238567065266,3.299092387969722,164434.0,89708.0,4988.0
62850.24865603281,3.3091813555147382,164427.0,89726.0,4995.0
62850.25874500036,3.3192703230670304,164475.0,89728.0,5028.0
62850.26883396791,3.3293592906120466,164477.0,89724.0,5013.0
62850.27892293545,3.339448258157063,164472.0,89722.0,4989.0
62850.289011903,3.349537225702079,164502.0,89716.0,5043.0
62850.29910087055,3.359626193254371,164478.0,89702.0,4997.0
62850.309189838095,3.3697151607993874,164492.0,89729.0,5023.0
62850.31927880564,3.3798041283444036,164525.0,89766.0,5042.0
62850.32936777319,3.3898930958966957,164511.0,89745.0,5030.0
62850.33945674074,3.399982063441712,164503.0,89730.0,5016.0
62850.34954570828,3.410071030986728,164521.0,89740.0,5024.0
62850.359634675835,3.4201599985390203,164511.0,89756.0,5054.0
62850.36972364338,3.4302489660840365,164516.0,89720.0,5015.0
62850.379812610925,3.4403379336290527,164538.0,89772.0,5064.0
62850.38990157848,3.450426901181345,164542.0,89744.0,5038.0
62850.39999054602,3.460515868726361,164569.0,89740.0,5028.0
62850.41007951357,3.4706048362713773,164569.0,89754.0,5028.0
62850.42016848112,3.4806938038236694,164548.0,89751.0,5040.0
62850.430257448665,3.4907827713686856,164589.0,89752.0,5052.0
62850.44034641621,3.500871738913702,164606.0,89754.0,5075.0
62850.45043538376,3.510960706465994,164649.0,89753.0,5094.0
62850.46052435131,3.52104967401101,164572.0,89763.0,5051.0
62850.47061331885,3.5311386415560264,164643.0,89759.0,5072.0
62850.4807022864,3.5412276091010426,164655.0,89766.0,5062.0
62850.49079125395,3.5513165766533348,164617.0,89763.0,5060.0
62850.500880221494,3.561405544198351,164662.0,89778.0,5084.0
62850.51096918904,3.571494511743367,164636.0,89775.0,5080.0
62850.52105815659,3.5815834792956593,164613.0,89739.0,5074.0
62850.53114712414,3.5916724468406755,164601.0,89739.0,5070.0
62850.54123609168,3.6017614143856918,164587.0,89751.0,5066.0
62850.551325059234,3.611850381937984,164537.0,89735.0,5036.0
62850.56141402678,3.621939349483,164477.0,89716.0,5068.0
62850.571502994324,3.6320283170280163,164496.0,89741.0,5045.0
62850.581591961876,3.6421172845803085,164422.0,89686.0,5008.0
62850.59168092942,3.6522062521253247,164406.0,89694.0,4991.0
62850.601769896966,3.662295219670341,164372.0,89687.0,4984.0
62850.61185886452,3.672384187222633,164379.0,89699.0,4997.0
62850.62194783206,3.6824731547676492,164345.0,89688.0,4962.0
62850.63203679961,3.6925621223126655,164322.0,89691.0,4935.0
62850.64212576716,3.7026510898649576,164326.0,89656.0,4958.0
62850.652214734706,3.712740057409974,164311.0,89661.0,4957.0
62850.66230370225,3.72282902495499,164334.0,89683.0,4943.0
62850.672392669796,3.732917992500006,164328.0,89675.0,4950.0
62850.68248163735,3.7430069600522984,164345.0,89681.0,4955.0
62850.69257060489,3.7530959275973146,164327.0,89702.0,4949.0
62850.70265957244,3.763184895142331,164331.0,89693.0,4992.0
62850.71274853999,3.773273862694623,164369.0,89699.0,4937.0
62850.722837507536,3.783362830239639,164353.0,89694.0,4966.0
62850.73292647508,3.7934517977846554,164365.0,89693.0,4990.0
62850.74301544263,3.8035407653369475,164347.0,89685.0,4954.0
62850.75310441018,3.8136297328819637,164368.0,89709.0,4993.0
62850.76319337772,3.82371870042698,164389.0,89705.0,4975.0
62850.773282345275,3.833807667979272,164412.0,89691.0,5002.0
62850.78337131282,3.8438966355242883,164394.0,89706.0,4963.0
62850.793460280365,3.8539856030693045,164364.0,89697.0,5007.0
62850.80354924792,3.8640745706215966,164378.0,89699.0,4983.0
62850.81363821546,3.874163538166613,164353.0,89674.0,4956.0
62850.82372718301,3.884252505711629,164380.0,89725.0,5005.0
62850.83381615055,3.8943414732566453,164318.0,89678.0,4961.0
62850.843905118105,3.9044304408089374,164356.0,89693.0,4969.0
62850.85399408565,3.9145194083539536,164368.0,89704.0,4941.0
62850.864083053195,3.92460837589897,164332.0,89669.0,4956.0
62850.87417202075,3.934697343451262,164341.0,89686.0,4951.0
62850.88426098829,3.944786310996278,164334.0,89689.0,4958.0
62850.89434995584,3.9548752785412944,164368.0,89672.0,4979.0
62850.90443892339,3.9649642460935866,164327.0,89655.0,4944.0
62850.914527890935,3.9750532136386028,164387.0,89709.0,4948.0
62850.92461685848,3.985142181183619,164358.0,89695.0,4961.0
62850.93470582603,3.995231148735911,164347.0,89694.0,4956.0
62850.94479479358,4.005320116280927,164390.0,89713.0,4986.0
62850.95488376112,4.0154090838259435,164397.0,89691.0,4977.0
62850.964972728674,4.025498051378236,164397.0,89703.0,4970.0
62850.97506169622,4.035587018923252,164397.0,89687.0,4968.0
62850.985150663764,4.045675986468268,164452.0,89725.0,5010.0
62850.99523963132,4.05576495402056,164398.0,89685.0,4977.0
62851.00532859886,4.0658539215655765,164424.0,89700.0,4994.0
62851.01541756641,4.075942889110593,164452.0,89707.0,5001.0
62851.02550653395,4.086031856655609,164428.0,89700.0,5013.0
62851.035595501504,4.096120824207901,164494.0,89714.0,5018.0
62851.04568446905,4.106209791752917,164490.0,89718.0,5008.0
62851.055773436594,4.116298759297933,164457.0,89711.0,5033.0
62851.065862404146,4.126387726850226,164480.0,89735.0,4991.0
62851.07595137169,4.136476694395242,164526.0,89763.0,5037.0
62851.086040339236,4.146565661940258,164516.0,89750.0,5021.0
62851.09612930679,4.15665462949255,164508.0,89722.0,5017.0
62851.10621827433,4.166743597037566,164522.0,89729.0,5032.0
62851.11630724188,4.176832564582583,164506.0,89736.0,5055.0
62851.12639620943,4.186921532134875,164511.0,89739.0,5019.0
62851.136485176976,4.197010499679891,164491.0,89738.0,5025.0
62851.14657414452,4.207099467224907,164561.0,89752.0,5062.0
62851.15666311207,4.217188434777199,164549.0,89740.0,5025.0
62851.16675207962,4.2272774023222155,164555.0,89745.0,5038.0
62851.17684104716,4.237366369867232,164560.0,89754.0,5048.0
62851.186930014715,4.247455337419524,164541.0,89739.0,5040.0
62851.19701898226,4.25754430496454,164570.0,89769.0,5062.0
62851.207107949806,4.267633272509556,164607.0,89751.0,5080.0
62851.21719691735,4.2777222400545725,164586.0,89755.0,5060.0
62851.2272858849,4.287811207606865,164599.0,89757.0,5043.0
62851.23737485245,4.297900175151881,164622.0,89773.0,5091.0
62851.24746381999,4.307989142696897,164603.0,89755.0,5072.0
62851.257552787545,4.318078110249189,164622.0,89785.0,5065.0
62851.26764175509,4.328167077794205,164626.0,89770.0,5070.0
62851.277730722635,4.338256045339222,164618.0,89744.0,5064.0
62851.28781969019,4.348345012891514,164662.0,89766.0,5067.0
62851.29790865773,4.35843398043653,164657.0,89764.0,5097.0
62851.30799762528,4.368522947981546,164668.0,89774.0,5120.0
62851.31808659283,4.378611915533838,164657.0,89765.0,5089.0
62851.328175560375,4.3887008830788545,164679.0,89762.0,5127.0
62851.33826452792,4.398789850623871,164673.0,89768.0,5104.0
62851.34835349547,4.408878818176163,164619.0,89746.0,5087.0
62851.35844246302,4.418967785721179,164647.0,89777.0,5086.0
62851.36853143056,4.429056753266195,164587.0,89734.0,5051.0
62851.37862039811,4.4391457208112115,164571.0,89738.0,5061.0
62851.38870936566,4.449234688363504,164520.0,89742.0,5067.0
62851.398798333204,4.45932365590852,164487.0,89719.0,5043.0
62851.40888730075,4.469412623453536,164436.0,89687.0,4996.0
62851.4189762683,4.479501591005828,164422.0,89711.0,4998.0
62851.42906523585,4.489590558550844,164427.0,89730.0,4983.0
62851.43915420339,4.499679526095861,164350.0,89697.0,4953.0
62851.449243170944,4.509768493648153,164383.0,89689.0,4970.0
62851.45933213849,4.519857461193169,164374.0,89694.0,4959.0
62851.469421106034,4.529946428738185,164349.0,89680.0,4947.0
62851.47951007359,4.540035396290477,164329.0,89662.0,4948.0
62851.48959904113,4.550124363835494,164341.0,89675.0,4944.0
62851.49968800868,4.56021333138051,164362.0,89705.0,4963.0
62851.50977697623,4.570302298932802,164346.0,89684.0,4963.0
62851.519865943774,4.580391266477818,164392.0,89716.0,4989.0
62851.52995491132,4.590480234022834,164323.0,89677.0,4945.0
62851.54004387887,4.6005692015751265,164361.0,89686.0,4957.0
62851.550132846416,4.610658169120143,164346.0,89710.0,4963.0
62851.56022181396,4.620747136665159,164363.0,89669.0,4954.0
62851.570310781506,4.630836104210175,164354.0,89697.0,4948.0
62851.58039974906,4.640925071762467,164381.0,89702.0,4971.0
62851.5904887166,4.6510140393074835,164403.0,89702.0,4989.0
62851.60057768415,4.6611030068525,164362.0,89690.0,4958.0
62851.6106666517,4.671191974404792,164405.0,89718.0,5006.0
62851.620755619246,4.681280941949808,164384.0,89701.0,4978.0
62851.63084458679,4.691369909494824,164367.0,89713.0,4969.0
62851.64093355434,4.701458877047116,164396.0,89721.0,4999.0
62851.65102252189,4.711547844592133,164338.0,89681.0,4945.0
62851.66111148943,4.721636812137149,164357.0,89675.0,4957.0
62851.671200456985,4.731725779689441,164360.0,89691.0,4945.0
62851.68128942453,4.741814747234457,164376.0,89709.0,4984.0
62851.691378392075,4.751903714779473,164331.0,89666.0,4942.0
62851.70146735963,4.7619926823317655,164355.0,89688.0,4949.0
62851.71155632717,4.772081649876782,164371.0,89689.0,4968.0
62851.72164529472,4.782170617421798,164321.0,89694.0,4950.0
62851.73173426226,4.792259584966814,164367.0,89700.0,4935.0
62851.741823229815,4.802348552519106,164366.0,89707.0,4941.0
62851.75191219736,4.8124375200641225,164346.0,89714.0,4967.0
62851.762001164905,4.822526487609139,164393.0,89726.0,4984.0
62851.77209013246,4.832615455161431,164401.0,89710.0,4993.0
62851.7821791,4.842704422706447,164371.0,89710.0,4945.0
62851.79226806755,4.852793390251463,164407.0,89702.0,4973.0
62851.8023570351,4.862882357803755,164422.0,89734.0,4965.0
62851.812446002645,4.872971325348772,164389.0,89694.0,4961.0
62851.82253497019,4.883060292893788,164434.0,89712.0,4983.0
62851.83262393774,4.89314926044608,164434.0,89708.0,4993.0
62851.84271290529,4.903238227991096,164431.0,89712.0,4985.0
62851.85280187283,4.913327195536112,164449.0,89701.0,4979.0
62851.862890840384,4.923416163088405,164440.0,89706.0,4991.0
62851.87297980793,4.933505130633421,164472.0,89731.0,5013.0
62851.883068775474,4.943594098178437,164473.0,89716.0,5014.0
62851.89315774303,4.953683065730729,164481.0,89725.0,5013.0
62851.90324671057,4.963772033275745,164503.0,89732.0,5006.0
62851.91333567812,4.9738610008207615,164522.0,89733.0,5031.0
62851.92342464566,4.983949968365778,164539.0,89761.0,5026.0
62851.933513613214,4.99403893591807,164513.0,89763.0,5000.0
62851.94360258076,5.004127903463086,164540.0,89737.0,5047.0
62851.953691548304,5.014216871008102,164521.0,89735.0,5030.0
62851.963780515856,5.0243058385603945,164528.0,89717.0,5022.0
62851.9738694834,5.034394806105411,164528.0,89713.0,5029.0
62851.98395845095,5.044483773650427,164568.0,89750.0,5055.0
62851.9940474185,5.054572741202719,164565.0,89765.0,5043.0
62852.004136386044,5.064661708747735,164549.0,89758.0,5054.0
62852.01422535359,5.0747506762927515,164555.0,89787.0,5035.0
62852.02431432114,5.084839643845044,164601.0,89781.0,5078.0
62852.034403288686,5.09492861139006,164589.0,89768.0,5055.0
62852.04449225623,5.105017578935076,164591.0,89760.0,5036.0
62852.05458122378,5.115106546487368,164610.0,89752.0,5071.0
62852.06467019133,5.125195514032384,164546.0,89745.0,5051.0
62852.07475915887,5.135284481577401,164626.0,89758.0,5058.0
62852.084848126426,5.145373449129693,164634.0,89762.0,5077.0
62852.09493709397,5.155462416674709,164616.0,89767.0,5063.0
62852.105026061516,5.165551384219725,164658.0,89775.0,5054.0
62852.11511502906,5.175640351764741,164641.0,89781.0,5073.0
62852.12520399661,5.1857293193170335,164641.0,89762.0,5082.0
62852.13529296416,5.19581828686205,164653.0,89766.0,5078.0
62852.1453819317,5.205907254407066,164709.0,89805.0,5120.0
62852.155470899255,5.215996221959358,164686.0,89787.0,5094.0
62852.1655598668,5.226085189504374,164692.0,89764.0,5089.0
62852.175648834345,5.2361741570493905,164694.0,89781.0,5066.0
62852.1857378019,5.246263124601683,164707.0,89804.0,5137.0
62852.19582676944,5.256352092146699,164627.0,89751.0,5096.0
62852.20591573699,5.266441059691715,164649.0,89749.0,5110.0
62852.21600470454,5.276530027244007,164612.0,89763.0,5101.0
62852.226093672085,5.286618994789023,164560.0,89715.0,5038.0
62852.23618263963,5.29670796233404,164536.0,89747.0,5041.0
62852.24627160718,5.306796929886332,164526.0,89749.0,5003.0
62852.25636057473,5.316885897431348,164453.0,89717.0,5043.0
62852.26644954227,5.326974864976364,164412.0,89713.0,5000.0
62852.27653850982,5.33706383252138,164414.0,89718.0,4983.0
62852.28662747737,5.3471528000736726,164377.0,89686.0,4969.0
62852.296716444915,5.357241767618689,164345.0,89678.0,4949.0
62852.30680541246,5.367330735163705,164328.0,89691.0,4946.0
62852.31689438001,5.377419702715997,164351.0,89703.0,4959.0
62852.32698334756,5.387508670261013,164350.0,89707.0,4941.0
62852.3370723151,5.3975976378060295,164355.0,89720.0,4955.0
62852.347161282654,5.407686605358322,164328.0,89708.0,4950.0
62852.3572502502,5.417775572903338,164308.0,89693.0,4931.0
62852.367339217744,5.427864540448354,164345.0,89700.0,4943.0
62852.3774281853,5.437953508000646,164324.0,89698.0,4928.0
62852.38751715284,5.4480424755456625,164303.0,89692.0,4921.0
62852.39760612039,5.458131443090679,164291.0,89700.0,4924.0
62852.40769508794,5.468220410642971,164336.0,89678.0,4937.0
62852.417784055484,5.478309378187987,164315.0,89668.0,4934.0
62852.42787302303,5.488398345733003,164313.0,89691.0,4917.0
62852.43796199058,5.498487313285295,164350.0,89729.0,4949.0
62852.448050958126,5.508576280830312,164342.0,89689.0,4943.0
62852.45813992567,5.518665248375328,164310.0,89694.0,4943.0
62852.468228893216,5.528754215920344,164338.0,89683.0,4970.0
62852.47831786077,5.538843183472636,164302.0,89668.0,4930.0
62852.48840682831,5.548932151017652,164323.0,89684.0,4938.0
62852.49849579586,5.559021118562669,164312.0,89694.0,4972.0
62852.50858476341,5.569110086114961,164284.0,89665.0,4925.0
62852.518673730956,5.579199053659977,164291.0,89691.0,4923.0
62852.5287626985,5.589288021204993,164313.0,89679.0,4932.0
62852.53885166605,5.599376988757285,164325.0,89700.0,4948.0
62852.5489406336,5.6094659563023015,164308.0,89669.0,4921.0
62852.55902960114,5.619554923847318,164324.0,89664.0,4953.0
62852.569118568696,5.62964389139961,164315.0,89702.0,4927.0
62852.57920753624,5.639732858944626,164308.0,89699.0,4946.0
62852.589296503786,5.649821826489642,164318.0,89676.0,4949.0
62852.59938547134,5.659910794041934,164314.0,89697.0,4928.0
62852.60947443888,5.669999761586951,164321.0,89696.0,4940.0
62852.61956340643,5.680088729131967,164365.0,89730.0,4968.0
62852.62965237398,5.690177696684259,164347.0,89664.0,4945.0
62852.639741341525,5.700266664229275,164373.0,89703.0,4952.0
62852.64983030907,5.710355631774291,164363.0,89716.0,4938.0
62852.659919276615,5.720444599319308,164336.0,89720.0,4953.0
62852.67000824417,5.7305335668716,164358.0,89709.0,4932.0
62852.68009721171,5.740622534416616,164394.0,89712.0,4951.0
62852.69018617926,5.750711501961632,164406.0,89729.0,4960.0
62852.70027514681,5.760800469513924,164388.0,89714.0,4969.0
62852.710364114355,5.7708894370589405,164448.0,89736.0,4981.0
62852.7204530819,5.780978404603957,164442.0,89748.0,5002.0
62852.73054204945,5.791067372156249,164418.0,89705.0,4965.0
62852.740631017,5.801156339701265,164431.0,89704.0,4965.0
62852.75071998454,5.811245307246281,164416.0,89732.0,4993.0
62852.760808952095,5.8213342747985735,164479.0,89763.0,5017.0
62852.77089791964,5.83142324234359,164476.0,89740.0,4988.0
62852.780986887185,5.841512209888606,164439.0,89755.0,4986.0
62852.79107585474,5.851601177440898,164497.0,89754.0,5025.0
62852.80116482228,5.861690144985914,164507.0,89723.0,5003.0
62852.81125378983,5.87177911253093,164495.0,89735.0,4995.0
62852.82134275737,5.881868080075947,164460.0,89739.0,5002.0
62852.831431724924,5.891957047628239,164518.0,89765.0,5047.0
62852.84152069247,5.902046015173255,164483.0,89751.0,5006.0
62852.851609660014,5.912134982718271,164519.0,89757.0,5016.0
62852.86169862757,5.922223950270563,164487.0,89759.0,5020.0
62852.87178759511,5.93231291781558,164495.0,89743.0,5004.0
62852.88187656266,5.942401885360596,164546.0,89778.0,5015.0
62852.89196553021,5.952490852912888,164540.0,89765.0,5022.0
62852.902054497754,5.962579820457904,164559.0,89784.0,5037.0
62852.9121434653,5.97266878800292,164575.0,89755.0,5028.0
62852.92223243285,5.9827577555552125,164578.0,89776.0,5042.0
62852.932321400396,5.992846723100229,164562.0,89764.0,5019.0
62852.94241036794,6.002935690645245,164588.0,89744.0,5036.0
62852.95249933549,6.013024658197537,164612.0,89799.0,5001.0
62852.96258830304,6.023113625742553,164591.0,89755.0,5028.0
62852.97267727058,6.0332025932875695,164613.0,89776.0,5062.0
62852.982766238136,6.043291560839862,164617.0,89812.0,5061.0
62852.99285520568,6.053380528384878,164673.0,89749.0,5086.0
62853.002944173226,6.063469495929894,164637.0,89758.0,5060.0
62853.01303314077,6.07355846347491,164655.0,89793.0,5070.0
62853.02312210832,6.083647431027202,164664.0,89791.0,5072.0
62853.03321107587,6.093736398572219,164640.0,89777.0,5068.0
62853.04330004341,6.103825366117235,164653.0,89794.0,5084.0
62853.053389010965,6.113914333669527,164675.0,89761.0,5075.0
62853.06347797851,6.124003301214543,164669.0,89787.0,5077.0
62853.073566946056,6.134092268759559,164622.0,89754.0,5072.0
62853.08365591361,6.1441812363118515,164600.0,89764.0,5074.0
62853.09374488115,6.154270203856868,164562.0,89739.0,5060.0
62853.1038338487,6.164359171401884,164540.0,89762.0,5036.0
62853.11392281625,6.174448138954176,164527.0,89757.0,5033.0
62853.124011783795,6.184537106499192,164463.0,89734.0,4991.0
62853.13410075134,6.1946260740442085,164453.0,89744.0,4990.0
62853.14418971889,6.204715041596501,164403.0,89720.0,4971.0
62853.15427868644,6.214804009141517,164426.0,89722.0,4976.0
62853.16436765398,6.224892976686533,164358.0,89736.0,4952.0
62853.174456621535,6.234981944238825,164377.0,89715.0,4972.0
62853.18454558908,6.245070911783841,164356.0,89710.0,4935.0
62853.194634556625,6.255159879328858,164328.0,89743.0,4951.0
62853.20472352417,6.265248846873874,164329.0,89724.0,4922.0
62853.21481249172,6.275337814426166,164321.0,89687.0,4912.0
62853.22490145927,6.285426781971182,164345.0,89705.0,4929.0
62853.23499042681,6.295515749516198,164329.0,89727.0,4927.0
62853.245079394364,6.305604717068491,164312.0,89704.0,4923.0
62853.25516836191,6.315693684613507,164340.0,89703.0,4906.0
62853.265257329454,6.325782652158523,164360.0,89690.0,4939.0
62853.27534629701,6.335871619710815,164330.0,89727.0,4956.0
62853.28543526455,6.345960587255831,164317.0,89701.0,4918.0
62853.2955242321,6.3560495548008475,164333.0,89712.0,4914.0
62853.30561319965,6.36613852235314,164354.0,89710.0,4933.0
62853.315702167194,6.376227489898156,164357.0,89699.0,4918.0
62853.32579113474,6.386316457443172,164327.0,89695.0,4928.0
62853.33588010229,6.396405424995464,164339.0,89704.0,4924.0
62853.34596906984,6.4064943925404805,164353.0,89708.0,4932.0
62853.35605803738,6.416583360085497,164349.0,89706.0,4915.0
62853.36614700493,6.426672327630513,164362.0,89740.0,4948.0
62853.37623597248,6.436761295182805,164333.0,89685.0,4921.0
62853.386324940024,6.446850262727821,164340.0,89728.0,4932.0
62853.39641390757,6.4569392302728374,164306.0,89691.0,4885.0
62853.40650287512,6.46702819782513,164295.0,89732.0,4921.0
62853.416591842666,6.477117165370146,164331.0,89706.0,4923.0
62853.42668081021,6.487206132915162,164326.0,89702.0,4919.0
62853.43676977776,6.497295100467454,164340.0,89686.0,4931.0
62853.44685874531,6.50738406801247,164326.0,89693.0,4910.0
62853.45694771285,6.517473035557487,164310.0,89722.0,4933.0
62853.467036680406,6.527562003109779,164351.0,89723.0,4907.0
62853.47712564795,6.537650970654795,164323.0,89702.0,4947.0
62853.487214615496,6.547739938199811,164367.0,89754.0,4948.0
62853.49730358305,6.557828905752103,164315.0,89717.0,4923.0
62853.50739255059,6.5679178732971195,164361.0,89724.0,4952.0
62853.51748151814,6.578006840842136,164358.0,89711.0,4934.0
62853.52757048569,6.588095808394428,164363.0,89748.0,4939.0
62853.537659453235,6.598184775939444,164370.0,89750.0,4957.0
62853.54774842078,6.60827374348446,164434.0,89741.0,4982.0
62853.557837388325,6.6183627110294765,164422.0,89768.0,4964.0
62853.56792635588,6.628451678581769,164411.0,89727.0,4947.0
62853.57801532342,6.638540646126785,164450.0,89779.0,4992.0
62853.58810429097,6.648629613671801,164418.0,89722.0,4978.0
62853.59819325852,6.658718581224093,164463.0,89751.0,4985.0
62853.608282226065,6.668807548769109,164476.0,89759.0,4979.0
62853.61837119361,6.678896516314126,164512.0,89747.0,5000.0
62853.62846016116,6.688985483866418,164481.0,89769.0,4981.0
62853.63854912871,6.699074451411434,164491.0,89762.0,4989.0
62853.64863809625,6.70916341895645,164501.0,89784.0,5019.0
62853.658727063805,6.719252386508742,164493.0,89742.0,4968.0
62853.66881603135,6.7293413540537586,164447.0,89801.0,5010.0
62853.678904998895,6.739430321598775,164511.0,89763.0,5003.0
62853.68899396645,6.749519289151067,164525.0,89776.0,5002.0
62853.69908293399,6.759608256696083,164549.0,89779.0,4986.0
62853.70917190154,6.769697224241099,164537.0,89783.0,5003.0
62853.71926086908,6.7797861917861155,164558.0,89774.0,5021.0
62853.729349836634,6.789875159338408,164559.0,89764.0,5016.0
62853.73943880418,6.799964126883424,164597.0,89788.0,5033.0
62853.749527771724,6.81005309442844,164561.0,89782.0,4998.0
62853.75961673928,6.820142061980732,164576.0,89791.0,5016.0
62853.76970570682,6.8302310295257485,164606.0,89808.0,5013.0
62853.77979467437,6.840319997070765,164612.0,89779.0,5046.0
62853.78988364192,6.850408964623057,164640.0,89795.0,5049.0
62853.799972609464,6.860497932168073,164618.0,89793.0,5042.0
62853.81006157701,6.870586899713089,164623.0,89782.0,5050.0
62853.82015054456,6.880675867265381,164615.0,89775.0,5047.0
62853.830239512106,6.890764834810398,164624.0,89790.0,5066.0
62853.84032847965,6.900853802355414,164661.0,89799.0,5055.0
62853.850417447204,6.910942769907706,164639.0,89789.0,5056.0
62853.86050641475,6.921031737452722,164674.0,89826.0,5073.0
62853.870595382294,6.931120704997738,164706.0,89797.0,5093.0
62853.880684349846,6.9412096725500305,164700.0,89813.0,5070.0
62853.89077331739,6.951298640095047,164707.0,89795.0,5087.0
62853.900862284936,6.961387607640063,164736.0,89849.0,5097.0
62853.91095125248,6.971476575185079,164707.0,89807.0,5058.0
62853.92104022003,6.981565542737371,164745.0,89827.0,5096.0
62853.93112918758,6.9916545102823875,164764.0,89812.0,5090.0
62853.94121815512,7.001743477827404,164712.0,89825.0,5063.0
62853.951307122676,7.011832445379696,164705.0,89798.0,5087.0
62853.96139609022,7.021921412924712,164695.0,89812.0,5086.0
62853.971485057766,7.032010380469728,164679.0,89836.0,5089.0
62853.98157402532,7.04209934802202,164609.0,89805.0,5045.0
62853.99166299286,7.052188315567037,164591.0,89781.0,5024.0
62854.00175196041,7.062277283112053,164576.0,89782.0,5036.0
62854.01184092796,7.072366250664345,164533.0,89774.0,4995.0
62854.021929895505,7.082455218209361,164554.0,89773.0,5020.0
62854.03201886305,7.092544185754377,164493.0,89752.0,4970.0
62854.0421078306,7.1026331533066696,164472.0,89767.0,4969.0
62854.05219679815,7.112722120851686,164432.0,89771.0,4969.0
62854.06228576569,7.122811088396702,164448.0,89718.0,4953.0
62854.072374733245,7.132900055948994,164430.0,89748.0,4940.0
62854.08246370079,7.14298902349401,164427.0,89743.0,4956.0
62854.092552668335,7.1530779910390265,164426.0,89763.0,4944.0
62854.10264163588,7.163166958584043,164393.0,89723.0,4944.0
62854.11273060343,7.173255926136335,164446.0,89774.0,4959.0
62854.12281957098,7.183344893681351,164413.0,89738.0,4943.0
62854.13290853852,7.193433861226367,164438.0,89734.0,4952.0
62854.142997506075,7.2035228287786595,164416.0,89767.0,4969.0
62854.15308647362,7.213611796323676,164428.0,89756.0,4950.0
62854.163175441165,7.223700763868692,164433.0,89723.0,4944.0
62854.17326440872,7.233789731420984,164451.0,89761.0,4960.0
62854.18335337626,7.243878698966,164458.0,89770.0,4964.0
62854.19344234381,7.253967666511016,164425.0,89734.0,4948.0
62854.20353131136,7.264056634063309,164463.0,89749.0,4935.0
62854.213620278904,7.274145601608325,164461.0,89764.0,4959.0
62854.22370924645,7.284234569153341,164445.0,89738.0,4980.0
62854.233798214,7.294323536705633,164449.0,89762.0,4956.0
62854.24388718155,7.304412504250649,164469.0,89744.0,4997.0
62854.25397614909,7.314501471795666,164466.0,89756.0,4961.0
62854.26406511664,7.324590439340682,164445.0,89741.0,4944.0
62854.27415408419,7.334679406892974,164469.0,89776.0,4943.0
62854.284243051734,7.34476837443799,164439.0,89729.0,4949.0
62854.29433201928,7.354857341983006,164445.0,89752.0,4957.0
62854.30442098683,7.3649463095352985,164441.0,89745.0,4964.0
62854.314509954376,7.375035277080315,164467.0,89767.0,4984.0
62854.32459892192,7.385124244625331,164448.0,89740.0,4966.0
62854.33468788947,7.395213212177623,164469.0,89771.0,4956.0
62854.34477685702,7.405302179722639,164439.0,89760.0,4939.0
62854.35486582456,7.4153911472676555,164444.0,89738.0,4953.0
62854.364954792116,7.425480114819948,164472.0,89788.0,4970.0
62854.37504375966,7.435569082364964,164471.0,89765.0,4968.0
62854.385132727206,7.44565804990998,164460.0,89759.0,4968.0
62854.39522169476,7.455747017462272,164473.0,89740.0,4962.0
62854.4053106623,7.465835985007288,164508.0,89780.0,4990.0
62854.41539962985,7.475924952552305,164514.0,89773.0,4984.0
62854.4254885974,7.486013920104597,164513.0,89799.0,4977.0
62854.435577564946,7.496102887649613,164561.0,89800.0,5019.0
62854.44566653249,7.506191855194629,164535.0,89776.0,4977.0
62854.455755500036,7.516280822739645,164552.0,89787.0,4994.0
62854.46584446759,7.5263697902919375,164571.0,89799.0,5011.0
62854.47593343513,7.536458757836954,164552.0,89767.0,5019.0
62854.48602240268,7.54654772538197,164555.0,89796.0,4991.0
62854.49611137023,7.556636692934262,164594.0,89795.0,5021.0
62854.506200337775,7.566725660479278,164625.0,89804.0,5044.0
62854.51628930532,7.5768146280242945,164591.0,89792.0,5014.0
62854.52637827287,7.586903595576587,164636.0,89819.0,5050.0
62854.53646724042,7.596992563121603,164627.0,89819.0,5035.0
62854.54655620796,7.607081530666619,164615.0,89801.0,5014.0
62854.556645175515,7.617170498218911,164620.0,89829.0,5052.0
62854.56673414306,7.627259465763927,164663.0,89819.0,5078.0
62854.576823110605,7.637348433308944,164652.0,89829.0,5046.0
62854.58691207816,7.647437400861236,164671.0,89822.0,5021.0
62854.5970010457,7.657526368406252,164670.0,89835.0,5051.0
62854.60709001325,7.667615335951268,164658.0,89797.0,5028.0
62854.6171789808,7.67770430350356,164673.0,89819.0,5065.0
62854.627267948345,7.687793271048577,164668.0,89840.0,5042.0
62854.63735691589,7.697882238593593,164679.0,89813.0,5051.0
62854.647445883435,7.707971206138609,164738.0,89866.0,5086.0
62854.65753485099,7.718060173690901,164717.0,89837.0,5090.0
62854.66762381853,7.728149141235917,164717.0,89848.0,5081.0
62854.67771278608,7.7382381087809335,164714.0,89840.0,5068.0
62854.68780175363,7.748327076333226,164744.0,89849.0,5097.0
62854.697890721174,7.758416043878242,164716.0,89842.0,5056.0
62854.70797968872,7.768505011423258,164768.0,89818.0,5086.0
62854.71806865627,7.77859397897555,164792.0,89869.0,5111.0
62854.72815762382,7.7886829465205665,164753.0,89844.0,5072.0
62854.73824659136,7.798771914065583,164798.0,89848.0,5123.0
62854.748335558914,7.808860881617875,164791.0,89858.0,5105.0
62854.75842452646,7.818949849162891,164774.0,89822.0,5101.0
62854.768513494004,7.829038816707907,164794.0,89834.0,5088.0
62854.778602461556,7.839127784260199,164851.0,89870.0,5120.0
62854.7886914291,7.849216751805216,164847.0,89866.0,5121.0
62854.798780396646,7.859305719350232,164829.0,89847.0,5117.0
62854.80886936419,7.869394686895248,164845.0,89880.0,5155.0
62854.81895833174,7.87948365444754,164845.0,89849.0,5143.0
62854.82904729929,7.889572621992556,164834.0,89861.0,5128.0
62854.83913626683,7.899661589537573,164804.0,89860.0,5136.0
62854.849225234386,7.909750557089865,164744.0,89842.0,5098.0
62854.85931420193,7.919839524634881,164717.0,89840.0,5082.0
62854.869403169476,7.929928492179897,164715.0,89834.0,5086.0
62854.87949213703,7.940017459732189,164690.0,89828.0,5092.0
62854.88958110457,7.9501064272772055,164616.0,89786.0,5064.0
62854.89967007212,7.960195394822222,164610.0,89788.0,5028.0
62854.90975903967,7.970284362374514,164586.0,89797.0,5023.0
62854.919848007215,7.98037332991953,164567.0,89808.0,5030.0
62854.92993697476,7.990462297464546,164572.0,89799.0,5034.0
62854.94002594231,8.000551265016838,164576.0,89793.0,5019.0
62854.95011490986,8.010640232561855,164564.0,89798.0,4992.0
62854.9602038774,8.02072920010687,164560.0,89783.0,4975.0
62854.970292844955,8.030818167659163,164577.0,89809.0,4999.0
62854.9803818125,8.04090713520418,164522.0,89762.0,5008.0
62854.990470780045,8.050996102749195,164561.0,89801.0,5002.0
62855.00055974759,8.061085070294212,164518.0,89815.0,4967.0
62855.01064871514,8.071174037846504,164545.0,89775.0,4994.0
62855.02073768269,8.08126300539152,164567.0,89789.0,4989.0
62855.03082665023,8.091351972936536,164570.0,89789.0,5004.0
62855.040915617785,8.101440940488828,164573.0,89766.0,5029.0
62855.05100458533,8.111529908033845,164609.0,89829.0,5031.0
62855.061093552875,8.12161887557886,164562.0,89823.0,5031.0
62855.07118252043,8.131707843131153,164607.0,89799.0,5016.0
62855.08127148797,8.14179681067617,164605.0,89796.0,4997.0
62855.09136045552,8.151885778221185,164607.0,89809.0,5004.0
62855.10144942307,8.161974745773477,164624.0,89820.0,5035.0
62855.111538390614,8.172063713318494,164618.0,89803.0,5033.0
62855.12162735816,8.18215268086351,164593.0,89789.0,5020.0
62855.13171632571,8.192241648415802,164591.0,89802.0,5019.0
62855.14180529326,8.202330615960818,164552.0,89786.0,5012.0
62855.1518942608,8.212419583505834,164572.0,89798.0,5017.0
62855.161983228354,8.222508551058127,164618.0,89849.0,5039.0
62855.1720721959,8.232597518603143,164571.0,89795.0,4994.0
62855.182161163444,8.242686486148159,164586.0,89809.0,5006.0
62855.19225013099,8.252775453693175,164589.0,89796.0,5009.0
62855.20233909854,8.262864421245467,164583.0,89801.0,5013.0
62855.21242806609,8.272953388790484,164593.0,89780.0,5008.0
62855.22251703363,8.2830423563355,164611.0,89823.0,5010.0
62855.232606001184,8.293131323887792,164600.0,89798.0,5011.0
62855.24269496873,8.303220291432808,164570.0,89827.0,5006.0
62855.252783936274,8.313309258977824,164608.0,89834.0,5026.0
62855.262872903826,8.323398226530117,164598.0,89782.0,5017.0
62855.27296187137,8.333487194075133,164593.0,89780.0,5011.0
62855.283050838916,8.343576161620149,164620.0,89810.0,5028.0
62855.29313980647,8.353665129172441,164669.0,89848.0,5045.0
62855.30322877401,8.363754096717457,164647.0,89814.0,5020.0
62855.31331774156,8.373843064262473,164698.0,89828.0,5054.0
62855.32340670911,8.383932031814766,164681.0,89844.0,5048.0
62855.333495676656,8.394020999359782,164667.0,89809.0,5056.0
62855.3435846442,8.404109966904798,164709.0,89836.0,5059.0
62855.353673611746,8.414198934449814,164717.0,89836.0,5055.0
62855.3637625793,8.424287902002106,164712.0,89847.0,5072.0
62855.37385154684,8.434376869547123,164676.0,89839.0,5050.0
62855.38394051439,8.444465837092139,164735.0,89828.0,5061.0
62855.39402948194,8.454554804644431,164722.0,89833.0,5070.0
62855.404118449485,8.464643772189447,164737.0,89840.0,5080.0
62855.41420741703,8.474732739734463,164760.0,89845.0,5126.0
62855.42429638458,8.484821707286756,164735.0,89822.0,5088.0
62855.43438535213,8.494910674831772,164728.0,89857.0,5093.0
62855.44447431967,8.504999642376788,164778.0,89852.0,5097.0
62855.454563287225,8.51508860992908,164786.0,89853.0,5065.0
62855.46465225477,8.525177577474096,164799.0,89863.0,5075.0
62855.474741222315,8.535266545019113,164795.0,89869.0,5116.0
62855.48483018987,8.545355512571405,164806.0,89854.0,5106.0
62855.49491915741,8.555444480116421,164775.0,89856.0,5094.0
62855.50500812496,8.565533447661437,164798.0,89849.0,5104.0
62855.51509709251,8.57562241521373,164808.0,89870.0,5103.0
62855.525186060055,8.585711382758745,164816.0,89861.0,5119.0
62855.5352750276,8.595800350303762,164838.0,89856.0,5117.0
62855.545363995145,8.605889317848778,164791.0,89860.0,5110.0
62855.5554529627,8.61597828540107,164829.0,89855.0,5122.0
62855.56554193024,8.626067252946086,164846.0,89867.0,5120.0
62855.57563089779,8.636156220491102,164870.0,89865.0,5138.0
62855.58571986534,8.646245188043395,164844.0,89874.0,5156.0
62855.595808832884,8.65633415558841,164896.0,89893.0,5122.0
62855.60589780043,8.666423123133427,164888.0,89871.0,5130.0
62855.61598676798,8.67651209068572,164871.0,89863.0,5170.0
62855.62607573553,8.686601058230735,164863.0,89859.0,5137.0
62855.63616470307,8.696690025775752,164932.0,89908.0,5173.0
62855.646253670624,8.706778993328044,164928.0,89892.0,5150.0
62855.65634263817,8.71686796087306,164876.0,89862.0,5163.0
62855.666431605714,8.726956928418076,164905.0,89857.0,5164.0
62855.676520573266,8.737045895970368,164831.0,89853.0,5135.0
62855.68660954081,8.747134863515384,164819.0,89862.0,5148.0
62855.696698508356,8.7572238310604,164793.0,89854.0,5137.0
62855.7067874759,8.767312798605417,164758.0,89882.0,5135.0
62855.716876443454,8.777401766157709,164772.0,89875.0,5111.0
62855.726965411,8.787490733702725,164713.0,89836.0,5095.0
62855.737054378544,8.797579701247741,164678.0,89844.0,5054.0
62855.747143346096,8.807668668800034,164646.0,89819.0,5051.0
62855.75723231364,8.81775763634505,164668.0,89842.0,5063.0
62855.767321281186,8.827846603890066,164628.0,89807.0,5045.0
62855.77741024874,8.837935571442358,164620.0,89799.0,5014.0
62855.78749921628,8.848024538987374,164611.0,89801.0,5019.0
62855.79758818383,8.85811350653239,164593.0,89792.0,5039.0
62855.80767715138,8.868202474084683,164592.0,89799.0,4990.0
62855.817766118926,8.878291441629699,164570.0,89805.0,5029.0
62855.82785508647,8.888380409174715,164636.0,89828.0,5040.0
62855.83794405402,8.898469376727007,164640.0,89801.0,5057.0
62855.84803302157,8.908558344272024,164633.0,89806.0,5050.0
62855.85812198911,8.91864731181704,164613.0,89791.0,5036.0
62855.868210956665,8.928736279369332,164634.0,89820.0,5035.0
62855.87829992421,8.938825246914348,164635.0,89845.0,5034.0
62855.888388891755,8.948914214459364,164683.0,89817.0,5059.0
62855.8984778593,8.95900318200438,164676.0,89811.0,5042.0
62855.90856682685,8.969092149556673,164644.0,89788.0,5063.0
62855.9186557944,8.979181117101689,164680.0,89804.0,5047.0
62855.92874476194,8.989270084646705,164671.0,89794.0,5022.0
62855.938833729495,8.999359052198997,164678.0,89825.0,5041.0
62855.94892269704,9.009448019744013,164668.0,89823.0,5056.0
62855.959011664585,9.01953698728903,164639.0,89808.0,5037.0
62855.96910063214,9.029625954841322,164684.0,89831.0,5074.0
62855.97918959968,9.039714922386338,164668.0,89810.0,5055.0
62855.98927856723,9.049803889931354,164642.0,89786.0,5032.0
62855.99936753478,9.059892857483646,164630.0,89800.0,5031.0
62856.009456502325,9.069981825028663,164655.0,89841.0,5075.0
62856.01954546987,9.080070792573679,164650.0,89817.0,5035.0
62856.02963443742,9.090159760125971,164660.0,89818.0,5059.0
62856.03972340497,9.100248727670987,164620.0,89793.0,5039.0
62856.04981237251,9.110337695216003,164620.0,89821.0,5011.0
62856.059901340064,9.120426662768296,164643.0,89819.0,5046.0
62856.06999030761,9.130515630313312,164662.0,89791.0,5081.0
62856.080079275154,9.140604597858328,164628.0,89793.0,5044.0
62856.0901682427,9.150693565403344,164695.0,89847.0,5067.0
62856.10025721025,9.160782532955636,164674.0,89825.0,5057.0
62856.1103461778,9.170871500500652,164671.0,89819.0,5047.0
62856.12043514534,9.180960468045669,164718.0,89829.0,5072.0
62856.130524112894,9.19104943559796,164707.0,89851.0,5086.0
62856.14061308044,9.201138403142977,164713.0,89831.0,5065.0
62856.150702047984,9.211227370687993,164703.0,89854.0,5065.0
62856.160791015536,9.221316338240285,164764.0,89848.0,5071.0
62856.17087998308,9.231405305785302,164733.0,89849.0,5084.0
62856.180968950626,9.241494273330318,164751.0,89848.0,5070.0
62856.19105791818,9.25158324088261,164719.0,89850.0,5069.0
62856.20114688572,9.261672208427626,164758.0,89830.0,5101.0
62856.21123585327,9.271761175972642,164790.0,89857.0,5073.0
62856.22132482082,9.281850143524935,164779.0,89850.0,5105.0
62856.231413788366,9.29193911106995,164792.0,89857.0,5087.0
62856.24150275591,9.302028078614967,164826.0,89854.0,5076.0
62856.251591723456,9.312117046159983,164783.0,89869.0,5105.0
62856.26168069101,9.322206013712275,164817.0,89861.0,5113.0
62856.27176965855,9.332294981257292,164849.0,89873.0,5129.0
62856.2818586261,9.342383948802308,164838.0,89857.0,5086.0
62856.29194759365,9.3524729163546,164807.0,89871.0,5100.0
62856.302036561196,9.362561883899616,164838.0,89867.0,5129.0
62856.31212552874,9.372650851444632,164868.0,89887.0,5106.0
62856.32221449629,9.382739818996924,164823.0,89858.0,5128.0
62856.33230346384,9.39282878654194,164860.0,89879.0,5130.0
62856.34239243138,9.402917754086957,164847.0,89842.0,5147.0
62856.352481398935,9.413006721639249,164878.0,89864.0,5124.0
62856.36257036648,9.423095689184265,164848.0,89864.0,5166.0
62856.372659334025,9.433184656729281,164872.0,89860.0,5123.0
62856.38274830158,9.443273624281574,164899.0,89879.0,5142.0
62856.39283726912,9.45336259182659,164922.0,89892.0,5150.0
62856.40292623667,9.463451559371606,164908.0,89923.0,5179.0
62856.41301520422,9.473540526923898,164929.0,89871.0,5170.0
62856.423104171765,9.483629494468914,164928.0,89900.0,5145.0
62856.43319313931,9.49371846201393,164910.0,89871.0,5161.0
62856.443282106855,9.503807429558947,164983.0,89909.0,5165.0
62856.45337107441,9.513896397111239,164931.0,89899.0,5150.0
62856.46346004195,9.523985364656255,164951.0,89888.0,5160.0
62856.4735490095,9.534074332201271,164973.0,89860.0,5169.0
62856.48363797705,9.544163299753563,164913.0,89886.0,5180.0
62856.493726944595,9.55425226729858,164923.0,89846.0,5174.0
62856.50381591214,9.564341234843596,164885.0,89864.0,5166.0
62856.51390487969,9.574430202395888,164876.0,89866.0,5149.0
62856.52399384724,9.584519169940904,164801.0,89862.0,5117.0
62856.53408281478,9.59460813748592,164799.0,89870.0,5140.0
62856.544171782334,9.604697105038213,164743.0,89835.0,5108.0
62856.55426074988,9.614786072583229,164723.0,89848.0,5091.0
62856.564349717424,9.624875040128245,164666.0,89831.0,5067.0
62856.57443868498,9.634964007680537,164661.0,89821.0,5041.0
62856.58452765252,9.645052975225553,164670.0,89807.0,5059.0
62856.59461662007,9.65514194277057,164632.0,89811.0,5031.0
62856.60470558762,9.665230910322862,164657.0,89796.0,4999.0
62856.614794555164,9.675319877867878,164617.0,89807.0,4992.0
62856.62488352271,9.685408845412894,164616.0,89813.0,5025.0
62856.634972490254,9.69549781295791,164594.0,89804.0,5011.0
62856.645061457806,9.705586780510203,164564.0,89804.0,4995.0
62856.65515042535,9.715675748055219,164567.0,89828.0,5015.0
62856.665239392896,9.725764715600235,164577.0,89792.0,4996.0
62856.67532836045,9.735853683152527,164594.0,89799.0,5005.0
62856.68541732799,9.745942650697543,164564.0,89774.0,4994.0
62856.69550629554,9.75603161824256,164595.0,89821.0,4998.0
62856.70559526309,9.766120585794852,164571.0,89796.0,4999.0
62856.715684230636,9.776209553339868,164599.0,89788.0,5002.0
62856.72577319818,9.786298520884884,164613.0,89806.0,5011.0
62856.73586216573,9.796387488437176,164579.0,89789.0,4982.0
62856.74595113328,9.806476455982192,164609.0,89821.0,4991.0
62856.75604010082,9.816565423527209,164580.0,89800.0,5012.0
62856.766129068375,9.8266543910795,164566.0,89788.0,5018.0
62856.77621803592,9.836743358624517,164581.0,89798.0,4996.0
62856.786307003465,9.846832326169533,164586.0,89791.0,4981.0
62856.79639597101,9.85692129371455,164573.0,89794.0,4992.0
62856.80648493856,9.867010261266842,164543.0,89756.0,4986.0
62856.81657390611,9.877099228811858,164577.0,89801.0,4975.0
62856.82666287365,9.887188196356874,164529.0,89772.0,4977.0
62856.836751841205,9.897277163909166,164549.0,89795.0,4976.0
62856.84684080875,9.907366131454182,164546.0,89792.0,4986.0
62856.856929776295,9.917455098999199,164555.0,89764.0,5002.0
62856.86701874385,9.92754406655149,164555.0,89809.0,5002.0
62856.87710771139,9.937633034096507,164557.0,89809.0,4968.0
62856.88719667894,9.947722001641523,164501.0,89788.0,4968.0
62856.89728564649,9.957810969193815,164488.0,89797.0,4984.0
62856.907374614035,9.967899936738831,164550.0,89798.0,5005.0
62856.91746358158,9.977988904283848,164543.0,89791.0,4969.0
62856.92755254913,9.98807787183614,164530.0,89776.0,4970.0
62856.93764151668,9.998166839381156,164564.0,89777.0,4986.0
62856.94773048422,10.008255806926172,164539.0,89758.0,4980.0
62856.957819451774,10.018344774478464,164566.0,89797.0,4979.0
62856.96790841932,10.02843374202348,164551.0,89814.0,4973.0
62856.977997386864,10.038522709568497,164577.0,89830.0,5009.0
62856.98808635441,10.048611677113513,164562.0,89787.0,4974.0
62856.99817532196,10.058700644665805,164601.0,89805.0,5015.0
62857.00826428951,10.068789612210821,164630.0,89850.0,5014.0
62857.01835325705,10.078878579755838,164596.0,89799.0,5010.0
62857.028442224604,10.08896754730813,164585.0,89808.0,4992.0
62857.03853119215,10.099056514853146,164653.0,89812.0,5032.0
62857.048620159694,10.109145482398162,164646.0,89817.0,5017.0
62857.05870912725,10.119234449950454,164652.0,89824.0,5008.0
62857.06879809479,10.12932341749547,164674.0,89808.0,5022.0
62857.07888706234,10.139412385040487,164640.0,89798.0,5006.0
62857.08897602989,10.149501352592779,164686.0,89825.0,5031.0
62857.099064997434,10.159590320137795,164696.0,89850.0,5031.0
62857.10915396498,10.169679287682811,164682.0,89820.0,5006.0
62857.11924293253,10.179768255235103,164728.0,89853.0,5025.0
62857.129331900076,10.18985722278012,164704.0,89838.0,5029.0
62857.13942086762,10.199946190325136,164666.0,89831.0,5022.0
62857.14950983517,10.210035157877428,164708.0,89848.0,5036.0
62857.15959880272,10.220124125422444,164744.0,89868.0,5057.0
62857.16968777026,10.23021309296746,164736.0,89838.0,5052.0
62857.17977673781,10.240302060512477,164772.0,89846.0,5034.0
62857.18986570536,10.250391028064769,164767.0,89871.0,5040.0
62857.199954672906,10.260479995609785,164750.0,89844.0,5044.0
62857.21004364045,10.270568963154801,164774.0,89852.0,5075.0
62857.220132608,10.280657930707093,164813.0,89850.0,5092.0
62857.23022157555,10.29074689825211,164806.0,89865.0,5093.0
62857.24031054309,10.300835865797126,164784.0,89826.0,5068.0
62857.250399510645,10.310924833349418,164812.0,89875.0,5086.0
62857.26048847819,10.321013800894434,164857.0,89893.0,5098.0
62857.270577445735,10.33110276843945,164838.0,89857.0,5076.0
62857.28066641329,10.341191735991742,164856.0,89899.0,5117.0
62857.29075538083,10.351280703536759,164849.0,89878.0,5098.0
62857.30084434838,10.361369671081775,164873.0,89859.0,5111.0
62857.31093331593,10.371458638634067,164871.0,89871.0,5126.0
62857.321022283475,10.381547606179083,164897.0,89909.0,5135.0
62857.33111125102,10.3916365737241,164845.0,89880.0,5110.0
62857.341200218565,10.401725541269116,164813.0,89865.0,5119.0
62857.35128918612,10.411814508821408,164818.0,89892.0,5116.0
62857.36137815366,10.421903476366424,164742.0,89840.0,5077.0
62857.37146712121,10.43199244391144,164724.0,89858.0,5074.0
62857.38155608876,10.442081411463732,164677.0,89833.0,5052.0
62857.391645056305,10.452170379008749,164654.0,89804.0,5028.0
62857.40173402385,10.462259346553765,164601.0,89829.0,5013.0
62857.4118229914,10.472348314106057,164632.0,89840.0,5018.0
62857.42191195895,10.482437281651073,164581.0,89829.0,5010.0
62857.43200092649,10.49252624919609,164614.0,89836.0,4980.0
62857.442089894044,10.502615216748381,164608.0,89832.0,5008.0
62857.45217886159,10.512704184293398,164560.0,89805.0,4989.0
62857.462267829134,10.522793151838414,164541.0,89830.0,4973.0
62857.47235679669,10.532882119390706,164525.0,89814.0,4975.0
62857.48244576423,10.542971086935722,164565.0,89822.0,4976.0
62857.49253473178,10.553060054480738,164565.0,89813.0,4981.0
62857.50262369933,10.56314902203303,164558.0,89810.0,4968.0
62857.512712666874,10.573237989578047,164598.0,89817.0,5011.0
62857.52280163442,10.583326957123063,164560.0,89785.0,4976.0
62857.532890601964,10.59341592466808,164581.0,89816.0,4985.0
62857.542979569516,10.603504892220371,164597.0,89833.0,5015.0
62857.55306853706,10.613593859765388,164525.0,89795.0,4976.0
62857.563157504606,10.623682827310404,164583.0,89811.0,4961.0
62857.57324647216,10.633771794862696,164587.0,89822.0,5024.0
62857.583335439704,10.643860762407712,164596.0,89830.0,5006.0
62857.59342440725,10.653949729952728,164594.0,89794.0,4987.0
62857.6035133748,10.66403869750502,164620.0,89845.0,5014.0
62857.613602342346,10.674127665050037,164575.0,89821.0,4988.0
62857.62369130989,10.684216632595053,164587.0,89799.0,4991.0
62857.63378027744,10.694305600147345,164589.0,89835.0,5011.0
62857.64386924499,10.704394567692361,164556.0,89803.0,4974.0
62857.65395821253,10.714483535237378,164580.0,89810.0,4987.0
62857.664047180086,10.72457250278967,164577.0,89817.0,4982.0
62857.67413614763,10.734661470334686,164556.0,89813.0,4985.0
62857.684225115176,10.744750437879702,164564.0,89793.0,4972.0
62857.69431408273,10.754839405431994,164589.0,89838.0,4972.0
62857.70440305027,10.76492837297701,164560.0,89803.0,4986.0
62857.71449201782,10.775017340522027,164552.0,89813.0,4999.0
62857.72458098536,10.785106308067043,164592.0,89848.0,5000.0
62857.734669952915,10.795195275619335,164573.0,89821.0,4988.0
62857.74475892046,10.805284243164351,164586.0,89830.0,4997.0
62857.754847888005,10.815373210709367,164563.0,89816.0,4966.0
62857.76493685556,10.82546217826166,164630.0,89847.0,5008.0
62857.7750258231,10.835551145806676,164599.0,89813.0,4990.0
62857.78511479065,10.845640113351692,164636.0,89841.0,4999.0
62857.7952037582,10.855729080903984,164638.0,89842.0,5030.0
62857.805292725745,10.865818048449,164633.0,89826.0,5014.0
62857.81538169329,10.875907015994017,164683.0,89830.0,5013.0
62857.82547066084,10.885995983546309,164658.0,89860.0,5021.0
62857.83555962839,10.896084951091325,164676.0,89872.0,5040.0
62857.84564859593,10.906173918636341,164697.0,89889.0,5034.0
62857.855737563485,10.916262886188633,164719.0,89884.0,5052.0
62857.86582653103,10.92635185373365,164712.0,89861.0,5031.0
62857.875915498575,10.936440821278666,164689.0,89829.0,5049.0
62857.88600446612,10.946529788823682,164750.0,89867.0,5049.0
62857.89609343367,10.956618756375974,164721.0,89866.0,5048.0
62857.90618240122,10.96670772392099,164736.0,89870.0,5054.0
62857.91627136876,10.976796691466006,164732.0,89894.0,5051.0
62857.926360336314,10.986885659018299,164740.0,89858.0,5054.0
62857.93644930386,10.996974626563315,164789.0,89906.0,5030.0
62857.946538271404,11.007063594108331,164758.0,89901.0,5053.0
62857.95662723896,11.017152561660623,164763.0,89890.0,5089.0
62857.9667162065,11.02724152920564,164747.0,89859.0,5062.0
62857.97680517405,11.037330496750656,164762.0,89904.0,5082.0
62857.9868941416,11.047419464302948,164795.0,89885.0,5075.0
62857.996983109144,11.057508431847964,164822.0,89875.0,5102.0
62858.00707207669,11.06759739939298,164804.0,89882.0,5072.0
62858.01716104424,11.077686366945272,164832.0,89897.0,5072.0
62858.027250011786,11.087775334490289,164821.0,89892.0,5095.0
62858.03733897933,11.097864302035305,164805.0,89900.0,5082.0
62858.04742794688,11.107953269587597,164842.0,89880.0,5123.0
62858.05751691443,11.118042237132613,164819.0,89876.0,5076.0
62858.06760588197,11.12813120467763,164849.0,89900.0,5090.0
62858.07769484952,11.138220172222645,164886.0,89902.0,5108.0
62858.08778381707,11.148309139774938,164862.0,89895.0,5131.0
62858.097872784616,11.158398107319954,164855.0,89880.0,5105.0
62858.10796175216,11.16848707486497,164900.0,89906.0,5112.0
62858.11805071971,11.178576042417262,164920.0,89937.0,5130.0
62858.12813968726,11.188665009962278,164922.0,89892.0,5121.0
62858.1382286548,11.198753977507295,164899.0,89897.0,5116.0
62858.148317622356,11.208842945059587,164942.0,89916.0,5136.0
62858.1584065899,11.218931912604603,164935.0,89902.0,5164.0
62858.168495557446,11.22902088014962,164946.0,89924.0,5139.0
62858.178584525,11.239109847701911,164920.0,89904.0,5146.0
62858.18867349254,11.249198815246928,164891.0,89920.0,5111.0
62858.19876246009,11.259287782791944,164909.0,89909.0,5131.0
62858.20885142764,11.269376750344236,164900.0,89893.0,5137.0
62858.218940395185,11.279465717889252,164791.0,89881.0,5087.0
62858.22902936273,11.289554685434268,164792.0,89891.0,5129.0
62858.239118330275,11.299643652979285,164751.0,89892.0,5076.0
62858.24920729783,11.309732620531577,164722.0,89865.0,5043.0
62858.25929626537,11.319821588076593,164707.0,89832.0,5033.0
62858.26938523292,11.329910555621609,164709.0,89887.0,5046.0
62858.27947420047,11.339999523173901,164676.0,89857.0,5023.0
62858.289563168015,11.350088490718917,164636.0,89841.0,5020.0
62858.29965213556,11.360177458263934,164649.0,89868.0,5022.0
62858.30974110311,11.370266425816226,164620.0,89835.0,5015.0
62858.31983007066,11.380355393361242,164646.0,89843.0,5008.0
62858.3299190382,11.390444360906258,164646.0,89858.0,5031.0
62858.340008005754,11.40053332845855,164652.0,89864.0,5022.0
62858.3500969733,11.410622296003567,164588.0,89847.0,4989.0
62858.360185940845,11.420711263548583,164655.0,89851.0,5016.0
62858.3702749084,11.430800231100875,164692.0,89869.0,5037.0
62858.38036387594,11.440889198645891,164654.0,89837.0,5035.0
62858.39045284349,11.450978166190907,164698.0,89885.0,5043.0
62858.40054181104,11.4610671337432,164685.0,89859.0,5027.0
62858.410630778584,11.471156101288216,164674.0,89874.0,5044.0
62858.42071974613,11.481245068833232,164657.0,89865.0,5020.0
62858.430808713674,11.491334036378248,164676.0,89866.0,5024.0
62858.44089768123,11.50142300393054,164705.0,89857.0,5039.0
62858.45098664877,11.511511971475556,164706.0,89870.0,5023.0
62858.46107561632,11.521600939020573,164737.0,89888.0,5056.0
62858.47116458387,11.531689906572865,164688.0,89846.0,5023.0
62858.481253551414,11.541778874117881,164661.0,89856.0,5028.0
62858.49134251896,11.551867841662897,164665.0,89880.0,5029.0
62858.50143148651,11.56195680921519,164690.0,89857.0,5057.0
62858.511520454056,11.572045776760206,164698.0,89877.0,5024.0
62858.5216094216,11.582134744305222,164687.0,89868.0,5035.0
62858.53169838915,11.592223711857514,164670.0,89858.0,5057.0
62858.5417873567,11.60231267940253,164659.0,89849.0,5016.0
62858.55187632424,11.612401646947546,164687.0,89874.0,5040.0
62858.561965291796,11.622490614499839,164689.0,89861.0,5022.0
62858.57205425934,11.632579582044855,164688.0,89856.0,5015.0
62858.582143226886,11.642668549589871,164682.0,89867.0,5014.0
62858.59223219444,11.652757517142163,164723.0,89905.0,5056.0
62858.60232116198,11.66284648468718,164704.0,89874.0,5042.0
62858.61241012953,11.672935452232196,164690.0,89895.0,5030.0
62858.62249909707,11.683024419777212,164744.0,89893.0,5062.0
62858.632588064625,11.693113387329504,164735.0,89870.0,5054.0
62858.64267703217,11.70320235487452,164744.0,89876.0,5051.0
62858.652765999715,11.713291322419536,164782.0,89911.0,5069.0
62858.66285496727,11.723380289971828,164769.0,89873.0,5055.0
62858.67294393481,11.733469257516845,164777.0,89865.0,5042.0
62858.68303290236,11.74355822506186,164792.0,89887.0,5074.0
62858.69312186991,11.753647192614153,164832.0,89907.0,5101.0
62858.703210837455,11.76373616015917,164799.0,89885.0,5063.0
62858.713299805,11.773825127704185,164806.0,89898.0,5089.0
62858.72338877255,11.783914095256478,164836.0,89899.0,5075.0
62858.7334777401,11.794003062801494,164829.0,89914.0,5107.0
62858.74356670764,11.80409203034651,164900.0,89962.0,5120.0
62858.753655675195,11.814180997898802,164860.0,89901.0,5087.0
62858.76374464274,11.824269965443818,164868.0,89919.0,5103.0
62858.773833610285,11.834358932988835,164843.0,89886.0,5102.0
62858.78392257783,11.84444790053385,164924.0,89940.0,5116.0
62858.79401154538,11.854536868086143,164887.0,89894.0,5107.0
62858.80410051293,11.86462583563116,164897.0,89932.0,5135.0
62858.81418948047,11.874714803176175,164909.0,89939.0,5122.0
62858.824278448024,11.884803770728467,164907.0,89909.0,5102.0
62858.83436741557,11.894892738273484,164951.0,89934.0,5133.0
62858.844456383114,11.9049817058185,164972.0,89955.0,5151.0
62858.85454535067,11.915070673370792,164933.0,89937.0,5129.0
62858.86463431821,11.925159640915808,164926.0,89965.0,5118.0
62858.87472328576,11.935248608460824,164988.0,89961.0,5158.0
62858.88481225331,11.945337576013117,164913.0,89894.0,5161.0
62858.894901220854,11.955426543558133,164967.0,89927.0,5144.0
62858.9049901884,11.965515511103149,164964.0,89930.0,5141.0
62858.91507915595,11.975604478655441,164959.0,89915.0,5142.0
62858.9251681235,11.985693446200457,164980.0,89939.0,5144.0
62858.93525709104,11.995782413745474,165011.0,89943.0,5167.0
62858.945346058594,12.005871381297766,165063.0,89950.0,5156.0
62858.95543502614,12.015960348842782,165017.0,89958.0,5158.0
62858.965523993684,12.026049316387798,165051.0,89960.0,5180.0
62858.97561296123,12.036138283932814,165037.0,89964.0,5174.0
62858.98570192878,12.046227251485107,165020.0,89966.0,5177.0
62858.995790896326,12.056316219030123,165047.0,89956.0,5155.0
62859.00587986387,12.066405186575139,165086.0,89994.0,5206.0
62859.01596883142,12.076494154127431,165077.0,89971.0,5186.0
62859.02605779897,12.086583121672447,165085.0,89969.0,5166.0
62859.03614676651,12.096672089217464,165082.0,89943.0,5192.0
62859.046235734066,12.106761056769756,165038.0,89947.0,5182.0
62859.05632470161,12.116850024314772,165020.0,89959.0,5188.0
62859.066413669156,12.126938991859788,164981.0,89933.0,5153.0
62859.07650263671,12.13702795941208,164999.0,89965.0,5180.0
62859.08659160425,12.147116926957096,164933.0,89928.0,5127.0
62859.0966805718,12.157205894502113,164911.0,89930.0,5144.0
62859.10676953935,12.167294862054405,164884.0,89941.0,5148.0
62859.116858506895,12.177383829599421,164850.0,89941.0,5099.0
62859.12694747444,12.187472797144437,164804.0,89933.0,5100.0
62859.13703644199,12.19756176469673,164823.0,89899.0,5083.0
62859.14712540954,12.207650732241746,164809.0,89882.0,5083.0
62859.15721437708,12.217739699786762,164819.0,89924.0,5075.0
62859.16730334463,12.227828667331778,164787.0,89873.0,5087.0
62859.17739231218,12.23791763488407,164799.0,89895.0,5072.0
62859.187481279725,12.248006602429086,164788.0,89915.0,5068.0
62859.19757024727,12.258095569974103,164808.0,89875.0,5079.0
62859.20765921482,12.268184537526395,164783.0,89910.0,5064.0
62859.21774818237,12.278273505071411,164811.0,89908.0,5083.0
62859.22783714991,12.288362472616427,164816.0,89900.0,5063.0
62859.237926117465,12.29845144016872,164847.0,89912.0,5100.0
62859.24801508501,12.308540407713735,164856.0,89915.0,5117.0
62859.258104052555,12.318629375258752,164835.0,89914.0,5106.0
62859.26819302011,12.328718342811044,164845.0,89897.0,5087.0
62859.27828198765,12.33880731035606,164856.0,89954.0,5093.0
62859.2883709552,12.348896277901076,164869.0,89929.0,5128.0
62859.29845992275,12.358985245453368,164849.0,89911.0,5133.0
62859.308548890294,12.369074212998385,164863.0,89915.0,5117.0
62859.31863785784,12.3791631805434,164846.0,89895.0,5117.0
62859.328726825384,12.389252148088417,164886.0,89914.0,5125.0
62859.33881579294,12.39934111564071,164865.0,89912.0,5127.0
62859.34890476048,12.409430083185725,164862.0,89923.0,5103.0
62859.35899372803,12.419519050730742,164866.0,89936.0,5086.0
62859.36908269558,12.429608018283034,164835.0,89912.0,5089.0
62859.379171663124,12.43969698582805,164864.0,89925.0,5101.0
62859.38926063067,12.449785953373066,164857.0,89938.0,5095.0
62859.39934959822,12.459874920925358,164840.0,89911.0,5078.0
62859.409438565766,12.469963888470375,164841.0,89874.0,5091.0
62859.41952753331,12.48005285601539,164877.0,89934.0,5116.0
62859.42961650086,12.490141823567683,164848.0,89919.0,5102.0
62859.43970546841,12.500230791112699,164867.0,89923.0,5096.0
62859.449794435954,12.510319758657715,164847.0,89930.0,5079.0
62859.459883403506,12.520408726210007,164868.0,89921.0,5071.0
62859.46997237105,12.530497693755024,164879.0,89930.0,5106.0
62859.480061338596,12.54058666130004,164892.0,89916.0,5102.0
62859.49015030615,12.550675628852332,164870.0,89918.0,5125.0
62859.50023927369,12.560764596397348,164875.0,89905.0,5113.0
62859.51032824124,12.570853563942364,164917.0,89940.0,5121.0
62859.52041720878,12.58094253148738,164938.0,89927.0,5129.0
62859.530506176336,12.591031499039673,164943.0,89937.0,5140.0
62859.54059514388,12.601120466584689,164946.0,89942.0,5153.0
62859.550684111426,12.611209434129705,164932.0,89907.0,5117.0
62859.56077307898,12.621298401681997,164936.0,89939.0,5166.0
62859.57086204652,12.631387369227014,165000.0,89960.0,5179.0
62859.58095101407,12.64147633677203,165015.0,89995.0,5168.0
62859.59103998162,12.651565304324322,165002.0,89963.0,5150.0
62859.601128949165,12.661654271869338,165013.0,89941.0,5162.0
62859.61121791671,12.671743239414354,165029.0,89939.0,5182.0
62859.62130688426,12.681832206966646,165002.0,89948.0,5169.0
62859.63139585181,12.691921174511663,165025.0,89961.0,5176.0
62859.64148481935,12.702010142056679,165008.0,89960.0,5166.0
62859.651573786905,12.712099109608971,165030.0,89947.0,5161.0
62859.66166275445,12.722188077153987,165079.0,89989.0,5194.0
62859.671751721995,12.732277044699003,165068.0,89981.0,5183.0
62859.68184068955,12.742366012251296,165019.0,89921.0,5197.0
62859.69192965709,12.752454979796312,165043.0,89966.0,5179.0
62859.70201862464,12.762543947341328,165073.0,89984.0,5197.0
62859.71210759218,12.772632914886344,165083.0,89977.0,5180.0
62859.722196559735,12.782721882438636,165112.0,89969.0,5222.0
62859.73228552728,12.792810849983653,165102.0,89996.0,5212.0
62859.742374494825,12.802899817528669,165114.0,89997.0,5207.0
62859.75246346238,12.812988785080961,165116.0,89986.0,5211.0
62859.76255242992,12.823077752625977,165138.0,89980.0,5223.0
62859.77264139747,12.833166720170993,165079.0,89940.0,5213.0
62859.78273036502,12.843255687723286,165111.0,89978.0,5193.0
62859.792819332564,12.853344655268302,165138.0,89994.0,5217.0
62859.80290830011,12.863433622813318,165141.0,90007.0,5202.0
62859.81299726766,12.87352259036561,165140.0,89986.0,5197.0
62859.82308623521,12.883611557910626,165164.0,89987.0,5229.0
62859.83317520275,12.893700525455642,165170.0,89992.0,5241.0
62859.843264170304,12.903789493007935,165200.0,90036.0,5237.0
62859.85335313785,12.91387846055295,165209.0,90024.0,5244.0
62859.863442105394,12.923967428097967,165215.0,90022.0,5223.0
62859.87353107294,12.934056395642983,165185.0,90011.0,5226.0
62859.88362004049,12.944145363195275,165148.0,89995.0,5255.0
62859.893709008036,12.954234330740292,165172.0,89998.0,5227.0
62859.90379797558,12.964323298285308,165132.0,89972.0,5241.0
62859.91388694313,12.9744122658376,165077.0,89983.0,5196.0
62859.92397591068,12.984501233382616,165084.0,89974.0,5195.0
62859.93406487822,12.994590200927632,165049.0,89966.0,5203.0
62859.944153845776,13.004679168479925,164978.0,89941.0,5160.0
62859.95424281332,13.01476813602494,165017.0,89971.0,5216.0
62859.964331780866,13.024857103569957,164969.0,89954.0,5146.0
62859.97442074842,13.03494607112225,164959.0,89971.0,5139.0
62859.98450971596,13.045035038667265,164931.0,89917.0,5137.0
62859.99459868351,13.055124006212282,164917.0,89934.0,5132.0
62860.00468765106,13.065212973764574,164924.0,89943.0,5132.0
62860.014776618606,13.07530194130959,164903.0,89932.0,5130.0
62860.02486558615,13.085390908854606,164929.0,89953.0,5158.0
62860.0349545537,13.095479876406898,164919.0,89928.0,5114.0
62860.04504352125,13.105568843951914,164921.0,89948.0,5123.0
62860.05513248879,13.11565781149693,164931.0,89950.0,5151.0
62860.06522145634,13.125746779041947,164909.0,89921.0,5141.0
62860.07531042389,13.135835746594239,164923.0,89970.0,5153.0
62860.085399391435,13.145924714139255,164990.0,89956.0,5164.0
62860.09548835898,13.156013681684271,164963.0,89941.0,5160.0
62860.10557732653,13.166102649236564,164957.0,89940.0,5133.0
62860.11566629408,13.17619161678158,165008.0,89929.0,5167.0
62860.12575526162,13.186280584326596,165001.0,89954.0,5152.0
62860.135844229175,13.196369551878888,164988.0,89958.0,5127.0
62860.14593319672,13.206458519423904,165006.0,89983.0,5181.0
62860.156022164265,13.21654748696892,164979.0,89948.0,5139.0
62860.16611113182,13.226636454521213,165016.0,89955.0,5167.0
62860.17620009936,13.236725422066229,164976.0,89947.0,5148.0
62860.18628906691,13.246814389611245,164973.0,89951.0,5152.0
62860.19637803446,13.256903357163537,164975.0,89946.0,5140.0
62860.206467002005,13.266992324708553,164995.0,89961.0,5150.0
62860.21655596955,13.27708129225357,164978.0,89952.0,5158.0
62860.226644937095,13.287170259798586,164961.0,89941.0,5130.0
62860.23673390465,13.297259227350878,165001.0,89972.0,5130.0
62860.24682287219,13.307348194895894,164995.0,89953.0,5152.0
62860.25691183974,13.31743716244091,164949.0,89943.0,5170.0
62860.26700080729,13.327526129993203,164984.0,89966.0,5145.0
62860.277089774834,13.337615097538219,164981.0,89957.0,5134.0
62860.28717874238,13.347704065083235,164996.0,89954.0,5142.0
62860.29726770993,13.357793032635527,165003.0,89950.0,5141.0
62860.30735667748,13.367882000180543,165036.0,89988.0,5163.0
62860.31744564502,13.37797096772556,165016.0,89951.0,5153.0
62860.327534612574,13.388059935277852,165035.0,89969.0,5169.0
62860.33762358012,13.398148902822868,165062.0,89971.0,5163.0
62860.347712547664,13.408237870367884,165001.0,89926.0,5150.0
62860.357801515216,13.418326837920176,165056.0,89950.0,5179.0
62860.36789048276,13.428415805465193,165059.0,89980.0,5176.0
62860.377979450306,13.438504773010209,165093.0,90022.0,5212.0
62860.38806841786,13.448593740562501,165063.0,89981.0,5175.0
62860.3981573854,13.458682708107517,165116.0,90020.0,5207.0
62860.40824635295,13.468771675652533,165117.0,89992.0,5206.0
62860.41833532049,13.47886064319755,165129.0,89966.0,5197.0
62860.428424288046,13.488949610749842,165159.0,89989.0,5204.0
62860.43851325559,13.499038578294858,165138.0,90002.0,5230.0
62860.448602223136,13.509127545839874,165164.0,90003.0,5196.0
62860.45869119069,13.519216513392166,165135.0,90005.0,5230.0
62860.46878015823,13.529305480937182,165210.0,90007.0,5254.0
62860.47886912578,13.539394448482199,165207.0,90037.0,5244.0
62860.48895809333,13.54948341603449,165187.0,90016.0,5240.0
62860.499047060875,13.559572383579507,165177.0,90006.0,5236.0
62860.50913602842,13.569661351124523,165174.0,89988.0,5238.0
62860.51922499597,13.579750318676815,165188.0,90035.0,5236.0
62860.52931396352,13.589839286221832,165198.0,90019.0,5272.0
62860.53940293106,13.599928253766848,165234.0,90027.0,5239.0
62860.549491898615,13.61001722131914,165220.0,90021.0,5239.0
62860.55958086616,13.620106188864156,165265.0,90046.0,5263.0
62860.569669833705,13.630195156409172,165235.0,90029.0,5254.0
62860.57975880126,13.640284123961465,165261.0,90023.0,5250.0
62860.5898477688,13.65037309150648,165250.0,90014.0,5242.0
62860.59993673635,13.660462059051497,165252.0,90047.0,5259.0
62860.61002570389,13.670551026596513,165268.0,90032.0,5254.0
62860.620114671445,13.680639994148805,165290.0,90055.0,5285.0
62860.63020363899,13.690728961693821,165261.0,90039.0,5285.0
62860.640292606535,13.700817929238838,165264.0,90026.0,5250.0
62860.65038157409,13.71090689679113,165313.0,90072.0,5304.0
62860.66047054163,13.720995864336146,165315.0,90041.0,5279.0
62860.67055950918,13.731084831881162,165308.0,90037.0,5270.0
62860.68064847673,13.741173799433454,165343.0,90067.0,5272.0
62860.690737444274,13.75126276697847,165319.0,90059.0,5290.0
62860.70082641182,13.761351734523487,165317.0,90044.0,5296.0
62860.71091537937,13.771440702075779,165309.0,90030.0,5273.0
62860.72100434692,13.781529669620795,165327.0,90047.0,5300.0
62860.73109331446,13.791618637165811,165269.0,90016.0,5257.0
62860.741182282014,13.801707604718104,165225.0,90027.0,5260.0
62860.75127124956,13.81179657226312,165233.0,90016.0,5278.0
62860.761360217104,13.821885539808136,165159.0,89997.0,5226.0
62860.77144918465,13.831974507353152,165152.0,90014.0,5238.0
62860.7815381522,13.842063474905444,165125.0,90005.0,5225.0
62860.79162711975,13.85215244245046,165089.0,89966.0,5205.0
62860.80171608729,13.862241409995477,165081.0,89974.0,5196.0
62860.811805054844,13.872330377547769,165113.0,89999.0,5206.0
62860.82189402239,13.882419345092785,165065.0,89977.0,5189.0
62860.831982989934,13.892508312637801,165056.0,89976.0,5183.0
62860.842071957486,13.902597280190093,165063.0,90005.0,5184.0
62860.85216092503,13.91268624773511,165060.0,89949.0,5166.0
62860.862249892576,13.922775215280126,165075.0,89975.0,5183.0
62860.87233886013,13.932864182832418,165065.0,89972.0,5187.0
62860.88242782767,13.942953150377434,165089.0,90000.0,5200.0
62860.89251679522,13.95304211792245,165100.0,90005.0,5202.0
62860.90260576277,13.963131085474743,165087.0,89989.0,5185.0
62860.912694730316,13.973220053019759,165104.0,89983.0,5229.0
62860.92278369786,13.983309020564775,165095.0,89959.0,5191.0
62860.93287266541,13.993397988117067,165135.0,90018.0,5228.0
62860.94296163296,14.003486955662083,165128.0,89989.0,5216.0
62860.9530506005,14.0135759232071,165112.0,90013.0,5219.0
62860.96313956805,14.023664890752116,165109.0,90003.0,5191.0
62860.9732285356,14.033753858304408,165113.0,89982.0,5208.0
62860.983317503145,14.043842825849424,165143.0,90001.0,5219.0
62860.99340647069,14.05393179339444,165129.0,89995.0,5207.0
62861.00349543824,14.064020760946732,165127.0,89978.0,5205.0
62861.01358440579,14.074109728491749,165097.0,89985.0,5204.0
62861.02367337333,14.084198696036765,165086.0,89986.0,5186.0
62861.033762340885,14.094287663589057,165091.0,90015.0,5217.0
62861.04385130843,14.104376631134073,165119.0,89972.0,5215.0
62861.053940275975,14.11446559867909,165090.0,89976.0,5188.0
62861.06402924353,14.124554566231382,165097.0,89985.0,5211.0
62861.07411821107,14.134643533776398,165074.0,90003.0,5199.0
62861.08420717862,14.144732501321414,165076.0,89966.0,5174.0
62861.09429614617,14.154821468873706,165116.0,90021.0,5226.0
62861.104385113715,14.164910436418722,165067.0,89996.0,5187.0
62861.11447408126,14.174999403963739,165109.0,89982.0,5202.0
62861.12456304881,14.18508837151603,165109.0,89982.0,5198.0
62861.13465201636,14.195177339061047,165106.0,89974.0,5195.0
62861.1447409839,14.205266306606063,165117.0,89976.0,5187.0
62861.15482995145,14.21535527415108,165139.0,90007.0,5204.0
62861.164918919,14.225444241703372,165131.0,90036.0,5227.0
62861.175007886544,14.235533209248388,165140.0,89969.0,5192.0
62861.18509685409,14.245622176793404,165148.0,89978.0,5221.0
62861.19518582164,14.255711144345696,165166.0,90041.0,5224.0
62861.20527478919,14.265800111890712,165153.0,90002.0,5274.0
62861.21536375673,14.275889079435728,165201.0,90035.0,5241.0
62861.225452724284,14.28597804698802,165177.0,89982.0,5241.0
62861.23554169183,14.296067014533037,165212.0,90019.0,5236.0
62861.245630659374,14.306155982078053,165227.0,90008.0,5240.0
62861.255719626926,14.316244949630345,165241.0,90040.0,5236.0
62861.26580859447,14.326333917175361,165218.0,89994.0,5242.0
62861.275897562016,14.336422884720378,165236.0,90027.0,5265.0
62861.28598652957,14.34651185227267,165256.0,90052.0,5276.0
62861.29607549711,14.356600819817686,165239.0,90040.0,5242.0
62861.30616446466,14.366689787362702,165245.0,89999.0,5254.0
62861.316253432204,14.376778754907718,165262.0,90040.0,5267.0
62861.326342399756,14.38686772246001,165294.0,90059.0,5272.0
62861.3364313673,14.396956690005027,165266.0,90032.0,5249.0
62861.346520334846,14.407045657550043,165294.0,90045.0,5281.0
62861.3566093024,14.417134625102335,165281.0,90027.0,5278.0
62861.36669826994,14.427223592647351,165274.0,90016.0,5263.0
62861.37678723749,14.437312560192368,165308.0,90037.0,5306.0
62861.38687620504,14.44740152774466,165269.0,90039.0,5297.0
62861.396965172586,14.457490495289676,165313.0,90052.0,5295.0
62861.40705414013,14.467579462834692,165290.0,90024.0,5271.0
62861.41714310768,14.477668430386984,165333.0,90066.0,5329.0
62861.42723207523,14.487757397932,165276.0,90016.0,5274.0
62861.43732104277,14.497846365477017,165332.0,90060.0,5296.0
62861.447410010325,14.507935333029309,165311.0,90036.0,5301.0
62861.45749897787,14.518024300574325,165328.0,90069.0,5313.0
62861.467587945415,14.528113268119341,165293.0,90046.0,5282.0
62861.47767691297,14.538202235671633,165307.0,90044.0,5301.0
62861.48776588051,14.54829120321665,165299.0,90023.0,5308.0
62861.49785484806,14.558380170761666,165261.0,90034.0,5260.0
62861.5079438156,14.568469138306682,165243.0,90041.0,5287.0
62861.518032783155,14.578558105858974,165189.0,90012.0,5259.0
62861.5281217507,14.58864707340399,165154.0,90031.0,5244.0
62861.538210718245,14.598736040949007,165118.0,90010.0,5226.0
62861.5482996858,14.608825008501299,165159.0,90015.0,5242.0
62861.55838865334,14.618913976046315,165107.0,89968.0,5212.0
62861.56847762089,14.629002943591331,165093.0,89986.0,5199.0
62861.57856658844,14.639091911143623,165107.0,89992.0,5225.0
62861.588655555985,14.64918087868864,165048.0,89958.0,5191.0
62861.59874452353,14.659269846233656,165071.0,89985.0,5199.0
62861.60883349108,14.669358813785948,165087.0,89995.0,5206.0
62861.61892245863,14.679447781330964,165083.0,89975.0,5188.0
62861.62901142617,14.68953674887598,165069.0,89991.0,5181.0
62861.639100393724,14.699625716428272,165085.0,89987.0,5218.0
62861.64918936127,14.709714683973289,165075.0,90000.0,5191.0
62861.659278328814,14.719803651518305,165066.0,89970.0,5183.0
62861.66936729637,14.729892619070597,165072.0,90007.0,5211.0
62861.67945626391,14.739981586615613,165095.0,89986.0,5195.0
62861.68954523146,14.75007055416063,165106.0,89970.0,5211.0
62861.699634199,14.760159521705646,165125.0,89997.0,5228.0
62861.709723166554,14.770248489257938,165096.0,89999.0,5239.0
62861.7198121341,14.780337456802954,165118.0,89969.0,5208.0
62861.729901101644,14.79042642434797,165135.0,89986.0,5224.0
62861.739990069196,14.800515391900262,165129.0,89982.0,5217.0
62861.75007903674,14.810604359445279,165106.0,89972.0,5202.0
62861.760168004286,14.820693326990295,165148.0,90028.0,5226.0
62861.77025697184,14.830782294542587,165117.0,89998.0,5213.0
62861.78034593938,14.840871262087603,165087.0,89997.0,5255.0
62861.79043490693,14.85096022963262,165122.0,90024.0,5218.0
62861.80052387448,14.861049197184911,165075.0,89987.0,5216.0
62861.810612842026,14.871138164729928,165083.0,89998.0,5214.0
62861.82070180957,14.881227132274944,165108.0,89980.0,5191.0
62861.83079077712,14.891316099827236,165099.0,89998.0,5212.0
62861.84087974467,14.901405067372252,165044.0,89965.0,5190.0
62861.85096871221,14.911494034917268,165074.0,89988.0,5196.0
62861.86105767976,14.921583002462285,165079.0,89968.0,5192.0
62861.87114664731,14.931671970014577,165073.0,89964.0,5185.0
62861.881235614856,14.941760937559593,165093.0,90002.0,5226.0
62861.8913245824,14.95184990510461,165090.0,89983.0,5207.0
62861.90141354995,14.961938872656901,165093.0,90035.0,5213.0
62861.9115025175,14.972027840201918,165066.0,89989.0,5204.0
62861.92159148504,14.982116807746934,165123.0,90014.0,5219.0
62861.931680452595,14.992205775299226,165119.0,90003.0,5210.0
62861.94176942014,15.002294742844242,165115.0,89970.0,5195.0
62861.951858387685,15.012383710389258,165160.0,90021.0,5234.0
62861.96194735524,15.02247267794155,165134.0,89982.0,5195.0
62861.97203632278,15.032561645486567,165146.0,89993.0,5218.0
62861.98212529033,15.042650613031583,165146.0,90001.0,5233.0
62861.99221425788,15.052739580583875,165156.0,89992.0,5224.0
62862.002303225425,15.062828548128891,165192.0,90032.0,5217.0
62862.01239219297,15.072917515673907,165183.0,90001.0,5250.0
62862.02248116052,15.0830064832262,165177.0,89992.0,5247.0
62862.03257012807,15.093095450771216,165178.0,89996.0,5257.0
62862.04265909561,15.103184418316232,165157.0,90019.0,5240.0
62862.05274806316,15.113273385861248,165210.0,90018.0,5253.0
62862.06283703071,15.12336235341354,165236.0,90002.0,5281.0
62862.072925998255,15.133451320958557,165234.0,90021.0,5241.0
62862.0830149658,15.143540288503573,165221.0,90032.0,5280.0
62862.09310393335,15.153629256055865,165193.0,90000.0,5249.0
62862.1031929009,15.163718223600881,165194.0,90021.0,5242.0
62862.11328186844,15.173807191145897,165237.0,89994.0,5269.0
62862.123370835994,15.18389615869819,165206.0,90003.0,5250.0
62862.13345980354,15.193985126243206,165251.0,90028.0,5280.0
62862.143548771084,15.204074093788222,165250.0,90026.0,5254.0
62862.15363773864,15.214163061340514,165247.0,89998.0,5275.0
62862.16372670618,15.22425202888553,165260.0,90053.0,5276.0
62862.17381567373,15.234340996430547,165237.0,90026.0,5254.0
62862.18390464128,15.244429963982839,165191.0,90014.0,5286.0
62862.193993608824,15.254518931527855,165218.0,90043.0,5279.0
62862.20408257637,15.264607899072871,165170.0,89991.0,5251.0
62862.214171543914,15.274696866617887,165139.0,90009.0,5246.0
62862.224260511466,15.28478583417018,165112.0,89975.0,5235.0
62862.23434947901,15.294874801715196,165088.0,90023.0,5232.0
62862.244438446556,15.304963769260212,165052.0,90002.0,5220.0
62862.25452741411,15.315052736812504,164995.0,89965.0,5184.0
62862.26461638165,15.32514170435752,164992.0,89948.0,5169.0
62862.2747053492,15.335230671902536,164972.0,89992.0,5181.0
62862.28479431675,15.345319639454829,164960.0,89935.0,5151.0
62862.294883284296,15.355408606999845,164915.0,89921.0,5156.0
62862.30497225184,15.365497574544861,164942.0,89949.0,5140.0
62862.31506121939,15.375586542097153,164925.0,89965.0,5134.0
62862.32515018694,15.38567550964217,164907.0,89942.0,5133.0
62862.33523915448,15.395764477187186,164900.0,89956.0,5141.0
62862.345328122035,15.405853444739478,164923.0,89952.0,5137.0
62862.35541708958,15.415942412284494,164941.0,89952.0,5146.0
62862.365506057125,15.42603137982951,164941.0,89973.0,5161.0
62862.37559502468,15.436120347381802,164907.0,89960.0,5145.0
62862.38568399222,15.446209314926818,164941.0,89947.0,5149.0
62862.39577295977,15.456298282471835,164932.0,89943.0,5131.0
62862.40586192731,15.46638725001685,164919.0,89932.0,5138.0
62862.415950894865,15.476476217569143,164969.0,89975.0,5160.0
62862.42603986241,15.48656518511416,164946.0,89960.0,5151.0
62862.436128829955,15.496654152659175,164948.0,89928.0,5131.0
62862.44621779751,15.506743120211468,164942.0,89919.0,5153.0
62862.45630676505,15.516832087756484,164981.0,89960.0,5153.0
62862.4663957326,15.5269210553015,164954.0,89956.0,5158.0
62862.47648470015,15.537010022853792,164935.0,89976.0,5168.0
62862.486573667695,15.547098990398808,164907.0,89961.0,5150.0
62862.49666263524,15.557187957943825,164935.0,89949.0,5185.0
62862.50675160279,15.567276925496117,164902.0,89948.0,5144.0
62862.51684057034,15.577365893041133,164899.0,89953.0,5120.0
62862.52692953788,15.58745486058615,164888.0,89910.0,5123.0
62862.537018505434,15.597543828138441,164911.0,89976.0,5139.0
62862.54710747298,15.607632795683458,164892.0,89940.0,5136.0
62862.557196440524,15.617721763228474,164879.0,89940.0,5132.0
62862.56728540808,15.627810730780766,164879.0,89934.0,5119.0
62862.57737437562,15.637899698325782,164904.0,89911.0,5142.0
62862.58746334317,15.647988665870798,164895.0,89952.0,5123.0
62862.59755231071,15.658077633415814,164899.0,89926.0,5121.0
62862.607641278264,15.668166600968107,164903.0,89949.0,5151.0
62862.61773024581,15.678255568513123,164910.0,89940.0,5118.0
62862.627819213354,15.688344536058139,164914.0,89943.0,5126.0
62862.63790818091,15.698433503610431,164931.0,89929.0,5127.0
62862.64799714845,15.708522471155447,164963.0,89961.0,5120.0
62862.658086116,15.718611438700464,164953.0,89952.0,5162.0
62862.66817508355,15.728700406252756,164963.0,89970.0,5155.0
62862.678264051094,15.738789373797772,164934.0,89953.0,5136.0
62862.68835301864,15.748878341342788,164963.0,89968.0,5139.0
62862.69844198619,15.75896730889508,165017.0,89992.0,5195.0
62862.708530953736,15.769056276440097,165009.0,89962.0,5169.0
62862.71861992128,15.779145243985113,165009.0,89972.0,5141.0
62862.72870888883,15.789234211537405,165038.0,89986.0,5190.0
62862.73879785638,15.799323179082421,165048.0,90002.0,5200.0
62862.74888682392,15.809412146627437,165034.0,89966.0,5183.0
62862.75897579147,15.819501114172454,165023.0,89976.0,5187.0
62862.76906475902,15.829590081724746,165045.0,89986.0,5184.0
62862.779153726566,15.839679049269762,165011.0,89970.0,5197.0
62862.78924269411,15.849768016814778,165040.0,89975.0,5214.0
62862.79933166166,15.85985698436707,165054.0,90007.0,5192.0
62862.80942062921,15.869945951912086,165028.0,89978.0,5187.0
62862.81950959675,15.880034919457103,165036.0,90015.0,5178.0
62862.829598564305,15.890123887009395,165040.0,89988.0,5198.0
62862.83968753185,15.900212854554411,165052.0,89961.0,5197.0
62862.849776499395,15.910301822099427,165038.0,89962.0,5181.0
62862.85986546695,15.92039078965172,165055.0,90006.0,5202.0
62862.86995443449,15.930479757196736,165092.0,90002.0,5221.0
62862.88004340204,15.940568724741752,165075.0,90024.0,5204.0
62862.89013236959,15.950657692294044,165066.0,89985.0,5205.0
62862.900221337135,15.96074665983906,165029.0,90006.0,5177.0
62862.91031030468,15.970835627384076,165053.0,89994.0,5181.0
62862.92039927223,15.980924594936369,165023.0,89974.0,5200.0
62862.93048823978,15.991013562481385,164995.0,89959.0,5236.0
62862.94057720732,16.0011025300264,164973.0,89958.0,5160.0
62862.95066617487,16.011191497571417,164944.0,89977.0,5180.0
62862.96075514242,16.02128046512371,164890.0,89944.0,5144.0
62862.970844109965,16.031369432668725,164866.0,89953.0,5150.0
62862.98093307751,16.04145840021374,164838.0,89948.0,5100.0
62862.99102204506,16.051547367766034,164796.0,89908.0,5071.0
62863.00111101261,16.06163633531105,164770.0,89915.0,5080.0
62863.01119998015,16.071725302856066,164740.0,89893.0,5063.0
62863.021288947704,16.08181427040836,164755.0,89886.0,5094.0
62863.03137791525,16.091903237953375,164726.0,89910.0,5085.0
62863.041466882794,16.10199220549839,164715.0,89897.0,5060.0
62863.05155585035,16.112081173050683,164702.0,89883.0,5059.0
62863.06164481789,16.1221701405957,164728.0,89929.0,5069.0
62863.07173378544,16.132259108140715,164668.0,89881.0,5037.0
62863.08182275299,16.142348075693008,164701.0,89902.0,5036.0
62863.091911720534,16.152437043238024,164665.0,89877.0,5041.0
62863.10200068808,16.16252601078304,164675.0,89856.0,5043.0
62863.11208965563,16.172614978335332,164669.0,89861.0,5054.0
62863.122178623176,16.18270394588035,164672.0,89894.0,5038.0
62863.13226759072,16.192792913425365,164661.0,89904.0,5045.0
62863.142356558266,16.20288188097038,164687.0,89895.0,5054.0
62863.15244552582,16.212970848522673,164662.0,89889.0,4991.0
62863.16253449336,16.22305981606769,164653.0,89884.0,5028.0
62863.17262346091,16.233148783612705,164637.0,89889.0,5025.0
62863.18271242846,16.243237751164997,164635.0,89869.0,5042.0
62863.192801396006,16.253326718710014,164615.0,89888.0,5035.0
62863.20289036355,16.26341568625503,164660.0,89897.0,5028.0
62863.2129793311,16.273504653807322,164621.0,89870.0,5019.0
62863.22306829865,16.28359362135234,164621.0,89887.0,4990.0
62863.23315726619,16.293682588897354,164643.0,89900.0,5031.0
62863.243246233746,16.303771556449647,164630.0,89877.0,5022.0
62863.25333520129,16.313860523994663,164641.0,89871.0,5026.0
62863.263424168836,16.32394949153968,164596.0,89888.0,5023.0
62863.27351313639,16.33403845909197,164593.0,89872.0,5006.0
62863.28360210393,16.344127426636987,164623.0,89880.0,5009.0
62863.29369107148,16.354216394182004,164625.0,89877.0,5001.0
62863.30378003902,16.36430536172702,164614.0,89889.0,5014.0
62863.313869006575,16.374394329279312,164582.0,89875.0,4988.0
62863.32395797412,16.384483296824328,164609.0,89883.0,5022.0
62863.334046941665,16.394572264369344,164637.0,89877.0,4991.0
62863.34413590922,16.404661231921636,164609.0,89887.0,5009.0
62863.35422487676,16.414750199466653,164668.0,89912.0,5007.0
62863.36431384431,16.42483916701167,164654.0,89888.0,5025.0
62863.37440281186,16.43492813456396,164671.0,89914.0,5025.0
62863.384491779405,16.445017102108977,164649.0,89890.0,5007.0
62863.39458074695,16.455106069653993,164682.0,89910.0,5067.0
62863.4046697145,16.465195037206286,164657.0,89895.0,5028.0
62863.41475868205,16.475284004751302,164664.0,89865.0,5034.0
62863.42484764959,16.485372972296318,164702.0,89895.0,5009.0
62863.434936617145,16.49546193984861,164699.0,89895.0,5059.0
62863.44502558469,16.505550907393626,164681.0,89905.0,5036.0
62863.455114552235,16.515639874938643,164694.0,89906.0,5037.0
62863.46520351979,16.525728842490935,164729.0,89883.0,5059.0
62863.47529248733,16.53581781003595,164749.0,89941.0,5093.0
62863.48538145488,16.545906777580967,164730.0,89944.0,5075.0
62863.49547042242,16.555995745125983,164744.0,89933.0,5061.0
62863.505559389974,16.566084712678276,164732.0,89899.0,5071.0
62863.51564835752,16.57617368022329,164769.0,89944.0,5085.0
62863.525737325064,16.586262647768308,164739.0,89903.0,5062.0
62863.53582629262,16.5963516153206,164756.0,89929.0,5070.0
62863.54591526016,16.606440582865616,164748.0,89914.0,5071.0
62863.55600422771,16.616529550410633,164741.0,89904.0,5087.0
62863.56609319526,16.626618517962925,164683.0,89920.0,5042.0
62863.576182162804,16.63670748550794,164761.0,89928.0,5071.0
62863.58627113035,16.646796453052957,164791.0,89931.0,5092.0
62863.5963600979,16.65688542060525,164753.0,89921.0,5092.0
62863.606449065446,16.666974388150265,164806.0,89948.0,5092.0
62863.61653803299,16.67706335569528,164809.0,89937.0,5086.0
62863.62662700054,16.687152323247574,164766.0,89933.0,5109.0
62863.63671596809,16.69724129079259,164797.0,89967.0,5106.0
62863.64680493563,16.707330258337606,164838.0,89934.0,5108.0
62863.656893903186,16.7174192258899,164834.0,89968.0,5097.0
62863.66698287073,16.727508193434915,164810.0,89960.0,5107.0
62863.677071838276,16.73759716097993,164803.0,89942.0,5085.0
62863.68716080582,16.747686128524947,164810.0,89926.0,5108.0
62863.69724977337,16.75777509607724,164826.0,89954.0,5096.0
62863.70733874092,16.767864063622255,164754.0,89972.0,5099.0
62863.71742770846,16.77795303116727,164752.0,89920.0,5095.0
62863.727516676016,16.788041998719564,164741.0,89925.0,5061.0
62863.73760564356,16.79813096626458,164699.0,89929.0,5076.0
62863.747694611106,16.808219933809596,164662.0,89935.0,5073.0
62863.75778357866,16.81830890136189,164632.0,89920.0,5042.0
62863.7678725462,16.828397868906904,164597.0,89885.0,5040.0
62863.77796151375,16.83848683645192,164565.0,89886.0,5008.0
62863.7880504813,16.848575804004213,164530.0,89882.0,4978.0
62863.798139448845,16.85866477154923,164517.0,89880.0,4948.0
62863.80822841639,16.868753739094245,164486.0,89871.0,5004.0
62863.81831738394,16.878842706646537,164490.0,89863.0,4966.0
62863.82840635149,16.888931674191554,164483.0,89851.0,4952.0
62863.83849531903,16.89902064173657,164449.0,89849.0,4945.0
62863.84858428658,16.909109609281586,164418.0,89845.0,4937.0
62863.85867325413,16.919198576833878,164461.0,89858.0,4960.0
62863.868762221675,16.929287544378894,164475.0,89887.0,4934.0
62863.87885118922,16.93937651192391,164425.0,89867.0,4939.0
62863.88894015677,16.949465479476203,164432.0,89883.0,4951.0
62863.89902912432,16.95955444702122,164426.0,89856.0,4964.0
62863.90911809186,16.969643414566235,164443.0,89835.0,4960.0
62863.919207059414,16.979732382118527,164398.0,89830.0,4940.0
62863.92929602696,16.989821349663544,164453.0,89870.0,4962.0
62863.939384994505,16.99991031720856,164428.0,89857.0,4924.0
62863.94947396206,17.009999284760852,164409.0,89838.0,4979.0
62863.9595629296,17.020088252305868,164418.0,89862.0,5001.0
62863.96965189715,17.030177219850884,164392.0,89824.0,4938.0
62863.9797408647,17.040266187403176,164416.0,89846.0,4942.0
62863.989829832244,17.050355154948193,164411.0,89833.0,4965.0
62863.99991879979,17.06044412249321,164423.0,89870.0,4965.0
62864.01000776734,17.0705330900455,164376.0,89860.0,4924.0
62864.02009673489,17.080622057590517,164425.0,89852.0,4974.0
62864.03018570243,17.090711025135533,164395.0,89867.0,4949.0
62864.04027466998,17.10079999268055,164383.0,89836.0,4929.0
62864.05036363753,17.110888960232842,164419.0,89872.0,4960.0
62864.060452605074,17.120977927777858,164368.0,89847.0,4954.0
62864.07054157262,17.131066895322874,164404.0,89862.0,4945.0
62864.08063054017,17.141155862875166,164372.0,89845.0,4927.0
62864.090719507716,17.151244830420183,164400.0,89855.0,4934.0
62864.10080847526,17.1613337979652,164381.0,89838.0,4914.0
62864.11089744281,17.17142276551749,164418.0,89867.0,4952.0
62864.12098641036,17.181511733062507,164421.0,89879.0,4954.0
62864.1310753779,17.191600700607523,164407.0,89849.0,4949.0
62864.141164345456,17.201689668159815,164419.0,89887.0,4953.0
62864.151253313,17.21177863570483,164453.0,89879.0,4959.0
62864.161342280546,17.221867603249848,164481.0,89871.0,4955.0
62864.1714312481,17.23195657080214,164469.0,89887.0,4946.0
62864.18152021564,17.242045538347156,164478.0,89893.0,4944.0
62864.19160918319,17.252134505892172,164481.0,89899.0,4976.0
62864.20169815074,17.262223473444465,164479.0,89865.0,4975.0
62864.211787118285,17.27231244098948,164517.0,89918.0,5004.0
62864.22187608583,17.282401408534497,164477.0,89881.0,4963.0
62864.231965053375,17.292490376079513,164535.0,89927.0,4968.0
62864.24205402093,17.302579343631805,164515.0,89912.0,4976.0
62864.25214298847,17.31266831117682,164515.0,89880.0,5022.0
62864.26223195602,17.322757278721838,164532.0,89908.0,4989.0
62864.27232092357,17.33284624627413,164548.0,89913.0,5005.0
62864.282409891115,17.342935213819146,164568.0,89936.0,5014.0
62864.29249885866,17.353024181364162,164531.0,89901.0,4987.0
62864.30258782621,17.363113148916455,164571.0,89929.0,4988.0
62864.31267679376,17.37320211646147,164567.0,89921.0,5015.0
62864.3227657613,17.383291084006487,164577.0,89899.0,5046.0
62864.332854728855,17.39338005155878,164578.0,89916.0,5009.0
62864.3429436964,17.403469019103795,164603.0,89925.0,5034.0
62864.353032663945,17.41355798664881,164603.0,89922.0,5012.0
62864.3631216315,17.423646954201104,164558.0,89910.0,5020.0
62864.37321059904,17.43373592174612,164574.0,89899.0,5032.0
62864.38329956659,17.443824889291136,164592.0,89916.0,5016.0
62864.39338853413,17.453913856836152,164610.0,89936.0,5037.0
62864.403477501684,17.464002824388444,164640.0,89943.0,5053.0
62864.41356646923,17.47409179193346,164603.0,89915.0,5029.0
62864.423655436774,17.484180759478477,164625.0,89921.0,5022.0
62864.43374440433,17.49426972703077,164659.0,89948.0,5036.0
62864.44383337187,17.504358694575785,164698.0,89967.0,5071.0
62864.45392233942,17.5144476621208,164643.0,89952.0,5023.0
62864.46401130697,17.524536629673094,164690.0,89968.0,5056.0
62864.474100274514,17.53462559721811,164681.0,89947.0,5057.0
62864.48418924206,17.544714564763126,164666.0,89942.0,5060.0
62864.49427820961,17.554803532315418,164737.0,89972.0,5072.0
62864.50436717716,17.564892499860434,164680.0,89949.0,5084.0
62864.5144561447,17.57498146740545,164702.0,89956.0,5052.0
62864.524545112254,17.585070434957743,164704.0,89970.0,5097.0
62864.5346340798,17.59515940250276,164768.0,89989.0,5094.0
62864.544723047344,17.605248370047775,164715.0,89955.0,5094.0
62864.554812014896,17.615337337600067,164758.0,89973.0,5103.0
62864.56490098244,17.625426305145083,164755.0,89991.0,5094.0
62864.574989949986,17.6355152726901,164756.0,89977.0,5093.0
62864.58507891753,17.645604240235116,164721.0,89967.0,5085.0
62864.59516788508,17.655693207787408,164697.0,89980.0,5085.0
62864.60525685263,17.665782175332424,164700.0,89944.0,5066.0
62864.61534582017,17.67587114287744,164663.0,89949.0,5061.0
62864.625434787726,17.685960110429733,164650.0,89950.0,5071.0
62864.63552375527,17.69604907797475,164552.0,89939.0,5010.0
62864.645612722816,17.706138045519765,164553.0,89931.0,5021.0
62864.65570169037,17.716227013072057,164512.0,89940.0,5012.0
62864.66579065791,17.726315980617073,164507.0,89906.0,5015.0
62864.67587962546,17.73640494816209,164489.0,89932.0,4962.0
62864.68596859301,17.74649391571438,164456.0,89905.0,4965.0
62864.696057560555,17.756582883259398,164426.0,89887.0,5004.0
62864.7061465281,17.766671850804414,164403.0,89867.0,4930.0
62864.71623549565,17.776760818356706,164398.0,89909.0,4962.0
62864.7263244632,17.786849785901722,164415.0,89882.0,4949.0
62864.73641343074,17.79693875344674,164422.0,89887.0,4948.0
62864.74650239829,17.807027720991755,164448.0,89925.0,4954.0
62864.75659136584,17.817116688544047,164406.0,89878.0,4980.0
62864.766680333385,17.827205656089063,164391.0,89872.0,4942.0
62864.77676930093,17.83729462363408,164420.0,89904.0,4968.0
62864.78685826848,17.84738359118637,164412.0,89909.0,4967.0
62864.79694723603,17.857472558731388,164401.0,89868.0,4940.0
62864.80703620357,17.867561526276404,164416.0,89898.0,4951.0
62864.817125171125,17.877650493828696,164420.0,89899.0,4932.0
62864.82721413867,17.887739461373712,164375.0,89883.0,4959.0
62864.837303106215,17.89782842891873,164405.0,89885.0,4947.0
62864.84739207377,17.90791739647102,164403.0,89882.0,4959.0
62864.85748104131,17.918006364016037,164418.0,89884.0,4959.0
62864.86757000886,17.928095331561053,164371.0,89875.0,4932.0
62864.87765897641,17.938184299113345,164388.0,89886.0,4963.0
62864.887747943954,17.94827326665836,164406.0,89892.0,4958.0
62864.8978369115,17.958362234203378,164361.0,89877.0,4932.0
62864.90792587905,17.96845120175567,164386.0,89912.0,4953.0
62864.9180148466,17.978540169300686,164384.0,89873.0,4957.0
62864.92810381414,17.988629136845702,164384.0,89882.0,4947.0
62864.93819278169,17.99871810439072,164392.0,89879.0,4934.0
62864.94828174924,18.00880707194301,164398.0,89917.0,4951.0
62864.958370716784,18.018896039488027,164353.0,89893.0,4924.0
62864.96845968433,18.028985007033043,164390.0,89890.0,4943.0
62864.97854865188,18.039073974585335,164390.0,89879.0,4954.0
62864.988637619426,18.04916294213035,164372.0,89876.0,4942.0
62864.99872658697,18.059251909675368,164403.0,89869.0,4951.0
62865.00881555452,18.06934087722766,164409.0,89903.0,4955.0
62865.01890452207,18.079429844772676,164402.0,89930.0,4975.0
62865.028993489614,18.089518812317692,164392.0,89914.0,4941.0
62865.039082457166,18.099607779869984,164446.0,89938.0,4985.0
62865.04917142471,18.109696747415,164438.0,89907.0,4964.0
62865.059260392256,18.119785714960017,164422.0,89897.0,4977.0
62865.06934935981,18.12987468251231,164481.0,89897.0,4970.0
62865.07943832735,18.139963650057325,164453.0,89912.0,4958.0
62865.0895272949,18.15005261760234,164488.0,89926.0,4968.0
62865.09961626245,18.160141585154634,164470.0,89929.0,5001.0
62865.109705229996,18.17023055269965,164483.0,89944.0,4967.0
62865.11979419754,18.180319520244666,164500.0,89910.0,4994.0
62865.129883165086,18.190408487789682,164514.0,89936.0,5001.0
62865.13997213264,18.200497455341974,164505.0,89929.0,5001.0
62865.15006110018,18.21058642288699,164518.0,89925.0,5000.0
62865.16015006773,18.220675390432007,164529.0,89951.0,4985.0
62865.17023903528,18.2307643579843,164571.0,89950.0,5046.0
62865.180328002825,18.240853325529315,164555.0,89972.0,5013.0
62865.19041697037,18.25094229307433,164561.0,89964.0,4991.0
62865.20050593792,18.261031260626623,164569.0,89948.0,5044.0
62865.21059490547,18.27112022817164,164562.0,89942.0,5002.0
62865.22068387301,18.281209195716656,164581.0,89956.0,5009.0
62865.230772840565,18.291298163268948,164617.0,89935.0,5023.0
62865.24086180811,18.301387130813964,164590.0,89944.0,5018.0
62865.250950775655,18.31147609835898,164601.0,89961.0,5020.0
62865.26103974321,18.321565065911273,164616.0,89964.0,5028.0
62865.27112871075,18.33165403345629,164616.0,89967.0,5061.0
62865.2812176783,18.341743001001305,164622.0,89962.0,5046.0
62865.29130664584,18.35183196854632,164640.0,89978.0,5059.0
62865.301395613395,18.361920936098613,164605.0,89963.0,5036.0
62865.31148458094,18.37200990364363,164631.0,89954.0,5023.0
62865.321573548485,18.382098871188646,164656.0,89964.0,5042.0
62865.33166251604,18.392187838740938,164657.0,90003.0,5070.0
62865.34175148358,18.402276806285954,164671.0,89984.0,5056.0
62865.35184045113,18.41236577383097,164660.0,89960.0,5063.0
62865.36192941868,18.422454741383262,164693.0,90006.0,5086.0
62865.372018386224,18.43254370892828,164693.0,89957.0,5043.0
62865.38210735377,18.442632676473295,164716.0,89998.0,5072.0
62865.39219632132,18.452721644025587,164706.0,90007.0,5090.0
62865.40228528887,18.462810611570603,164715.0,89996.0,5065.0
62865.41237425641,18.47289957911562,164778.0,90032.0,5100.0
62865.422463223964,18.48298854666791,164754.0,90018.0,5082.0
62865.43255219151,18.493077514212928,164741.0,89997.0,5074.0
62865.442641159054,18.503166481757944,164757.0,89990.0,5098.0
62865.452730126606,18.513255449310236,164803.0,90011.0,5109.0
62865.46281909415,18.523344416855252,164796.0,90020.0,5103.0
62865.472908061696,18.53343338440027,164786.0,89993.0,5127.0
62865.48299702924,18.543522351945285,164809.0,90021.0,5098.0
62865.49308599679,18.553611319497577,164787.0,90003.0,5109.0
62865.50317496434,18.563700287042593,164772.0,90005.0,5096.0
62865.51326393188,18.57378925458761,164736.0,90019.0,5116.0
62865.523352899436,18.5838782221399,164727.0,90023.0,5105.0
62865.53344186698,18.593967189684918,164659.0,89971.0,5047.0
62865.543530834526,18.604056157229934,164646.0,89982.0,5055.0
62865.55361980208,18.614145124782226,164629.0,89965.0,5060.0
62865.56370876962,18.624234092327242,164561.0,89921.0,5021.0
62865.57379773717,18.63432305987226,164540.0,89932.0,5011.0
62865.58388670472,18.64441202742455,164514.0,89942.0,4998.0
62865.593975672266,18.654500994969567,164479.0,89917.0,4986.0
62865.60406463981,18.664589962514583,164475.0,89922.0,4972.0
62865.61415360736,18.674678930066875,164487.0,89951.0,5004.0
62865.62424257491,18.68476789761189,164492.0,89926.0,4979.0
62865.63433154245,18.694856865156908,164446.0,89907.0,4967.0
62865.644420510005,18.7049458327092,164494.0,89939.0,4978.0
62865.65450947755,18.715034800254216,164445.0,89918.0,4976.0
62865.664598445095,18.725123767799232,164482.0,89932.0,4968.0
62865.67468741264,18.73521273534425,164432.0,89923.0,4992.0
62865.68477638019,18.74530170289654,164479.0,89938.0,4971.0
62865.69486534774,18.755390670441557,164473.0,89939.0,4966.0
62865.70495431528,18.765479637986573,164473.0,89944.0,4959.0
62865.715043282835,18.775568605538865,164471.0,89925.0,5012.0
62865.72513225038,18.78565757308388,164463.0,89923.0,4974.0
62865.735221217925,18.795746540628897,164480.0,89940.0,4980.0
62865.74531018548,18.80583550818119,164472.0,89949.0,4975.0
62865.75539915302,18.815924475726206,164499.0,89915.0,4982.0
62865.76548812057,18.826013443271222,164504.0,89928.0,4997.0
62865.77557708812,18.836102410823514,164508.0,89952.0,5012.0
62865.785666055664,18.84619137836853,164486.0,89961.0,5008.0
62865.79575502321,18.856280345913547,164481.0,89945.0,4982.0
62865.80584399076,18.86636931346584,164494.0,89930.0,4990.0
62865.81593295831,18.876458281010855,164469.0,89924.0,4985.0
62865.82602192585,18.88654724855587,164467.0,89944.0,4957.0
62865.8361108934,18.896636216100887,164476.0,89954.0,5000.0
62865.84619986095,18.90672518365318,164457.0,89938.0,5001.0
62865.856288828494,18.916814151198196,164485.0,89966.0,5000.0
62865.86637779604,18.926903118743212,164431.0,89947.0,4968.0
62865.87646676359,18.936992086295504,164476.0,89941.0,4985.0
62865.88655573114,18.94708105384052,164504.0,89940.0,4991.0
62865.89664469868,18.957170021385537,164488.0,89969.0,5001.0
62865.906733666234,18.96725898893783,164473.0,89928.0,4980.0
62865.91682263378,18.977347956482845,164507.0,89949.0,4979.0
62865.926911601324,18.98743692402786,164533.0,89959.0,5012.0
62865.937000568876,18.997525891580153,164526.0,89994.0,5008.0
62865.94708953642,19.00761485912517,164534.0,89961.0,5004.0
62865.957178503966,19.017703826670186,164542.0,89967.0,5008.0
62865.96726747152,19.027792794222478,164562.0,89938.0,5027.0
62865.97735643906,19.037881761767494,164581.0,89981.0,5017.0
62865.98744540661,19.04797072931251,164586.0,89992.0,5032.0
62865.99753437416,19.058059696864802,164588.0,89977.0,5015.0
62866.007623341706,19.06814866440982,164574.0,89962.0,5022.0
62866.01771230925,19.078237631954835,164622.0,89981.0,5027.0
62866.027801276796,19.08832659949985,164614.0,89973.0,5038.0
62866.03789024435,19.098415567052143,164638.0,90000.0,5045.0
62866.04797921189,19.10850453459716,164630.0,89988.0,5055.0
62866.05806817944,19.118593502142176,164682.0,89993.0,5044.0
62866.06815714699,19.128682469694468,164681.0,89996.0,5071.0
62866.078246114535,19.138771437239484,164672.0,90006.0,5049.0
62866.08833508208,19.1488604047845,164647.0,89989.0,5049.0
62866.09842404963,19.158949372336792,164672.0,90023.0,5034.0
62866.10851301718,19.16903833988181,164638.0,90005.0,5056.0
62866.11860198472,19.179127307426825,164695.0,89992.0,5056.0
62866.128690952275,19.189216274979117,164734.0,90003.0,5075.0
62866.13877991982,19.199305242524133,164715.0,89987.0,5076.0
62866.148868887365,19.20939421006915,164687.0,89983.0,5051.0
62866.15895785492,19.21948317762144,164732.0,90021.0,5064.0
62866.16904682246,19.229572145166458,164750.0,90036.0,5073.0
62866.17913579001,19.239661112711474,164707.0,90010.0,5050.0
62866.18922475756,19.249750080263766,164751.0,90051.0,5087.0
62866.199313725105,19.259839047808782,164771.0,90024.0,5089.0
62866.20940269265,19.2699280153538,164761.0,90031.0,5071.0
62866.219491660195,19.280016982898815,164804.0,90058.0,5104.0
62866.22958062775,19.290105950451107,164800.0,90062.0,5109.0
62866.23966959529,19.300194917996123,164770.0,90027.0,5050.0
62866.24975856284,19.31028388554114,164771.0,90013.0,5126.0
62866.25984753039,19.32037285309343,164824.0,90055.0,5113.0
62866.269936497934,19.330461820638448,164817.0,90011.0,5110.0
62866.28002546548,19.340550788183464,164830.0,90045.0,5103.0
62866.29011443303,19.350639755735756,164864.0,90031.0,5121.0
62866.30020340058,19.360728723280772,164874.0,90040.0,5136.0
62866.31029236812,19.37081769082579,164881.0,90076.0,5159.0
62866.320381335674,19.38090665837808,164841.0,90047.0,5106.0
62866.33047030322,19.390995625923097,164888.0,90026.0,5127.0
62866.340559270764,19.401084593468113,164884.0,90033.0,5127.0
62866.350648238316,19.411173561020405,164925.0,90055.0,5145.0
62866.36073720586,19.42126252856542,164924.0,90063.0,5165.0
62866.37082617341,19.431351496110437,164942.0,90082.0,5139.0
62866.38091514095,19.441440463655454,164916.0,90060.0,5154.0
62866.391004108504,19.451529431207746,164968.0,90081.0,5189.0
62866.40109307605,19.461618398752762,164974.0,90096.0,5163.0
62866.411182043594,19.471707366297778,164959.0,90065.0,5157.0
62866.421271011146,19.48179633385007,164936.0,90075.0,5157.0
62866.43135997869,19.491885301395087,164894.0,90077.0,5152.0
62866.441448946236,19.501974268940103,164850.0,90064.0,5147.0
62866.45153791379,19.512063236492395,164856.0,90037.0,5137.0
62866.46162688133,19.52215220403741,164804.0,90036.0,5147.0
62866.47171584888,19.532241171582427,164782.0,90035.0,5091.0
62866.48180481643,19.54233013913472,164757.0,90039.0,5114.0
62866.491893783976,19.552419106679736,164719.0,90017.0,5077.0
62866.50198275152,19.562508074224752,164637.0,89984.0,5056.0
62866.51207171907,19.572597041777044,164664.0,90025.0,5078.0
62866.52216068662,19.58268600932206,164646.0,89994.0,5056.0
62866.53224965416,19.592774976867076,164644.0,89993.0,5051.0
62866.542338621715,19.60286394441937,164668.0,90020.0,5045.0
62866.55242758926,19.612952911964385,164647.0,90019.0,5053.0
62866.562516556805,19.6230418795094,164637.0,89981.0,5027.0
62866.57260552435,19.633130847054417,164643.0,89998.0,5035.0
62866.5826944919,19.64321981460671,164648.0,90022.0,5043.0
62866.59278345945,19.653308782151726,164605.0,89974.0,5019.0
62866.60287242699,19.663397749696742,164610.0,89966.0,5039.0
62866.612961394545,19.673486717249034,164656.0,89999.0,5037.0
62866.62305036209,19.68357568479405,164633.0,89986.0,5023.0
62866.633139329635,19.693664652339066,164648.0,89979.0,5055.0
62866.64322829719,19.70375361989136,164669.0,90023.0,5060.0
62866.65331726473,19.713842587436375,164654.0,89991.0,5051.0
62866.66340623228,19.72393155498139,164664.0,90002.0,5036.0
62866.67349519983,19.734020522533683,164670.0,90031.0,5062.0
62866.683584167375,19.7441094900787,164640.0,90007.0,5034.0
62866.69367313492,19.754198457623716,164670.0,90000.0,5047.0
62866.70376210247,19.764287425176008,164703.0,89997.0,5038.0
62866.71385107002,19.774376392721024,164655.0,90007.0,5030.0
62866.72394003756,19.78446536026604,164672.0,89979.0,5076.0
62866.73402900511,19.794554327811056,164659.0,90000.0,5053.0
62866.74411797266,19.80464329536335,164665.0,89995.0,5056.0
62866.754206940204,19.814732262908365,164626.0,89988.0,5021.0
62866.76429590775,19.82482123045338,164665.0,90013.0,5040.0
62866.7743848753,19.834910198005673,164632.0,89980.0,5052.0
62866.78447384285,19.84499916555069,164624.0,89954.0,5027.0
62866.79456281039,19.855088133095705,164644.0,89984.0,5042.0
62866.804651777944,19.865177100647998,164635.0,89982.0,5041.0
62866.81474074549,19.875266068193014,164649.0,90004.0,5052.0
62866.824829713034,19.88535503573803,164656.0,90016.0,5052.0
62866.834918680586,19.895444003290322,164681.0,90011.0,5055.0
62866.84500764813,19.90553297083534,164677.0,90017.0,5016.0
62866.855096615676,19.915621938380355,164686.0,90004.0,5073.0
62866.86518558323,19.925710905932647,164676.0,89981.0,5056.0
