timestamp,time_from_start_sec,PPG_1,PPG_2,PPG_3
62847.05090659135,0.0,154234.0,86570.0,4007.0
62847.061000459405,0.010093868055264466,154229.0,86579.0,3984.0
62847.07109432746,0.02018773611052893,154218.0,86551.0,3971.0
62847.08118819552,0.030281604173069354,154214.0,86547.0,3978.0
62847.09128206358,0.04037547222833382,154260.0,86576.0,4006.0
62847.101375931634,0.050469340283598285,154214.0,86518.0,3963.0
62847.11146979969,0.06056320833886275,154248.0,86564.0,3977.0
62847.12156366775,0.07065707640140317,154226.0,86576.0,3965.0
62847.13165753581,0.08075094445666764,154239.0,86568.0,3989.0
62847.14175140386,0.0908448125119321,154195.0,86539.0,3945.0
62847.15184527192,0.10093868056719657,154183.0,86539.0,3968.0
62847.16193913998,0.111032548629737,154129.0,86554.0,3978.0
62847.172033008035,0.12112641668500146,154094.0,86509.0,3964.0
62847.18212687609,0.13122028474026592,154105.0,86551.0,3988.0
62847.192220744146,0.1413141527955304,154067.0,86525.0,3947.0
62847.20231461221,0.1514080208580708,154038.0,86499.0,3932.0
62847.21240848026,0.16150188891333528,154053.0,86510.0,3935.0
62847.22250234832,0.17159575696859974,154027.0,86481.0,3944.0
62847.232596216374,0.1816896250238642,154038.0,86498.0,3947.0
62847.24269008443,0.19178349307912868,154000.0,86481.0,3922.0
62847.25278395249,0.2018773611416691,154047.0,86524.0,3968.0
62847.26287782055,0.21197122919693356,154017.0,86498.0,3910.0
62847.2729716886,0.22206509725219803,154040.0,86504.0,3937.0
62847.28306555666,0.2321589653074625,154077.0,86534.0,3911.0
62847.29315942472,0.24225283337000292,154041.0,86490.0,3949.0
62847.303253292775,0.2523467014252674,154058.0,86509.0,3943.0
62847.31334716083,0.26244056948053185,154068.0,86512.0,3937.0
62847.323441028886,0.2725344375357963,154082.0,86542.0,3948.0
62847.33353489695,0.28262830559833674,154034.0,86496.0,3928.0
62847.343628765004,0.2927221736536012,154093.0,86530.0,3933.0
62847.35372263306,0.30281604170886567,154083.0,86511.0,3921.0
62847.363816501114,0.31290990976413013,154091.0,86496.0,3971.0
62847.37391036918,0.32300377782667056,154096.0,86526.0,3939.0
62847.38400423723,0.333097645881935,154063.0,86500.0,3952.0
62847.39409810529,0.3431915139371995,154095.0,86517.0,3943.0
62847.40419197334,0.35328538199246395,154101.0,86503.0,3944.0
62847.4142858414,0.3633792500477284,154103.0,86540.0,3935.0
62847.42437970946,0.37347311811026884,154104.0,86487.0,3936.0
62847.434473577516,0.3835669861655333,154100.0,86525.0,3949.0
62847.44456744557,0.3936608542207978,154106.0,86549.0,3960.0
62847.454661313626,0.40375472227606224,154079.0,86490.0,3933.0
62847.46475518169,0.41384859033860266,154065.0,86483.0,3934.0
62847.474849049744,0.4239424583938671,154050.0,86486.0,3931.0
62847.4849429178,0.4340363264491316,154067.0,86518.0,3935.0
62847.495036785855,0.44413019450439606,154074.0,86493.0,3953.0
62847.50513065392,0.4542240625669365,154111.0,86524.0,3953.0
62847.51522452197,0.46431793062220095,154091.0,86504.0,3947.0
62847.52531839003,0.4744117986774654,154086.0,86519.0,3952.0
62847.53541225808,0.4845056667327299,154072.0,86488.0,3939.0
62847.54550612614,0.49459953478799434,154064.0,86501.0,3951.0
62847.5555999942,0.5046934028505348,154076.0,86533.0,3949.0
62847.565693862256,0.5147872709057992,154108.0,86532.0,3933.0
62847.57578773031,0.5248811389610637,154119.0,86498.0,3955.0
62847.58588159837,0.5349750070163282,154083.0,86510.0,3930.0
62847.59597546643,0.5450688750788686,154129.0,86521.0,3968.0
62847.606069334484,0.555162743134133,154112.0,86521.0,3948.0
62847.61616320254,0.5652566111893975,154111.0,86544.0,3962.0
62847.626257070595,0.575350479244662,154150.0,86542.0,3974.0
62847.63635093866,0.5854443473072024,154160.0,86524.0,3974.0
62847.64644480671,0.5955382153624669,154143.0,86525.0,3960.0
62847.65653867477,0.6056320834177313,154120.0,86515.0,3944.0
62847.66663254282,0.6157259514729958,154177.0,86526.0,3963.0
62847.676726410886,0.6258198195355362,154142.0,86545.0,3964.0
62847.68682027894,0.6359136875908007,154165.0,86536.0,3955.0
62847.696914146996,0.6460075556460652,154176.0,86542.0,3956.0
62847.70700801505,0.6561014237013296,154134.0,86521.0,3934.0
62847.71710188311,0.6661952917565941,154163.0,86490.0,3944.0
62847.72719575117,0.6762891598191345,154175.0,86545.0,3967.0
62847.737289619225,0.686383027874399,154166.0,86555.0,3972.0
62847.74738348728,0.6964768959296634,154156.0,86513.0,3954.0
62847.757477355335,0.7065707639849279,154204.0,86553.0,4001.0
62847.7675712234,0.7166646320474683,154202.0,86537.0,3959.0
62847.77766509145,0.7267585001027328,154230.0,86537.0,3959.0
62847.78775895951,0.7368523681579973,154219.0,86554.0,3992.0
62847.79785282756,0.7469462362132617,154209.0,86544.0,4002.0
62847.807946695626,0.7570401042758022,154205.0,86553.0,3965.0
62847.81804056368,0.7671339723310666,154207.0,86536.0,3968.0
62847.82813443174,0.7772278403863311,154229.0,86556.0,3998.0
62847.83822829979,0.7873217084415955,154191.0,86535.0,3951.0
62847.848322167854,0.797415576504136,154225.0,86534.0,3946.0
62847.85841603591,0.8075094445594004,154242.0,86533.0,3951.0
62847.868509903965,0.8176033126146649,154209.0,86519.0,3954.0
62847.87860377202,0.8276971806699294,154226.0,86546.0,3962.0
62847.888697640075,0.8377910487251938,154239.0,86542.0,3977.0
62847.89879150814,0.8478849167877343,154241.0,86539.0,3985.0
62847.90888537619,0.8579787848429987,154262.0,86546.0,3993.0
62847.91897924425,0.8680726528982632,154224.0,86535.0,3988.0
62847.929073112304,0.8781665209535277,154251.0,86549.0,3978.0
62847.939166980366,0.8882603890160681,154255.0,86538.0,4002.0
62847.94926084842,0.8983542570713325,154240.0,86558.0,3966.0
62847.95935471648,0.908448125126597,154230.0,86532.0,3984.0
62847.96944858453,0.9185419931818615,154163.0,86545.0,3954.0
62847.979542452595,0.9286358612444019,154190.0,86517.0,3984.0
62847.98963632065,0.9387297292996664,154106.0,86511.0,3956.0
62847.999730188705,0.9488235973549308,154094.0,86515.0,3949.0
62848.00982405676,0.9589174654101953,154063.0,86510.0,3948.0
62848.01991792482,0.9690113334727357,154064.0,86506.0,3957.0
62848.03001179288,0.9791052015280002,154051.0,86480.0,3939.0
62848.04010566093,0.9891990695832646,154036.0,86474.0,3954.0
62848.05019952899,0.9992929376385291,154023.0,86516.0,3953.0
62848.060293397044,1.0093868056937936,154020.0,86495.0,3942.0
62848.07038726511,1.019480673756334,153995.0,86513.0,3927.0
62848.08048113316,1.0295745418115985,154048.0,86523.0,3963.0
62848.09057500122,1.039668409866863,154027.0,86492.0,3922.0
62848.10066886927,1.0497622779221274,154017.0,86501.0,3938.0
62848.110762737335,1.0598561459846678,154050.0,86499.0,3979.0
62848.12085660539,1.0699500140399323,153986.0,86472.0,3927.0
62848.130950473445,1.0800438820951968,153993.0,86502.0,3918.0
62848.1410443415,1.0901377501504612,154035.0,86490.0,3942.0
62848.15113820956,1.1002316182130016,154052.0,86494.0,3945.0
62848.16123207762,1.110325486268266,154034.0,86498.0,3922.0
62848.171325945674,1.1204193543235306,154047.0,86499.0,3931.0
62848.18141981373,1.130513222378795,154041.0,86508.0,3933.0
62848.19151368179,1.1406070904413355,154013.0,86485.0,3907.0
62848.20160754985,1.1507009584966,154040.0,86506.0,3961.0
62848.2117014179,1.1607948265518644,154016.0,86493.0,3920.0
62848.22179528596,1.1708886946071289,154039.0,86502.0,3935.0
62848.23188915401,1.1809825626623933,154066.0,86519.0,3919.0
62848.241983022075,1.1910764307249337,154063.0,86517.0,3955.0
62848.25207689013,1.2011702987801982,153986.0,86466.0,3902.0
62848.262170758186,1.2112641668354627,154036.0,86508.0,3935.0
62848.27226462624,1.2213580348907271,154012.0,86516.0,3922.0
62848.2823584943,1.2314519029532676,154025.0,86502.0,3924.0
62848.29245236236,1.241545771008532,154057.0,86533.0,3941.0
62848.302546230414,1.2516396390637965,154023.0,86502.0,3941.0
62848.31264009847,1.261733507119061,154031.0,86504.0,3941.0
62848.32273396653,1.2718273751816014,154067.0,86528.0,3954.0
62848.33282783459,1.2819212432368658,154039.0,86523.0,3951.0
62848.34292170264,1.2920151112921303,154041.0,86497.0,3927.0
62848.3530155707,1.3021089793473948,154022.0,86505.0,3919.0
62848.36310943875,1.3122028474026592,154061.0,86524.0,3918.0
62848.373203306815,1.3222967154651997,154054.0,86515.0,3949.0
62848.38329717487,1.3323905835204641,154023.0,86495.0,3933.0
62848.393391042926,1.3424844515757286,154053.0,86497.0,3933.0
62848.40348491098,1.352578319630993,154037.0,86493.0,3955.0
62848.413578779044,1.3626721876935335,154076.0,86494.0,3934.0
62848.4236726471,1.372766055748798,154070.0,86517.0,3934.0
62848.433766515154,1.3828599238040624,154092.0,86532.0,3941.0
62848.44386038321,1.3929537918593269,154091.0,86483.0,3936.0
62848.45395425127,1.4030476599218673,154089.0,86515.0,3946.0
62848.46404811933,1.4131415279771318,154076.0,86514.0,3937.0
62848.47414198738,1.4232353960323962,154073.0,86487.0,3923.0
62848.48423585544,1.4333292640876607,154069.0,86495.0,3919.0
62848.4943297235,1.4434231321502011,154101.0,86540.0,3952.0
62848.504423591556,1.4535170002054656,154111.0,86521.0,3928.0
62848.51451745961,1.46361086826073,154118.0,86494.0,3968.0
62848.524611327666,1.4737047363159945,154145.0,86537.0,3960.0
62848.53470519572,1.483798604371259,154110.0,86481.0,3957.0
62848.544799063784,1.4938924724337994,154097.0,86522.0,3921.0
62848.55489293184,1.5039863404890639,154137.0,86530.0,3950.0
62848.564986799895,1.5140802085443283,154123.0,86512.0,3937.0
62848.57508066795,1.5241740765995928,154109.0,86524.0,3918.0
62848.58517453601,1.5342679446621332,154167.0,86527.0,3969.0
62848.59526840407,1.5443618127173977,154142.0,86557.0,3954.0
62848.60536227212,1.5544556807726622,154144.0,86530.0,3944.0
62848.61545614018,1.5645495488279266,154177.0,86547.0,3984.0
62848.62555000824,1.574643416890467,154144.0,86514.0,3955.0
62848.635643876296,1.5847372849457315,154153.0,86539.0,3957.0
62848.64573774435,1.594831153000996,154150.0,86526.0,3960.0
62848.65583161241,1.6049250210562604,154196.0,86535.0,3982.0
62848.66592548047,1.6150188891188009,154140.0,86499.0,3950.0
62848.676019348524,1.6251127571740653,154172.0,86536.0,3962.0
62848.68611321658,1.6352066252293298,154166.0,86528.0,3954.0
62848.696207084635,1.6453004932845943,154198.0,86545.0,3934.0
62848.70630095269,1.6553943613398587,154142.0,86549.0,3967.0
62848.71639482075,1.6654882294023992,154198.0,86529.0,3963.0
62848.72648868881,1.6755820974576636,154195.0,86509.0,3950.0
62848.73658255686,1.685675965512928,154213.0,86508.0,3984.0
62848.74667642492,1.6957698335681926,154203.0,86523.0,3967.0
62848.75677029298,1.705863701630733,154195.0,86538.0,3959.0
62848.766864161036,1.7159575696859974,154210.0,86524.0,3973.0
62848.77695802909,1.726051437741262,154204.0,86572.0,3973.0
62848.78705189715,1.7361453057965264,154228.0,86565.0,3985.0
62848.79714576521,1.7462391738590668,154219.0,86534.0,3972.0
62848.807239633265,1.7563330419143313,154252.0,86565.0,3985.0
62848.81733350132,1.7664269099695957,154252.0,86542.0,4002.0
62848.827427369375,1.7765207780248602,154231.0,86527.0,3953.0
62848.83752123744,1.7866146460874006,154224.0,86544.0,3972.0
62848.84761510549,1.796708514142665,154185.0,86528.0,3975.0
62848.85770897355,1.8068023821979295,154182.0,86557.0,3995.0
62848.8678028416,1.816896250253194,154110.0,86502.0,3949.0
62848.87789670966,1.8269901183084585,154097.0,86513.0,3947.0
62848.88799057772,1.837083986370999,154060.0,86501.0,3948.0
62848.89808444578,1.8471778544262634,154037.0,86504.0,3939.0
62848.90817831383,1.8572717224815278,154036.0,86529.0,3958.0
62848.91827218189,1.8673655905367923,154011.0,86495.0,3942.0
62848.92836604995,1.8774594585993327,153988.0,86492.0,3959.0
62848.938459918005,1.8875533266545972,153988.0,86492.0,3914.0
62848.94855378606,1.8976471947098617,154008.0,86504.0,3955.0
62848.958647654115,1.9077410627651261,153975.0,86491.0,3927.0
62848.96874152218,1.9178349308276665,153952.0,86488.0,3927.0
62848.97883539023,1.927928798882931,154000.0,86493.0,3941.0
62848.98892925829,1.9380226669381955,153963.0,86489.0,3912.0
62848.999023126344,1.94811653499346,153987.0,86486.0,3921.0
62849.009116994406,1.9582104030560004,153980.0,86510.0,3931.0
62849.01921086246,1.9683042711112648,154000.0,86519.0,3947.0
62849.02930473052,1.9783981391665293,154008.0,86493.0,3945.0
62849.03939859857,1.9884920072217938,153985.0,86499.0,3918.0
62849.04949246663,1.9985858752770582,153995.0,86451.0,3929.0
62849.05958633469,2.0086797433395986,153955.0,86497.0,3904.0
62849.069680202745,2.018773611394863,153968.0,86469.0,3915.0
62849.0797740708,2.0288674794501276,153985.0,86498.0,3934.0
62849.089867938856,2.038961347505392,153997.0,86471.0,3941.0
62849.09996180692,2.0490552155679325,153947.0,86467.0,3937.0
62849.11005567497,2.059149083623197,153972.0,86463.0,3921.0
62849.12014954303,2.0692429516784614,153986.0,86493.0,3944.0
62849.130243411084,2.079336819733726,153981.0,86526.0,3929.0
62849.14033727915,2.0894306877962663,153984.0,86503.0,3920.0
62849.1504311472,2.0995245558515307,154000.0,86480.0,3912.0
62849.16052501526,2.109618423906795,153971.0,86471.0,3912.0
62849.17061888331,2.1197122919620597,153981.0,86506.0,3924.0
62849.18071275137,2.129806160017324,153942.0,86487.0,3902.0
62849.19080661943,2.1399000280798646,153963.0,86491.0,3912.0
62849.200900487485,2.149993896135129,153990.0,86490.0,3901.0
62849.21099435554,2.1600877641903935,153971.0,86485.0,3923.0
62849.221088223596,2.170181632245658,153960.0,86495.0,3914.0
62849.23118209166,2.1802755003081984,153940.0,86465.0,3900.0
62849.241275959714,2.190369368363463,154008.0,86512.0,3948.0
62849.25136982777,2.2004632364187273,153990.0,86493.0,3933.0
62849.261463695824,2.210557104473992,153991.0,86486.0,3904.0
62849.27155756389,2.220650972536532,154011.0,86510.0,3909.0
62849.28165143194,2.2307448405917967,154000.0,86477.0,3941.0
62849.2917453,2.240838708647061,154008.0,86499.0,3922.0
62849.30183916805,2.2509325767023256,154022.0,86502.0,3906.0
62849.311933036115,2.261026444764866,154012.0,86503.0,3915.0
62849.32202690417,2.2711203128201305,154014.0,86466.0,3925.0
62849.332120772226,2.281214180875395,154020.0,86503.0,3920.0
62849.34221464028,2.2913080489306594,154018.0,86496.0,3926.0
62849.352308508336,2.301401916985924,154023.0,86484.0,3906.0
62849.3624023764,2.3114957850484643,154044.0,86528.0,3934.0
62849.372496244454,2.321589653103729,154055.0,86497.0,3930.0
62849.38259011251,2.3316835211589932,154071.0,86486.0,3937.0
62849.392683980564,2.3417773892142577,154054.0,86473.0,3920.0
62849.40277784863,2.351871257276798,154084.0,86542.0,3950.0
62849.41287171668,2.3619651253320626,154065.0,86511.0,3943.0
62849.42296558474,2.372058993387327,154093.0,86536.0,3954.0
62849.43305945279,2.3821528614425915,154052.0,86495.0,3912.0
62849.443153320855,2.392246729505132,154060.0,86483.0,3945.0
62849.45324718891,2.4023405975603964,154066.0,86522.0,3938.0
62849.463341056966,2.412434465615661,154069.0,86481.0,3933.0
62849.47343492502,2.4225283336709253,154082.0,86495.0,3957.0
62849.483528793084,2.4326222017334658,154069.0,86516.0,3936.0
62849.49362266114,2.4427160697887302,154093.0,86517.0,3937.0
62849.503716529194,2.4528099378439947,154118.0,86528.0,3960.0
62849.51381039725,2.462903805899259,154068.0,86491.0,3947.0
62849.523904265305,2.4729976739545236,154104.0,86508.0,3938.0
62849.53399813337,2.483091542017064,154114.0,86530.0,3944.0
62849.54409200142,2.4931854100723285,154115.0,86507.0,3939.0
62849.55418586948,2.503279278127593,154094.0,86521.0,3950.0
62849.56427973753,2.5133731461828575,154096.0,86507.0,3935.0
62849.574373605596,2.523467014245398,154136.0,86521.0,3956.0
62849.58446747365,2.5335608823006623,154128.0,86543.0,3945.0
62849.594561341706,2.543654750355927,154156.0,86548.0,3991.0
62849.60465520976,2.5537486184111913,154110.0,86515.0,3953.0
62849.614749077824,2.5638424864737317,154138.0,86529.0,3954.0
62849.62484294588,2.573936354528996,154138.0,86501.0,3957.0
62849.634936813934,2.5840302225842606,154121.0,86515.0,3927.0
62849.64503068199,2.594124090639525,154140.0,86512.0,3939.0
62849.65512455005,2.6042179587020655,154154.0,86539.0,3951.0
62849.66521841811,2.61431182675733,154161.0,86552.0,3966.0
62849.67531228616,2.6244056948125944,154156.0,86515.0,3950.0
62849.68540615422,2.634499562867859,154172.0,86557.0,3983.0
62849.69550002227,2.6445934309231234,154169.0,86537.0,3955.0
62849.705593890336,2.654687298985664,154188.0,86545.0,3965.0
62849.71568775839,2.6647811670409283,154172.0,86557.0,3926.0
62849.72578162645,2.6748750350961927,154183.0,86543.0,3985.0
62849.7358754945,2.684968903151457,154203.0,86537.0,3947.0
62849.745969362564,2.6950627712139976,154197.0,86530.0,3969.0
62849.75606323062,2.705156639269262,154187.0,86545.0,3974.0
62849.766157098675,2.7152505073245266,154145.0,86526.0,3953.0
62849.77625096673,2.725344375379791,154155.0,86533.0,3935.0
62849.78634483479,2.7354382434423314,154109.0,86516.0,3971.0
62849.79643870285,2.745532111497596,154077.0,86521.0,3984.0
62849.8065325709,2.7556259795528604,154034.0,86500.0,3948.0
62849.81662643896,2.765719847608125,154013.0,86517.0,3966.0
62849.82672030702,2.7758137156706653,153988.0,86485.0,3946.0
62849.836814175076,2.7859075837259297,153978.0,86485.0,3917.0
62849.84690804313,2.796001451781194,153979.0,86514.0,3951.0
62849.85700191119,2.8060953198364587,153913.0,86472.0,3903.0
62849.86709577924,2.816189187891723,153940.0,86493.0,3930.0
62849.877189647304,2.8262830559542635,153971.0,86477.0,3921.0
62849.88728351536,2.836376924009528,153966.0,86471.0,3918.0
62849.897377383415,2.8464707920647925,153949.0,86467.0,3911.0
62849.90747125147,2.856564660120057,153958.0,86486.0,3928.0
62849.91756511953,2.8666585281825974,153978.0,86500.0,3927.0
62849.92765898759,2.876752396237862,153934.0,86478.0,3915.0
62849.93775285564,2.8868462642931263,153977.0,86511.0,3941.0
62849.9478467237,2.8969401323483908,153953.0,86492.0,3914.0
62849.95794059176,2.907034000410931,153950.0,86471.0,3919.0
62849.96803445982,2.9171278684661957,153970.0,86488.0,3928.0
62849.97812832787,2.92722173652146,153980.0,86465.0,3912.0
62849.98822219593,2.9373156045767246,153934.0,86487.0,3909.0
62849.99831606398,2.947409472631989,153928.0,86499.0,3900.0
62850.008409932045,2.9575033406945295,153984.0,86505.0,3931.0
62850.0185038001,2.967597208749794,153963.0,86476.0,3922.0
62850.028597668155,2.9776910768050584,153963.0,86497.0,3921.0
62850.03869153621,2.987784944860323,153950.0,86482.0,3922.0
62850.04878540427,2.9978788129228633,153941.0,86482.0,3929.0
62850.05887927233,3.0079726809781278,153940.0,86515.0,3925.0
62850.06897314038,3.018066549033392,153969.0,86492.0,3916.0
62850.07906700844,3.0281604170886567,153973.0,86496.0,3942.0
62850.0891608765,3.038254285151197,153945.0,86488.0,3901.0
62850.09925474456,3.0483481532064616,153987.0,86504.0,3940.0
62850.10934861261,3.058442021261726,153974.0,86483.0,3918.0
62850.11944248067,3.0685358893169905,153916.0,86499.0,3907.0
62850.12953634873,3.078629757379531,153941.0,86496.0,3929.0
62850.139630216785,3.0887236254347954,153964.0,86482.0,3936.0
62850.14972408484,3.09881749349006,153956.0,86494.0,3922.0
62850.159817952896,3.1089113615453243,153959.0,86478.0,3917.0
62850.16991182095,3.119005229600589,153986.0,86507.0,3945.0
62850.18000568901,3.129099097663129,153971.0,86479.0,3919.0
62850.19009955707,3.1391929657183937,153980.0,86498.0,3922.0
62850.200193425124,3.149286833773658,153970.0,86512.0,3924.0
62850.21028729318,3.1593807018289226,153972.0,86499.0,3913.0
62850.22038116124,3.169474569891463,153995.0,86501.0,3909.0
62850.2304750293,3.1795684379467275,154002.0,86500.0,3911.0
62850.24056889735,3.189662306001992,153996.0,86509.0,3939.0
62850.25066276541,3.1997561740572564,153958.0,86462.0,3927.0
62850.26075663347,3.209850042119797,153994.0,86531.0,3933.0
62850.270850501525,3.2199439101750613,153993.0,86499.0,3909.0
62850.28094436958,3.230037778230326,154027.0,86475.0,3930.0
62850.291038237636,3.2401316462855903,154051.0,86507.0,3913.0
62850.3011321057,3.2502255143481307,154022.0,86511.0,3948.0
62850.31122597375,3.260319382403395,154019.0,86495.0,3921.0
62850.32131984181,3.2704132504586596,154052.0,86520.0,3937.0
62850.331413709864,3.280507118513924,154055.0,86519.0,3927.0
62850.34150757792,3.2906009865691885,154030.0,86505.0,3903.0
62850.35160144598,3.300694854631729,154065.0,86529.0,3937.0
62850.36169531404,3.3107887226869934,154058.0,86505.0,3933.0
62850.37178918209,3.320882590742258,154043.0,86504.0,3930.0
62850.38188305015,3.3309764587975224,154066.0,86543.0,3943.0
62850.39197691821,3.341070326860063,154074.0,86535.0,3929.0
62850.402070786266,3.3511641949153272,154062.0,86513.0,3941.0
62850.41216465432,3.3612580629705917,154035.0,86486.0,3932.0
62850.422258522376,3.371351931025856,154106.0,86531.0,3956.0
62850.43235239044,3.3814457990883966,154080.0,86506.0,3938.0
62850.442446258494,3.391539667143661,154100.0,86517.0,3953.0
62850.45254012655,3.4016335351989255,154117.0,86530.0,3965.0
62850.462633994604,3.41172740325419,154111.0,86503.0,3968.0
62850.47272786267,3.4218212713167304,154113.0,86512.0,3967.0
62850.48282173072,3.431915139371995,154107.0,86525.0,3944.0
62850.49291559878,3.4420090074272593,154094.0,86534.0,3949.0
62850.50300946683,3.452102875482524,154081.0,86527.0,3934.0
62850.51310333489,3.4621967435377883,154142.0,86551.0,3970.0
62850.52319720295,3.4722906116003287,154102.0,86519.0,3969.0
62850.533291071006,3.482384479655593,154108.0,86525.0,3957.0
62850.54338493906,3.4924783477108576,154126.0,86518.0,3958.0
62850.553478807116,3.502572215766122,154120.0,86541.0,3960.0
62850.56357267518,3.5126660838286625,154143.0,86532.0,3956.0
62850.573666543234,3.522759951883927,154146.0,86561.0,3972.0
62850.58376041129,3.5328538199391915,154177.0,86541.0,3982.0
62850.593854279345,3.542947687994456,154157.0,86556.0,3934.0
62850.60394814741,3.5530415560569963,154169.0,86545.0,3960.0
62850.61404201546,3.563135424112261,154172.0,86559.0,3993.0
62850.62413588352,3.5732292921675253,154156.0,86524.0,3946.0
62850.63422975157,3.5833231602227897,154157.0,86566.0,3968.0
62850.644323619636,3.59341702828533,154188.0,86542.0,3967.0
62850.65441748769,3.6035108963405946,154182.0,86519.0,3913.0
62850.664511355746,3.613604764395859,154199.0,86550.0,3937.0
62850.6746052238,3.6236986324511236,154184.0,86559.0,3957.0
62850.68469909186,3.633792500506388,154180.0,86551.0,3963.0
62850.69479295992,3.6438863685689284,154202.0,86541.0,3985.0
62850.704886827974,3.653980236624193,154110.0,86544.0,3973.0
62850.71498069603,3.6640741046794574,154099.0,86540.0,3943.0
62850.725074564085,3.674167972734722,154088.0,86529.0,3961.0
62850.73516843215,3.6842618407972623,154046.0,86519.0,3929.0
62850.7452623002,3.6943557088525267,154048.0,86531.0,3955.0
62850.75535616826,3.704449576907791,153985.0,86484.0,3941.0
62850.76545003631,3.7145434449630557,153980.0,86502.0,3940.0
62850.775543904376,3.724637313025596,153981.0,86517.0,3950.0
62850.78563777243,3.7347311810808606,153931.0,86477.0,3898.0
62850.795731640486,3.744825049136125,153965.0,86519.0,3949.0
62850.80582550854,3.7549189171913895,153936.0,86487.0,3922.0
62850.815919376604,3.76501278525393,153936.0,86479.0,3964.0
62850.82601324466,3.7751066533091944,153937.0,86473.0,3912.0
62850.836107112715,3.785200521364459,153979.0,86526.0,3953.0
62850.84620098077,3.7952943894197233,153928.0,86495.0,3911.0
62850.856294848825,3.8053882574749878,153965.0,86479.0,3938.0
62850.86638871689,3.815482125537528,153979.0,86523.0,3953.0
62850.87648258494,3.8255759935927927,153954.0,86474.0,3910.0
62850.886576453,3.835669861648057,153972.0,86492.0,3941.0
62850.89667032105,3.8457637297033216,153963.0,86536.0,3919.0
62850.906764189116,3.855857597765862,153972.0,86480.0,3926.0
62850.91685805717,3.8659514658211265,153953.0,86484.0,3909.0
62850.92695192523,3.876045333876391,153998.0,86544.0,3948.0
62850.93704579328,3.8861392019316554,153961.0,86494.0,3925.0
62850.947139661344,3.896233069994196,153968.0,86476.0,3930.0
62850.9572335294,3.9063269380494603,154014.0,86526.0,3942.0
62850.967327397455,3.9164208061047248,153959.0,86480.0,3932.0
62850.97742126551,3.9265146741599892,153987.0,86502.0,3931.0
62850.987515133565,3.9366085422152537,153960.0,86476.0,3932.0
62850.99760900163,3.946702410277794,153966.0,86486.0,3920.0
62851.00770286968,3.9567962783330586,153943.0,86508.0,3893.0
62851.01779673774,3.966890146388323,153982.0,86503.0,3927.0
62851.027890605794,3.9769840144435875,153993.0,86506.0,3948.0
62851.037984473856,3.987077882506128,153958.0,86468.0,3921.0
62851.04807834191,3.9971717505613924,153993.0,86507.0,3924.0
62851.05817220997,4.007265618616657,153971.0,86508.0,3945.0
62851.06826607802,4.017359486671921,153932.0,86499.0,3937.0
62851.078359946085,4.027453354734462,153938.0,86508.0,3904.0
62851.08845381414,4.037547222789726,153973.0,86502.0,3913.0
62851.098547682195,4.047641090844991,153977.0,86512.0,3929.0
62851.10864155025,4.057734958900255,153995.0,86527.0,3913.0
62851.11873541831,4.067828826962796,154018.0,86523.0,3928.0
62851.12882928637,4.07792269501806,153958.0,86473.0,3899.0
62851.13892315442,4.0880165630733245,153994.0,86511.0,3935.0
62851.14901702248,4.098110431128589,153981.0,86529.0,3923.0
62851.159110890534,4.108204299183853,154024.0,86529.0,3953.0
62851.1692047586,4.118298167246394,154003.0,86514.0,3924.0
62851.17929862665,4.128392035301658,154016.0,86514.0,3930.0
62851.18939249471,4.138485903356923,153999.0,86513.0,3935.0
62851.19948636276,4.148579771412187,154028.0,86530.0,3932.0
62851.209580230825,4.158673639474728,153993.0,86540.0,3944.0
62851.21967409888,4.168767507529992,154043.0,86523.0,3949.0
62851.229767966935,4.178861375585257,154036.0,86539.0,3925.0
62851.23986183499,4.188955243640521,154075.0,86528.0,3936.0
62851.24995570305,4.1990491117030615,154048.0,86534.0,3961.0
62851.26004957111,4.209142979758326,154056.0,86529.0,3943.0
62851.270143439164,4.21923684781359,154080.0,86517.0,3952.0
62851.28023730722,4.229330715868855,154089.0,86536.0,3970.0
62851.29033117528,4.239424583931395,154060.0,86503.0,3924.0
62851.30042504334,4.24951845198666,154064.0,86528.0,3945.0
62851.31051891139,4.259612320041924,154103.0,86555.0,3953.0
62851.32061277945,4.269706188097189,154048.0,86498.0,3953.0
62851.3307066475,4.279800056152453,154085.0,86535.0,3942.0
62851.340800515565,4.289893924214994,154083.0,86536.0,3953.0
62851.35089438362,4.299987792270258,154102.0,86554.0,3958.0
62851.360988251676,4.3100816603255225,154059.0,86521.0,3939.0
62851.37108211973,4.320175528380787,154115.0,86558.0,3923.0
62851.38117598779,4.330269396443327,154116.0,86536.0,3936.0
62851.39126985585,4.340363264498592,154068.0,86535.0,3966.0
62851.401363723904,4.350457132553856,154109.0,86568.0,3960.0
62851.41145759196,4.360551000609121,154122.0,86534.0,3933.0
62851.42155146002,4.370644868671661,154090.0,86545.0,3931.0
62851.43164532808,4.380738736726926,154134.0,86520.0,3953.0
62851.44173919613,4.39083260478219,154151.0,86552.0,3958.0
62851.45183306419,4.400926472837455,154126.0,86523.0,3952.0
62851.46192693225,4.411020340899995,154155.0,86546.0,3950.0
62851.472020800305,4.4211142089552595,154128.0,86549.0,3953.0
62851.48211466836,4.431208077010524,154124.0,86528.0,3966.0
62851.492208536416,4.4413019450657885,154162.0,86573.0,3976.0
62851.50230240447,4.451395813121053,154130.0,86526.0,3954.0
62851.512396272534,4.461489681183593,154163.0,86553.0,3963.0
62851.52249014059,4.471583549238858,154142.0,86551.0,3959.0
62851.532584008644,4.481677417294122,154190.0,86567.0,3998.0
62851.5426778767,4.491771285349387,154147.0,86531.0,3972.0
62851.55277174476,4.501865153411927,154187.0,86555.0,3980.0
62851.56286561282,4.511959021467192,154165.0,86535.0,3973.0
62851.57295948087,4.522052889522456,154177.0,86529.0,3953.0
62851.58305334893,4.532146757577721,154162.0,86558.0,3956.0
62851.59314721699,4.542240625640261,154217.0,86571.0,3990.0
62851.603241085046,4.5523344936955255,154230.0,86553.0,3987.0
62851.6133349531,4.56242836175079,154206.0,86579.0,3944.0
62851.623428821156,4.572522229806054,154200.0,86559.0,3973.0
62851.63352268922,4.582616097868595,154181.0,86557.0,3981.0
62851.643616557274,4.592709965923859,154132.0,86565.0,3973.0
62851.65371042533,4.602803833979124,154129.0,86524.0,3973.0
62851.663804293385,4.612897702034388,154061.0,86536.0,3942.0
62851.67389816144,4.622991570089653,154056.0,86522.0,3961.0
62851.6839920295,4.633085438152193,154022.0,86518.0,3950.0
62851.69408589756,4.643179306207458,153994.0,86503.0,3941.0
62851.70417976561,4.653273174262722,153973.0,86492.0,3927.0
62851.71427363367,4.6633670423179865,153982.0,86517.0,3938.0
62851.72436750173,4.673460910380527,154012.0,86548.0,3971.0
62851.734461369786,4.683554778435791,153936.0,86506.0,3921.0
62851.74455523784,4.693648646491056,153961.0,86503.0,3925.0
62851.7546491059,4.70374251454632,153971.0,86508.0,3936.0
62851.76474297396,4.713836382608861,153973.0,86533.0,3943.0
62851.774836842014,4.723930250664125,153947.0,86488.0,3910.0
62851.78493071007,4.73402411871939,153992.0,86539.0,3967.0
62851.795024578125,4.744117986774654,153990.0,86519.0,3925.0
62851.80511844618,4.754211854829919,153956.0,86486.0,3930.0
62851.81521231424,4.764305722892459,153997.0,86537.0,3956.0
62851.8253061823,4.7743995909477235,153982.0,86503.0,3936.0
62851.83540005035,4.784493459002988,154001.0,86511.0,3932.0
62851.84549391841,4.794587327058252,153991.0,86497.0,3926.0
62851.85558778647,4.804681195120793,153996.0,86547.0,3942.0
62851.865681654526,4.814775063176057,153980.0,86504.0,3915.0
62851.87577552258,4.824868931231322,153998.0,86524.0,3944.0
62851.88586939064,4.834962799286586,154008.0,86536.0,3922.0
62851.8959632587,4.845056667349127,154028.0,86515.0,3947.0
62851.906057126755,4.855150535404391,154030.0,86533.0,3964.0
62851.91615099481,4.865244403459656,154009.0,86518.0,3936.0
62851.926244862865,4.87533827151492,153969.0,86486.0,3932.0
62851.93633873093,4.8854321395774605,153991.0,86498.0,3929.0
62851.94643259898,4.895526007632725,154030.0,86545.0,3948.0
62851.95652646704,4.905619875687989,153994.0,86513.0,3953.0
62851.96662033509,4.915713743743254,153987.0,86520.0,3935.0
62851.97671420315,4.925807611798518,154015.0,86532.0,3961.0
62851.98680807121,4.935901479861059,154000.0,86505.0,3950.0
62851.99690193927,4.945995347916323,153961.0,86493.0,3932.0
62852.00699580732,4.956089215971588,153993.0,86533.0,3943.0
62852.01708967538,4.966183084026852,154017.0,86521.0,3939.0
62852.02718354344,4.976276952089393,153966.0,86531.0,3929.0
62852.037277411495,4.986370820144657,154002.0,86515.0,3939.0
62852.04737127955,4.9964646881999215,153996.0,86523.0,3932.0
62852.057465147605,5.006558556255186,153993.0,86499.0,3928.0
62852.06755901567,5.016652424317726,154007.0,86515.0,3934.0
62852.07765288372,5.026746292372991,153994.0,86540.0,3944.0
62852.08774675178,5.036840160428255,154024.0,86514.0,3943.0
62852.097840619834,5.04693402848352,154017.0,86513.0,3927.0
62852.107934487896,5.05702789654606,154014.0,86522.0,3927.0
62852.11802835595,5.067121764601325,154054.0,86532.0,3914.0
62852.12812222401,5.077215632656589,154045.0,86522.0,3951.0
62852.13821609206,5.087309500711854,154038.0,86530.0,3961.0
62852.14830996012,5.097403368767118,154069.0,86506.0,3966.0
62852.15840382818,5.1074972368296585,154054.0,86543.0,3929.0
62852.168497696235,5.117591104884923,154075.0,86538.0,3935.0
62852.17859156429,5.127684972940187,154069.0,86542.0,3949.0
62852.188685432346,5.137778840995452,154069.0,86532.0,3931.0
62852.19877930041,5.147872709057992,154062.0,86527.0,3974.0
62852.20887316846,5.157966577113257,154077.0,86546.0,3944.0
62852.21896703652,5.168060445168521,154048.0,86520.0,3930.0
62852.229060904574,5.178154313223786,154105.0,86542.0,3969.0
62852.23915477264,5.188248181286326,154088.0,86545.0,3937.0
62852.24924864069,5.198342049341591,154089.0,86542.0,3954.0
62852.25934250875,5.208435917396855,154101.0,86558.0,3970.0
62852.2694363768,5.2185297854521195,154082.0,86538.0,3971.0
62852.279530244865,5.22862365351466,154075.0,86511.0,3951.0
62852.28962411292,5.238717521569924,154098.0,86547.0,3958.0
62852.299717980975,5.248811389625189,154071.0,86574.0,3948.0
62852.30981184903,5.258905257680453,154104.0,86516.0,3950.0
62852.319905717086,5.268999125735718,154094.0,86535.0,3965.0
62852.32999958515,5.279092993798258,154118.0,86543.0,3966.0
62852.340093453204,5.289186861853523,154115.0,86546.0,3958.0
62852.35018732126,5.299280729908787,154109.0,86515.0,3945.0
62852.360281189314,5.309374597964052,154124.0,86535.0,3946.0
62852.37037505738,5.319468466026592,154143.0,86550.0,3950.0
62852.38046892543,5.3295623340818565,154129.0,86549.0,3984.0
62852.39056279349,5.339656202137121,154168.0,86556.0,3971.0
62852.40065666154,5.3497500701923855,154165.0,86547.0,3980.0
62852.410750529605,5.359843938254926,154142.0,86554.0,3960.0
62852.42084439766,5.36993780631019,154168.0,86549.0,3982.0
62852.430938265716,5.380031674365455,154152.0,86568.0,3932.0
62852.44103213377,5.390125542420719,154146.0,86564.0,3955.0
62852.45112600183,5.40021941048326,154175.0,86562.0,3974.0
62852.46121986989,5.410313278538524,154196.0,86579.0,3951.0
62852.471313737944,5.420407146593789,154192.0,86576.0,3994.0
62852.481407606,5.430501014649053,154182.0,86557.0,3954.0
62852.491501474055,5.440594882704318,154185.0,86559.0,3983.0
62852.50159534212,5.450688750766858,154200.0,86590.0,3983.0
62852.51168921017,5.4607826188221225,154171.0,86552.0,3965.0
62852.52178307823,5.470876486877387,154198.0,86579.0,3953.0
62852.53187694628,5.480970354932651,154171.0,86565.0,3962.0
62852.541970814345,5.491064222995192,154116.0,86570.0,3960.0
62852.5520646824,5.501158091050456,154113.0,86530.0,3961.0
62852.562158550456,5.511251959105721,154096.0,86560.0,3978.0
62852.57225241851,5.521345827160985,154069.0,86546.0,3973.0
62852.582346286574,5.531439695223526,154045.0,86553.0,3960.0
62852.59244015463,5.54153356327879,154063.0,86540.0,3973.0
62852.602534022684,5.551627431334055,154014.0,86537.0,3952.0
62852.61262789074,5.561721299389319,153973.0,86526.0,3936.0
62852.622721758795,5.5718151674445835,153997.0,86513.0,3948.0
62852.63281562686,5.581909035507124,154009.0,86510.0,3927.0
62852.64290949491,5.592002903562388,153987.0,86518.0,3931.0
62852.65300336297,5.602096771617653,153989.0,86509.0,3929.0
62852.66309723102,5.612190639672917,153999.0,86497.0,3945.0
62852.673191099086,5.622284507735458,153958.0,86530.0,3935.0
62852.68328496714,5.632378375790722,154017.0,86534.0,3971.0
62852.693378835196,5.642472243845987,153989.0,86492.0,3954.0
62852.70347270325,5.652566111901251,154018.0,86524.0,3943.0
62852.713566571314,5.662659979963792,153997.0,86504.0,3953.0
62852.72366043937,5.672753848019056,154000.0,86522.0,3952.0
62852.733754307425,5.6828477160743205,154039.0,86499.0,3953.0
62852.74384817548,5.692941584129585,154025.0,86520.0,3946.0
62852.75394204354,5.703035452192125,154034.0,86519.0,3953.0
62852.7640359116,5.71312932024739,154008.0,86502.0,3949.0
62852.77412977965,5.723223188302654,154046.0,86529.0,3963.0
62852.78422364771,5.733317056357919,154038.0,86523.0,3947.0
62852.79431751576,5.743410924413183,154020.0,86549.0,3929.0
62852.804411383826,5.753504792475724,153994.0,86522.0,3934.0
62852.81450525188,5.763598660530988,153998.0,86500.0,3937.0
62852.82459911994,5.773692528586253,154026.0,86523.0,3956.0
62852.83469298799,5.783786396641517,154053.0,86561.0,3956.0
62852.844786856054,5.7938802647040575,154032.0,86527.0,3959.0
62852.85488072411,5.803974132759322,154003.0,86509.0,3933.0
62852.864974592165,5.814068000814586,154028.0,86522.0,3941.0
62852.87506846022,5.824161868869851,154022.0,86547.0,3941.0
62852.88516232828,5.834255736932391,154012.0,86540.0,3932.0
62852.89525619634,5.844349604987656,154019.0,86534.0,3931.0
62852.90535006439,5.85444347304292,154023.0,86528.0,3944.0
62852.91544393245,5.864537341098185,154021.0,86501.0,3952.0
62852.92553780051,5.874631209160725,154004.0,86520.0,3938.0
62852.935631668566,5.88472507721599,154005.0,86540.0,3940.0
62852.94572553662,5.894818945271254,154017.0,86523.0,3944.0
62852.95581940468,5.9049128133265185,154027.0,86506.0,3917.0
62852.96591327273,5.915006681381783,154051.0,86530.0,3915.0
62852.976007140795,5.925100549444323,154053.0,86541.0,3942.0
62852.98610100885,5.935194417499588,154052.0,86523.0,3946.0
62852.996194876905,5.945288285554852,154047.0,86514.0,3929.0
62853.00628874496,5.955382153610117,154069.0,86526.0,3974.0
62853.01638261302,5.965476021672657,154093.0,86558.0,3983.0
62853.02647648108,5.975569889727922,154075.0,86540.0,3952.0
62853.03657034913,5.985663757783186,154095.0,86542.0,3918.0
62853.04666421719,5.995757625838451,154079.0,86530.0,3934.0
62853.05675808525,6.005851493900991,154072.0,86546.0,3940.0
62853.06685195331,6.0159453619562555,154099.0,86560.0,3975.0
62853.07694582136,6.02603923001152,154104.0,86538.0,3947.0
62853.08703968942,6.036133098066784,154076.0,86527.0,3942.0
62853.09713355748,6.046226966129325,154108.0,86564.0,3937.0
62853.107227425535,6.056320834184589,154102.0,86531.0,3936.0
62853.11732129359,6.066414702239854,154090.0,86526.0,3960.0
62853.127415161645,6.076508570295118,154132.0,86552.0,3982.0
62853.1375090297,6.086602438350383,154085.0,86533.0,3971.0
62853.14760289776,6.096696306412923,154104.0,86542.0,3955.0
62853.15769676582,6.106790174468188,154113.0,86508.0,3963.0
62853.167790633874,6.116884042523452,154122.0,86564.0,3945.0
62853.17788450193,6.1269779105787165,154105.0,86526.0,3935.0
62853.18797836999,6.137071778641257,154143.0,86543.0,3975.0
62853.19807223805,6.147165646696521,154112.0,86563.0,3959.0
62853.2081661061,6.157259514751786,154106.0,86524.0,3950.0
62853.21825997416,6.16735338280705,154123.0,86535.0,3961.0
62853.22835384222,6.177447250869591,154115.0,86538.0,3972.0
62853.238447710275,6.187541118924855,154140.0,86548.0,3966.0
62853.24854157833,6.19763498698012,154117.0,86520.0,3954.0
62853.258635446386,6.207728855035384,154169.0,86551.0,3991.0
62853.26872931445,6.217822723097925,154148.0,86550.0,3971.0
62853.2788231825,6.227916591153189,154152.0,86560.0,3964.0
62853.28891705056,6.2380104592084535,154152.0,86570.0,3996.0
62853.299010918614,6.248104327263718,154153.0,86538.0,3971.0
62853.30910478667,6.2581981953189825,154145.0,86565.0,3969.0
62853.31919865473,6.268292063381523,154168.0,86564.0,3972.0
62853.32929252279,6.278385931436787,154141.0,86528.0,3953.0
62853.33938639084,6.288479799492052,154171.0,86554.0,3954.0
62853.3494802589,6.298573667547316,154195.0,86562.0,3977.0
62853.35957412696,6.308667535609857,154191.0,86562.0,3973.0
62853.369667995015,6.318761403665121,154158.0,86563.0,3990.0
62853.37976186307,6.328855271720386,154154.0,86579.0,3976.0
62853.389855731126,6.33894913977565,154171.0,86560.0,3967.0
62853.39994959919,6.3490430078381905,154125.0,86554.0,3967.0
62853.410043467244,6.359136875893455,154104.0,86541.0,3938.0
62853.4201373353,6.3692307439487195,154095.0,86564.0,3985.0
62853.430231203354,6.379324612003984,154044.0,86514.0,3932.0
62853.44032507141,6.389418480059248,154027.0,86528.0,3960.0
62853.45041893947,6.399512348121789,153990.0,86502.0,3940.0
62853.46051280753,6.409606216177053,153985.0,86515.0,3918.0
62853.47060667558,6.419700084232318,153993.0,86537.0,3944.0
62853.48070054364,6.429793952287582,153991.0,86518.0,3938.0
62853.4907944117,6.439887820350123,153982.0,86536.0,3961.0
62853.500888279756,6.449981688405387,153989.0,86514.0,3938.0
62853.51098214781,6.460075556460652,154018.0,86546.0,3964.0
62853.521076015866,6.470169424515916,154002.0,86524.0,3946.0
62853.53116988393,6.4802632925784565,154001.0,86507.0,3916.0
62853.541263751984,6.490357160633721,154007.0,86535.0,3913.0
62853.55135762004,6.500451028688985,153995.0,86518.0,3935.0
62853.561451488094,6.51054489674425,154013.0,86526.0,3950.0
62853.57154535616,6.52063876480679,154026.0,86523.0,3945.0
62853.58163922421,6.530732632862055,154046.0,86544.0,3984.0
62853.59173309227,6.540826500917319,154007.0,86512.0,3930.0
62853.60182696032,6.550920368972584,154036.0,86525.0,3938.0
62853.61192082838,6.561014237027848,154045.0,86549.0,3943.0
62853.62201469644,6.571108105090389,154041.0,86510.0,3936.0
62853.632108564496,6.581201973145653,154062.0,86554.0,3978.0
62853.64220243255,6.5912958412009175,154047.0,86537.0,3950.0
62853.65229630061,6.601389709256182,154062.0,86519.0,3959.0
62853.66239016867,6.611483577318722,154024.0,86508.0,3930.0
62853.672484036724,6.621577445373987,154075.0,86556.0,3955.0
62853.68257790478,6.631671313429251,154057.0,86538.0,3938.0
62853.692671772835,6.641765181484516,154041.0,86510.0,3970.0
62853.7027656409,6.651859049547056,154047.0,86561.0,3949.0
62853.71285950895,6.661952917602321,154046.0,86518.0,3944.0
62853.72295337701,6.672046785657585,154025.0,86525.0,3938.0
62853.73304724506,6.68214065371285,154012.0,86531.0,3933.0
62853.743141113126,6.69223452177539,154046.0,86522.0,3956.0
62853.75323498118,6.7023283898306545,154022.0,86552.0,3963.0
62853.763328849236,6.712422257885919,154050.0,86524.0,3958.0
62853.77342271729,6.722516125941183,154036.0,86563.0,3943.0
62853.78351658535,6.732609993996448,154024.0,86511.0,3933.0
62853.79361045341,6.742703862058988,154043.0,86525.0,3945.0
62853.803704321464,6.752797730114253,154040.0,86534.0,3968.0
62853.81379818952,6.762891598169517,154059.0,86534.0,3941.0
62853.823892057575,6.772985466224782,154033.0,86532.0,3953.0
62853.83398592564,6.783079334287322,154091.0,86553.0,3964.0
62853.84407979369,6.793173202342587,154062.0,86541.0,3943.0
62853.85417366175,6.803267070397851,154086.0,86549.0,3960.0
62853.8642675298,6.8133609384531155,154056.0,86569.0,3966.0
62853.874361397866,6.823454806515656,154060.0,86510.0,3945.0
62853.88445526592,6.83354867457092,154061.0,86537.0,3933.0
62853.89454913398,6.843642542626185,154095.0,86545.0,3961.0
62853.90464300203,6.853736410681449,154125.0,86536.0,3966.0
62853.914736870094,6.86383027874399,154112.0,86551.0,3924.0
62853.92483073815,6.873924146799254,154138.0,86557.0,3965.0
62853.934924606205,6.884018014854519,154122.0,86549.0,3961.0
62853.94501847426,6.894111882909783,154096.0,86570.0,3945.0
62853.955112342315,6.904205750965048,154142.0,86535.0,3979.0
62853.96520621038,6.914299619027588,154112.0,86544.0,3950.0
62853.97530007843,6.9243934870828525,154144.0,86547.0,3978.0
62853.98539394649,6.934487355138117,154138.0,86545.0,3938.0
62853.99548781454,6.9445812231933814,154158.0,86567.0,3985.0
62854.005581682606,6.954675091255922,154124.0,86507.0,3929.0
62854.01567555066,6.964768959311186,154145.0,86554.0,3959.0
62854.02576941872,6.974862827366451,154140.0,86562.0,3971.0
62854.03586328677,6.984956695421715,154124.0,86541.0,3932.0
62854.045957154834,6.995050563484256,154157.0,86562.0,3956.0
62854.05605102289,7.00514443153952,154150.0,86568.0,3965.0
62854.066144890945,7.015238299594785,154147.0,86547.0,3981.0
62854.076238759,7.025332167650049,154160.0,86557.0,3962.0
62854.08633262706,7.0354260357125895,154151.0,86566.0,3978.0
62854.09642649512,7.045519903767854,154179.0,86560.0,3975.0
62854.10652036317,7.055613771823118,154163.0,86535.0,3956.0
62854.11661423123,7.065707639878383,154186.0,86567.0,3947.0
62854.126708099284,7.075801507933647,154204.0,86573.0,3992.0
62854.13680196735,7.085895375996188,154154.0,86549.0,3969.0
62854.1468958354,7.095989244051452,154180.0,86558.0,3970.0
62854.15698970346,7.106083112106717,154164.0,86538.0,3962.0
62854.16708357151,7.116176980161981,154157.0,86549.0,3960.0
62854.177177439575,7.126270848224522,154196.0,86558.0,3976.0
62854.18727130763,7.136364716279786,154206.0,86560.0,3952.0
62854.197365175685,7.1464585843350505,154177.0,86561.0,3991.0
62854.20745904374,7.156552452390315,154145.0,86545.0,3972.0
62854.2175529118,7.166646320452855,154128.0,86559.0,3967.0
62854.22764677986,7.17674018850812,154122.0,86568.0,3972.0
62854.23774064791,7.186834056563384,154043.0,86510.0,3938.0
62854.24783451597,7.196927924618649,154047.0,86539.0,3969.0
62854.257928384024,7.207021792673913,154031.0,86530.0,3946.0
62854.26802225209,7.217115660736454,153957.0,86511.0,3958.0
62854.27811612014,7.227209528791718,153993.0,86532.0,3966.0
62854.2882099882,7.237303396846983,153996.0,86509.0,3962.0
62854.29830385625,7.247397264902247,153974.0,86513.0,3933.0
62854.308397724315,7.2574911329647875,153962.0,86481.0,3941.0
62854.31849159237,7.267585001020052,154008.0,86541.0,3941.0
62854.328585460426,7.2776788690753165,153980.0,86499.0,3937.0
62854.33867932848,7.287772737130581,154009.0,86519.0,3959.0
62854.34877319654,7.297866605193121,153980.0,86535.0,3937.0
62854.3588670646,7.307960473248386,153979.0,86496.0,3944.0
62854.368960932654,7.31805434130365,154026.0,86539.0,3945.0
62854.37905480071,7.328148209358915,154010.0,86538.0,3950.0
62854.38914866877,7.338242077421455,153994.0,86522.0,3931.0
62854.39924253683,7.34833594547672,153971.0,86504.0,3934.0
62854.40933640488,7.358429813531984,154001.0,86540.0,3954.0
62854.41943027294,7.368523681587249,153971.0,86481.0,3918.0
62854.42952414099,7.378617549642513,153984.0,86515.0,3936.0
62854.439618009055,7.3887114177050535,153965.0,86489.0,3920.0
62854.44971187711,7.398805285760318,153969.0,86498.0,3934.0
62854.459805745166,7.408899153815582,154013.0,86511.0,3940.0
62854.46989961322,7.418993021870847,153993.0,86517.0,3937.0
62854.47999348128,7.429086889933387,154035.0,86502.0,3947.0
62854.49008734934,7.439180757988652,153964.0,86495.0,3928.0
62854.500181217394,7.449274626043916,154023.0,86537.0,3922.0
62854.51027508545,7.459368494099181,153991.0,86518.0,3923.0
62854.52036895351,7.469462362161721,153994.0,86528.0,3941.0
62854.53046282157,7.479556230216986,153957.0,86518.0,3947.0
62854.54055668962,7.48965009827225,154028.0,86547.0,3959.0
62854.55065055768,7.4997439663275145,153996.0,86516.0,3932.0
62854.56074442574,7.509837834390055,154001.0,86517.0,3907.0
62854.570838293796,7.519931702445319,154000.0,86523.0,3960.0
62854.58093216185,7.530025570500584,153972.0,86491.0,3910.0
62854.591026029906,7.540119438555848,153993.0,86519.0,3928.0
62854.60111989796,7.550213306611113,153967.0,86551.0,3925.0
62854.611213766024,7.560307174673653,154001.0,86539.0,3923.0
62854.62130763408,7.570401042728918,154020.0,86521.0,3913.0
62854.631401502134,7.580494910784182,154015.0,86529.0,3926.0
62854.64149537019,7.590588778839447,154011.0,86527.0,3954.0
62854.65158923825,7.600682646901987,154030.0,86542.0,3940.0
62854.66168310631,7.6107765149572515,154038.0,86547.0,3946.0
62854.67177697436,7.620870383012516,154001.0,86517.0,3914.0
62854.68187084242,7.63096425106778,154038.0,86525.0,3932.0
62854.69196471048,7.641058119130321,154050.0,86541.0,3910.0
62854.702058578536,7.651151987185585,154058.0,86542.0,3962.0
62854.71215244659,7.66124585524085,154044.0,86528.0,3943.0
62854.722246314646,7.671339723296114,154021.0,86517.0,3933.0
62854.73234018271,7.681433591358655,154068.0,86543.0,3961.0
62854.742434050764,7.691527459413919,154052.0,86532.0,3924.0
62854.75252791882,7.701621327469184,154072.0,86535.0,3942.0
62854.762621786875,7.711715195524448,154093.0,86572.0,3966.0
62854.77271565493,7.7218090635797125,154084.0,86531.0,3929.0
62854.78280952299,7.731902931642253,154073.0,86518.0,3929.0
62854.79290339105,7.741996799697517,154085.0,86539.0,3946.0
62854.8029972591,7.752090667752782,154088.0,86568.0,3947.0
62854.81309112716,7.762184535808046,154059.0,86510.0,3926.0
62854.82318499522,7.772278403870587,154086.0,86537.0,3928.0
62854.833278863276,7.782372271925851,154089.0,86539.0,3936.0
62854.84337273133,7.792466139981116,154073.0,86533.0,3944.0
62854.85346659939,7.80256000803638,154127.0,86562.0,3971.0
62854.86356046745,7.812653876098921,154118.0,86565.0,3978.0
62854.873654335504,7.822747744154185,154100.0,86543.0,3972.0
62854.88374820356,7.8328416122094495,154126.0,86573.0,3943.0
62854.893842071615,7.842935480264714,154093.0,86526.0,3946.0
62854.90393593968,7.853029348327254,154128.0,86547.0,3971.0
62854.91402980773,7.863123216382519,154126.0,86544.0,3944.0
62854.92412367579,7.873217084437783,154129.0,86547.0,3964.0
62854.93421754384,7.883310952493048,154085.0,86556.0,3926.0
62854.9443114119,7.893404820548312,154096.0,86528.0,3937.0
62854.95440527996,7.903498688610853,154132.0,86550.0,3934.0
62854.964499148016,7.913592556666117,154149.0,86545.0,3957.0
62854.97459301607,7.923686424721382,154154.0,86555.0,3983.0
62854.98468688413,7.933780292776646,154132.0,86559.0,3940.0
62854.99478075219,7.9438741608391865,154141.0,86538.0,3944.0
62855.004874620245,7.953968028894451,154175.0,86566.0,3967.0
62855.0149684883,7.9640618969497154,154184.0,86563.0,4002.0
62855.025062356355,7.97415576500498,154167.0,86565.0,3953.0
62855.03515622442,7.98424963306752,154167.0,86544.0,3948.0
62855.04525009247,7.994343501122785,154194.0,86562.0,3960.0
62855.05534396053,8.00443736917805,154210.0,86547.0,3978.0
62855.06543782858,8.014531237233314,154184.0,86536.0,3980.0
62855.07553169664,8.024625105288578,154166.0,86516.0,3943.0
62855.0856255647,8.034718973351119,154147.0,86558.0,3969.0
62855.09571943276,8.044812841406383,154106.0,86545.0,3946.0
62855.10581330081,8.054906709461648,154090.0,86557.0,3960.0
62855.11590716887,8.065000577516912,154082.0,86534.0,3984.0
62855.12600103693,8.075094445579452,154041.0,86529.0,3949.0
62855.136094904985,8.085188313634717,153976.0,86495.0,3944.0
62855.14618877304,8.095282181689981,153992.0,86504.0,3935.0
62855.156282641095,8.105376049745246,153954.0,86504.0,3952.0
62855.16637650916,8.115469917807786,153968.0,86500.0,3914.0
62855.17647037721,8.12556378586305,153918.0,86517.0,3923.0
62855.18656424527,8.135657653918315,153982.0,86485.0,3943.0
62855.196658113324,8.14575152197358,153970.0,86529.0,3909.0
62855.206751981386,8.15584539003612,153949.0,86499.0,3916.0
62855.21684584944,8.165939258091385,153930.0,86504.0,3898.0
62855.2269397175,8.176033126146649,153934.0,86485.0,3916.0
62855.23703358555,8.186126994201913,153959.0,86481.0,3883.0
62855.24712745361,8.196220862257178,153952.0,86509.0,3919.0
62855.25722132167,8.206314730319718,153953.0,86500.0,3904.0
62855.267315189725,8.216408598374983,153934.0,86495.0,3902.0
62855.27740905778,8.226502466430247,153949.0,86521.0,3941.0
62855.287502925836,8.236596334485512,153948.0,86499.0,3925.0
62855.2975967939,8.246690202548052,153944.0,86494.0,3912.0
62855.30769066195,8.256784070603317,153924.0,86524.0,3907.0
62855.31778453001,8.266877938658581,153927.0,86482.0,3889.0
62855.327878398064,8.276971806713846,153942.0,86498.0,3913.0
62855.33797226613,8.287065674776386,153932.0,86512.0,3927.0
62855.34806613418,8.29715954283165,153957.0,86505.0,3934.0
62855.35816000224,8.307253410886915,153894.0,86471.0,3892.0
62855.36825387029,8.31734727894218,153946.0,86498.0,3901.0
62855.378347738355,8.32744114700472,153951.0,86526.0,3918.0
62855.38844160641,8.337535015059984,153935.0,86490.0,3889.0
62855.398535474465,8.347628883115249,153971.0,86524.0,3889.0
62855.40862934252,8.357722751170513,153940.0,86498.0,3896.0
62855.418723210576,8.367816619225778,153940.0,86493.0,3918.0
62855.42881707864,8.377910487288318,153939.0,86487.0,3888.0
62855.438910946694,8.388004355343583,153926.0,86512.0,3918.0
62855.44900481475,8.398098223398847,153965.0,86509.0,3936.0
62855.459098682804,8.408192091454112,153952.0,86509.0,3908.0
62855.46919255087,8.418285959516652,154004.0,86497.0,3903.0
62855.47928641892,8.428379827571916,153939.0,86490.0,3892.0
62855.48938028698,8.43847369562718,153916.0,86484.0,3896.0
62855.49947415503,8.448567563682445,153951.0,86503.0,3909.0
62855.509568023095,8.458661431744986,153969.0,86481.0,3908.0
62855.51966189115,8.46875529980025,153962.0,86479.0,3908.0
62855.529755759206,8.478849167855515,153987.0,86527.0,3917.0
62855.53984962726,8.48894303591078,153964.0,86506.0,3906.0
62855.54994349532,8.49903690397332,153973.0,86516.0,3934.0
62855.56003736338,8.509130772028584,153975.0,86496.0,3892.0
62855.570131231434,8.519224640083848,153966.0,86538.0,3934.0
62855.58022509949,8.529318508139113,153992.0,86510.0,3917.0
62855.590318967545,8.539412376194377,153992.0,86524.0,3933.0
62855.60041283561,8.549506244256918,153975.0,86499.0,3918.0
62855.61050670366,8.559600112312182,154002.0,86489.0,3912.0
62855.62060057172,8.569693980367447,153990.0,86515.0,3911.0
62855.63069443977,8.579787848422711,154019.0,86502.0,3892.0
62855.640788307835,8.589881716485252,154027.0,86508.0,3932.0
62855.65088217589,8.599975584540516,153985.0,86503.0,3909.0
62855.660976043946,8.61006945259578,154021.0,86514.0,3906.0
62855.671069912,8.620163320651045,154033.0,86525.0,3913.0
62855.681163780064,8.630257188713585,154004.0,86524.0,3916.0
62855.69125764812,8.64035105676885,154049.0,86518.0,3938.0
62855.701351516174,8.650444924824114,154039.0,86521.0,3915.0
62855.71144538423,8.660538792879379,154030.0,86512.0,3904.0
62855.72153925229,8.67063266094192,154037.0,86512.0,3922.0
62855.73163312035,8.680726528997184,154030.0,86509.0,3930.0
62855.7417269884,8.690820397052448,154022.0,86525.0,3898.0
62855.75182085646,8.700914265107713,154033.0,86505.0,3922.0
62855.76191472451,8.711008133162977,154037.0,86522.0,3917.0
62855.772008592576,8.721102001225518,154081.0,86525.0,3945.0
62855.78210246063,8.731195869280782,154060.0,86532.0,3931.0
62855.792196328686,8.741289737336047,154058.0,86521.0,3901.0
62855.80229019674,8.751383605391311,154039.0,86508.0,3912.0
62855.812384064804,8.761477473453851,154084.0,86524.0,3944.0
62855.82247793286,8.771571341509116,154080.0,86526.0,3931.0
62855.832571800915,8.78166520956438,154103.0,86519.0,3918.0
62855.84266566897,8.791759077619645,154096.0,86510.0,3941.0
62855.85275953703,8.801852945682185,154122.0,86544.0,3942.0
62855.86285340509,8.81194681373745,154099.0,86537.0,3932.0
62855.87294727314,8.822040681792714,154140.0,86584.0,3903.0
62855.8830411412,8.832134549847979,154099.0,86557.0,3956.0
62855.89313500925,8.842228417903243,154117.0,86560.0,3952.0
62855.903228877316,8.852322285965784,154114.0,86524.0,3928.0
62855.91332274537,8.862416154021048,154136.0,86563.0,3927.0
62855.92341661343,8.872510022076312,154084.0,86535.0,3909.0
62855.93351048148,8.882603890131577,154135.0,86539.0,3918.0
62855.943604349544,8.892697758194117,154125.0,86536.0,3933.0
62855.9536982176,8.902791626249382,154117.0,86535.0,3959.0
62855.963792085655,8.912885494304646,154160.0,86565.0,3962.0
62855.97388595371,8.92297936235991,154120.0,86532.0,3933.0
62855.98397982177,8.933073230422451,154150.0,86545.0,3955.0
62855.99407368983,8.943167098477716,154136.0,86512.0,3945.0
62856.00416755788,8.95326096653298,154101.0,86529.0,3960.0
62856.01426142594,8.963354834588245,154122.0,86521.0,3949.0
62856.024355294,8.973448702650785,154091.0,86530.0,3929.0
62856.034449162056,8.98354257070605,154097.0,86510.0,3934.0
62856.04454303011,8.993636438761314,154059.0,86516.0,3918.0
62856.05463689817,9.003730306816578,154046.0,86515.0,3943.0
62856.06473076622,9.013824174871843,153977.0,86493.0,3904.0
62856.074824634285,9.023918042934383,153967.0,86497.0,3917.0
62856.08491850234,9.034011910989648,153959.0,86507.0,3913.0
62856.095012370395,9.044105779044912,153937.0,86487.0,3899.0
62856.10510623845,9.054199647100177,153901.0,86483.0,3906.0
62856.11520010651,9.064293515162717,153910.0,86485.0,3907.0
62856.12529397457,9.074387383217982,153903.0,86502.0,3906.0
62856.13538784262,9.084481251273246,153899.0,86460.0,3882.0
62856.14548171068,9.09457511932851,153893.0,86520.0,3910.0
62856.15557557874,9.104668987391051,153903.0,86484.0,3890.0
62856.1656694468,9.114762855446315,153886.0,86480.0,3887.0
62856.17576331485,9.12485672350158,153895.0,86495.0,3869.0
62856.18585718291,9.134950591556844,153921.0,86479.0,3906.0
62856.19595105097,9.145044459619385,153928.0,86479.0,3887.0
62856.206044919025,9.15513832767465,153888.0,86474.0,3885.0
62856.21613878708,9.165232195729914,153908.0,86485.0,3875.0
62856.226232655135,9.175326063785178,153900.0,86467.0,3911.0
62856.23632652319,9.185419931840443,153921.0,86487.0,3895.0
62856.24642039125,9.195513799902983,153939.0,86509.0,3872.0
62856.25651425931,9.205607667958247,153891.0,86485.0,3867.0
62856.266608127364,9.215701536013512,153903.0,86482.0,3886.0
62856.27670199542,9.225795404068776,153892.0,86483.0,3909.0
62856.28679586348,9.235889272131317,153898.0,86470.0,3865.0
62856.29688973154,9.245983140186581,153877.0,86462.0,3857.0
62856.30698359959,9.256077008241846,153931.0,86496.0,3854.0
62856.31707746765,9.26617087629711,153905.0,86485.0,3894.0
62856.32717133571,9.27626474435965,153910.0,86472.0,3898.0
62856.337265203765,9.286358612414915,153893.0,86496.0,3868.0
62856.34735907182,9.29645248047018,153887.0,86451.0,3883.0
62856.357452939876,9.306546348525444,153905.0,86489.0,3902.0
62856.36754680794,9.316640216587984,153913.0,86467.0,3874.0
62856.37764067599,9.326734084643249,153936.0,86494.0,3903.0
62856.38773454405,9.336827952698513,153913.0,86473.0,3853.0
62856.397828412104,9.346921820753778,153903.0,86474.0,3886.0
62856.40792228016,9.357015688809042,153890.0,86459.0,3907.0
62856.41801614822,9.367109556871583,153911.0,86503.0,3866.0
62856.42811001628,9.377203424926847,153912.0,86467.0,3883.0
62856.43820388433,9.387297292982112,153907.0,86476.0,3891.0
62856.44829775239,9.397391161037376,153884.0,86480.0,3884.0
62856.45839162045,9.407485029099917,153879.0,86486.0,3873.0
62856.468485488505,9.417578897155181,153937.0,86507.0,3888.0
62856.47857935656,9.427672765210446,153918.0,86484.0,3892.0
62856.488673224616,9.43776663326571,153915.0,86460.0,3881.0
62856.49876709268,9.44786050132825,153941.0,86488.0,3884.0
62856.508860960734,9.457954369383515,153908.0,86456.0,3904.0
62856.51895482879,9.46804823743878,153957.0,86500.0,3891.0
62856.529048696844,9.478142105494044,153927.0,86499.0,3889.0
62856.53914256491,9.488235973556584,153921.0,86455.0,3852.0
62856.54923643296,9.498329841611849,153937.0,86488.0,3888.0
62856.55933030102,9.508423709667113,153947.0,86498.0,3920.0
62856.56942416907,9.518517577722378,153970.0,86490.0,3883.0
62856.57951803713,9.528611445777642,153937.0,86477.0,3877.0
62856.58961190519,9.538705313840182,153933.0,86516.0,3889.0
62856.599705773246,9.548799181895447,153960.0,86491.0,3918.0
62856.6097996413,9.558893049950711,153975.0,86471.0,3883.0
62856.619893509356,9.568986918005976,154014.0,86503.0,3874.0
62856.62998737742,9.579080786068516,154013.0,86520.0,3911.0
62856.640081245474,9.58917465412378,153982.0,86498.0,3880.0
62856.65017511353,9.599268522179045,153980.0,86497.0,3896.0
62856.660268981585,9.60936239023431,154004.0,86510.0,3904.0
62856.67036284965,9.61945625829685,153965.0,86500.0,3878.0
62856.6804567177,9.629550126352115,153991.0,86524.0,3865.0
62856.69055058576,9.639643994407379,154001.0,86500.0,3904.0
62856.70064445381,9.649737862462644,153980.0,86490.0,3929.0
62856.710738321875,9.659831730525184,154009.0,86508.0,3888.0
62856.72083218993,9.669925598580448,154034.0,86524.0,3926.0
62856.730926057986,9.680019466635713,154021.0,86507.0,3912.0
62856.74101992604,9.690113334690977,153998.0,86478.0,3885.0
62856.7511137941,9.700207202746242,154046.0,86526.0,3873.0
62856.76120766216,9.710301070808782,153995.0,86499.0,3918.0
62856.771301530214,9.720394938864047,154031.0,86511.0,3912.0
62856.78139539827,9.730488806919311,154030.0,86493.0,3913.0
62856.791489266325,9.740582674974576,154063.0,86522.0,3925.0
62856.80158313439,9.750676543037116,154032.0,86511.0,3877.0
62856.81167700244,9.76077041109238,154051.0,86523.0,3920.0
62856.8217708705,9.770864279147645,154043.0,86519.0,3924.0
62856.83186473855,9.78095814720291,154041.0,86476.0,3904.0
62856.841958606616,9.79105201526545,154072.0,86535.0,3922.0
62856.85205247467,9.801145883320714,154066.0,86517.0,3914.0
62856.862146342726,9.811239751375979,154066.0,86488.0,3913.0
62856.87224021078,9.821333619431243,154051.0,86480.0,3901.0
62856.88233407884,9.831427487486508,154089.0,86539.0,3936.0
62856.8924279469,9.841521355549048,154067.0,86508.0,3924.0
62856.902521814955,9.851615223604313,154061.0,86516.0,3903.0
62856.91261568301,9.861709091659577,154098.0,86543.0,3939.0
62856.922709551065,9.871802959714842,154079.0,86517.0,3912.0
62856.93280341913,9.881896827777382,154080.0,86528.0,3912.0
62856.94289728718,9.891990695832646,154076.0,86539.0,3909.0
62856.95299115524,9.902084563887911,154030.0,86499.0,3937.0
62856.96308502329,9.912178431943175,153992.0,86507.0,3880.0
62856.973178891356,9.922272300005716,153988.0,86495.0,3912.0
62856.98327275941,9.93236616806098,153988.0,86491.0,3926.0
62856.99336662747,9.942460036116245,153916.0,86457.0,3910.0
62857.00346049552,9.95255390417151,153940.0,86494.0,3906.0
62857.013554363584,9.96264777223405,153911.0,86482.0,3886.0
62857.02364823164,9.972741640289314,153867.0,86481.0,3893.0
62857.033742099695,9.982835508344579,153846.0,86465.0,3881.0
62857.04383596775,9.992929376399843,153860.0,86479.0,3897.0
62857.053929835805,10.003023244455107,153881.0,86475.0,3885.0
62857.06402370387,10.013117112517648,153868.0,86467.0,3887.0
62857.07411757192,10.023210980572912,153912.0,86488.0,3894.0
62857.08421143998,10.033304848628177,153847.0,86448.0,3865.0
62857.094305308034,10.043398716683441,153880.0,86467.0,3872.0
62857.104399176096,10.053492584745982,153866.0,86499.0,3876.0
62857.11449304415,10.063586452801246,153909.0,86490.0,3906.0
62857.12458691221,10.07368032085651,153901.0,86483.0,3863.0
62857.13468078026,10.083774188911775,153889.0,86478.0,3894.0
62857.144774648325,10.093868056974316,153889.0,86497.0,3888.0
62857.15486851638,10.10396192502958,153888.0,86479.0,3875.0
62857.164962384435,10.114055793084844,153873.0,86496.0,3889.0
62857.17505625249,10.124149661140109,153892.0,86485.0,3873.0
62857.18515012055,10.13424352920265,153907.0,86486.0,3878.0
62857.19524398861,10.144337397257914,153900.0,86479.0,3861.0
62857.20533785666,10.154431265313178,153909.0,86490.0,3904.0
62857.21543172472,10.164525133368443,153850.0,86445.0,3848.0
62857.225525592774,10.174619001423707,153896.0,86490.0,3874.0
62857.23561946084,10.184712869486248,153915.0,86498.0,3884.0
62857.24571332889,10.194806737541512,153872.0,86464.0,3839.0
62857.25580719695,10.204900605596777,153921.0,86499.0,3878.0
62857.265901065,10.214994473652041,153902.0,86486.0,3874.0
62857.275994933065,10.225088341714581,153886.0,86484.0,3910.0
62857.28608880112,10.235182209769846,153883.0,86466.0,3868.0
62857.296182669175,10.24527607782511,153905.0,86501.0,3903.0
62857.30627653723,10.255369945880375,153884.0,86470.0,3869.0
62857.31637040529,10.265463813942915,153899.0,86478.0,3883.0
62857.32646427335,10.27555768199818,153919.0,86479.0,3887.0
62857.336558141404,10.285651550053444,153902.0,86466.0,3884.0
62857.34665200946,10.295745418108709,153857.0,86453.0,3863.0
62857.35674587752,10.30583928617125,153905.0,86489.0,3892.0
62857.36683974558,10.315933154226514,153917.0,86488.0,3896.0
62857.37693361363,10.326027022281778,153903.0,86461.0,3846.0
62857.38702748169,10.336120890337043,153920.0,86492.0,3877.0
62857.39712134974,10.346214758392307,153937.0,86496.0,3868.0
62857.407215217805,10.356308626454847,153905.0,86476.0,3865.0
62857.41730908586,10.366402494510112,153924.0,86507.0,3884.0
62857.427402953916,10.376496362565376,153937.0,86498.0,3890.0
62857.43749682197,10.38659023062064,153933.0,86462.0,3887.0
62857.44759069003,10.396684098683181,153948.0,86467.0,3884.0
62857.45768455809,10.406777966738446,153963.0,86520.0,3909.0
62857.467778426144,10.41687183479371,153958.0,86492.0,3880.0
62857.4778722942,10.426965702848975,153934.0,86436.0,3888.0
62857.48796616226,10.437059570911515,153981.0,86509.0,3907.0
62857.49806003032,10.44715343896678,153960.0,86455.0,3883.0
62857.50815389837,10.457247307022044,153958.0,86493.0,3883.0
62857.51824776643,10.467341175077308,153954.0,86478.0,3876.0
62857.52834163449,10.477435043139849,153991.0,86514.0,3908.0
62857.538435502545,10.487528911195113,153941.0,86492.0,3879.0
62857.5485293706,10.497622779250378,153987.0,86496.0,3899.0
62857.558623238656,10.507716647305642,153967.0,86486.0,3870.0
62857.56871710671,10.517810515360907,153974.0,86483.0,3881.0
62857.578810974774,10.527904383423447,153998.0,86493.0,3889.0
62857.58890484283,10.537998251478712,153990.0,86504.0,3897.0
62857.598998710884,10.548092119533976,153968.0,86509.0,3898.0
62857.60909257894,10.55818598758924,154002.0,86532.0,3929.0
62857.619186447,10.568279855651781,154005.0,86512.0,3914.0
62857.62928031506,10.578373723707045,154005.0,86498.0,3895.0
62857.63937418311,10.58846759176231,154018.0,86505.0,3872.0
62857.64946805117,10.598561459817574,154022.0,86510.0,3895.0
62857.65956191923,10.608655327880115,153989.0,86485.0,3875.0
62857.669655787286,10.61874919593538,154019.0,86515.0,3893.0
62857.67974965534,10.628843063990644,153992.0,86511.0,3906.0
62857.689843523396,10.638936932045908,154040.0,86521.0,3936.0
62857.69993739145,10.649030800101173,154031.0,86492.0,3882.0
62857.710031259514,10.659124668163713,154048.0,86519.0,3903.0
62857.72012512757,10.669218536218978,154043.0,86527.0,3906.0
62857.730218995624,10.679312404274242,154039.0,86510.0,3921.0
62857.74031286368,10.689406272329506,154061.0,86543.0,3925.0
62857.75040673174,10.699500140392047,154038.0,86533.0,3921.0
62857.7605005998,10.709594008447311,154063.0,86526.0,3900.0
62857.77059446785,10.719687876502576,154051.0,86504.0,3896.0
62857.78068833591,10.72978174455784,154090.0,86536.0,3940.0
62857.79078220397,10.73987561262038,154045.0,86514.0,3894.0
62857.800876072026,10.749969480675645,154076.0,86527.0,3910.0
62857.81096994008,10.76006334873091,154047.0,86538.0,3893.0
62857.82106380814,10.770157216786174,154021.0,86512.0,3889.0
62857.8311576762,10.780251084848715,154048.0,86526.0,3893.0
62857.841251544254,10.790344952903979,153998.0,86510.0,3911.0
62857.85134541231,10.800438820959243,153967.0,86512.0,3921.0
62857.861439280365,10.810532689014508,153943.0,86514.0,3900.0
62857.87153314842,10.820626557069772,153914.0,86508.0,3920.0
62857.88162701648,10.830720425132313,153924.0,86505.0,3909.0
62857.89172088454,10.840814293187577,153888.0,86471.0,3861.0
62857.90181475259,10.850908161242842,153870.0,86478.0,3859.0
62857.91190862065,10.861002029298106,153869.0,86462.0,3909.0
62857.92200248871,10.871095897360647,153876.0,86475.0,3883.0
62857.932096356766,10.881189765415911,153867.0,86463.0,3874.0
62857.94219022482,10.891283633471176,153869.0,86447.0,3880.0
62857.95228409288,10.90137750152644,153899.0,86446.0,3886.0
62857.96237796094,10.91147136958898,153899.0,86487.0,3884.0
62857.972471828994,10.921565237644245,153914.0,86495.0,3866.0
62857.98256569705,10.93165910569951,153882.0,86499.0,3895.0
62857.992659565105,10.941752973754774,153879.0,86485.0,3873.0
62858.00275343317,10.951846841817314,153912.0,86482.0,3885.0
62858.01284730122,10.961940709872579,153903.0,86459.0,3863.0
62858.02294116928,10.972034577927843,153866.0,86461.0,3875.0
62858.03303503733,10.982128445983108,153913.0,86511.0,3867.0
62858.04312890539,10.992222314038372,153907.0,86491.0,3892.0
62858.05322277345,11.002316182100913,153908.0,86498.0,3900.0
62858.06331664151,11.012410050156177,153941.0,86517.0,3907.0
62858.07341050956,11.022503918211441,153907.0,86476.0,3906.0
62858.08350437762,11.032597786266706,153922.0,86488.0,3885.0
62858.09359824568,11.042691654329246,153888.0,86466.0,3875.0
62858.103692113735,11.05278552238451,153940.0,86523.0,3885.0
62858.11378598179,11.062879390439775,153916.0,86476.0,3865.0
62858.123879849845,11.07297325849504,153919.0,86493.0,3874.0
62858.13397371791,11.08306712655758,153931.0,86478.0,3906.0
62858.14406758596,11.093160994612845,153875.0,86474.0,3850.0
62858.15416145402,11.10325486266811,153899.0,86472.0,3883.0
62858.16425532207,11.113348730723374,153907.0,86489.0,3892.0
62858.174349190136,11.123442598785914,153878.0,86497.0,3889.0
62858.18444305819,11.133536466841178,153882.0,86486.0,3858.0
62858.19453692625,11.143630334896443,153937.0,86516.0,3906.0
62858.2046307943,11.153724202951707,153906.0,86492.0,3884.0
62858.21472466236,11.163818071006972,153930.0,86481.0,3877.0
62858.22481853042,11.173911939069512,153929.0,86472.0,3879.0
62858.234912398475,11.184005807124777,153914.0,86496.0,3885.0
62858.24500626653,11.194099675180041,153933.0,86494.0,3881.0
62858.255100134586,11.204193543235306,153911.0,86507.0,3884.0
62858.26519400265,11.214287411297846,153909.0,86486.0,3862.0
62858.2752878707,11.22438127935311,153941.0,86490.0,3874.0
62858.28538173876,11.234475147408375,153937.0,86500.0,3889.0
62858.295475606814,11.24456901546364,153941.0,86521.0,3889.0
62858.30556947488,11.25466288352618,153941.0,86501.0,3902.0
62858.31566334293,11.264756751581444,153944.0,86511.0,3873.0
62858.32575721099,11.274850619636709,153991.0,86502.0,3918.0
62858.33585107904,11.284944487691973,153979.0,86504.0,3885.0
62858.345944947105,11.295038355754514,153983.0,86506.0,3881.0
62858.35603881516,11.305132223809778,153988.0,86527.0,3914.0
62858.366132683215,11.315226091865043,153983.0,86491.0,3899.0
62858.37622655127,11.325319959920307,153997.0,86518.0,3891.0
62858.386320419326,11.335413827975572,154020.0,86527.0,3901.0
62858.39641428739,11.345507696038112,154034.0,86512.0,3924.0
62858.40650815544,11.355601564093377,153974.0,86500.0,3883.0
62858.4166020235,11.365695432148641,154000.0,86535.0,3918.0
62858.426695891554,11.375789300203905,154008.0,86524.0,3933.0
62858.43678975962,11.385883168266446,153976.0,86498.0,3884.0
62858.44688362767,11.39597703632171,154028.0,86521.0,3917.0
62858.45697749573,11.406070904376975,154023.0,86516.0,3905.0
62858.46707136378,11.41616477243224,154019.0,86507.0,3900.0
62858.477165231845,11.42625864049478,154025.0,86518.0,3877.0
62858.4872590999,11.436352508550044,154031.0,86536.0,3927.0
62858.497352967956,11.446446376605309,154037.0,86523.0,3909.0
62858.50744683601,11.456540244660573,154013.0,86507.0,3900.0
62858.517540704066,11.466634112715838,154055.0,86555.0,3933.0
62858.52763457213,11.476727980778378,154039.0,86532.0,3909.0
62858.537728440184,11.486821848833642,154044.0,86536.0,3917.0
62858.54782230824,11.496915716888907,154067.0,86500.0,3924.0
62858.557916176294,11.507009584944171,154037.0,86505.0,3921.0
62858.56801004436,11.517103453006712,154076.0,86542.0,3941.0
62858.57810391241,11.527197321061976,154057.0,86520.0,3913.0
62858.58819778047,11.53729118911724,154088.0,86551.0,3920.0
62858.59829164852,11.547385057172505,154048.0,86500.0,3908.0
62858.608385516585,11.557478925235046,154095.0,86525.0,3903.0
62858.61847938464,11.56757279329031,154089.0,86530.0,3922.0
62858.628573252696,11.577666661345575,154093.0,86529.0,3933.0
62858.63866712075,11.587760529400839,154090.0,86535.0,3920.0
62858.64876098881,11.59785439746338,154088.0,86525.0,3913.0
62858.65885485687,11.607948265518644,154091.0,86534.0,3926.0
62858.668948724924,11.618042133573908,154059.0,86527.0,3901.0
62858.67904259298,11.628136001629173,154085.0,86550.0,3962.0
62858.689136461035,11.638229869684437,153997.0,86514.0,3906.0
62858.6992303291,11.648323737746978,153991.0,86506.0,3912.0
62858.70932419715,11.658417605802242,153988.0,86502.0,3919.0
62858.71941806521,11.668511473857507,153939.0,86492.0,3935.0
62858.72951193326,11.678605341912771,153903.0,86509.0,3905.0
62858.739605801326,11.688699209975312,153888.0,86494.0,3897.0
62858.74969966938,11.698793078030576,153903.0,86504.0,3867.0
62858.759793537436,11.70888694608584,153849.0,86499.0,3888.0
62858.76988740549,11.718980814141105,153898.0,86497.0,3912.0
62858.779981273554,11.729074682203645,153874.0,86510.0,3892.0
62858.79007514161,11.73916855025891,153864.0,86515.0,3888.0
62858.800169009664,11.749262418314174,153862.0,86497.0,3866.0
62858.81026287772,11.759356286369439,153886.0,86502.0,3875.0
62858.82035674578,11.76945015443198,153884.0,86488.0,3868.0
62858.83045061384,11.779544022487244,153852.0,86506.0,3878.0
62858.84054448189,11.789637890542508,153896.0,86495.0,3884.0
62858.85063834995,11.799731758597773,153901.0,86504.0,3878.0
62858.860732218,11.809825626653037,153900.0,86509.0,3894.0
62858.870826086066,11.819919494715577,153894.0,86491.0,3887.0
62858.88091995412,11.830013362770842,153880.0,86480.0,3876.0
62858.891013822176,11.840107230826106,153900.0,86480.0,3872.0
62858.90110769023,11.85020109888137,153904.0,86497.0,3892.0
62858.911201558294,11.860294966943911,153910.0,86509.0,3894.0
62858.92129542635,11.870388834999176,153917.0,86512.0,3886.0
62858.931389294405,11.88048270305444,153928.0,86511.0,3907.0
62858.94148316246,11.890576571109705,153952.0,86522.0,3902.0
62858.95157703052,11.900670439172245,153883.0,86502.0,3887.0
62858.96167089858,11.91076430722751,153931.0,86514.0,3886.0
62858.97176476663,11.920858175282774,153928.0,86493.0,3884.0
62858.98185863469,11.930952043338038,153894.0,86484.0,3870.0
62858.99195250275,11.941045911400579,153909.0,86487.0,3888.0
62859.002046370806,11.951139779455843,153898.0,86488.0,3881.0
62859.01214023886,11.961233647511108,153923.0,86517.0,3872.0
62859.02223410692,11.971327515566372,153885.0,86516.0,3900.0
62859.03232797497,11.981421383621637,153919.0,86516.0,3875.0
62859.042421843034,11.991515251684177,153954.0,86503.0,3912.0
62859.05251571109,12.001609119739442,153917.0,86480.0,3880.0
62859.062609579145,12.011702987794706,153914.0,86515.0,3914.0
62859.0727034472,12.02179685584997,153919.0,86503.0,3894.0
62859.08279731526,12.031890723912511,153900.0,86518.0,3908.0
62859.09289118332,12.041984591967775,153906.0,86475.0,3877.0
62859.10298505137,12.05207846002304,153960.0,86535.0,3904.0
62859.11307891943,12.062172328078304,153925.0,86501.0,3886.0
62859.12317278749,12.072266196140845,153941.0,86489.0,3882.0
62859.133266655546,12.08236006419611,153941.0,86516.0,3915.0
62859.1433605236,12.092453932251374,153986.0,86505.0,3922.0
62859.15345439166,12.102547800306638,153966.0,86516.0,3889.0
62859.16354825972,12.112641668369179,153947.0,86502.0,3882.0
62859.173642127775,12.122735536424443,153993.0,86529.0,3912.0
62859.18373599583,12.132829404479708,153997.0,86533.0,3894.0
62859.193829863885,12.142923272534972,153984.0,86524.0,3906.0
62859.20392373194,12.153017140590237,153971.0,86514.0,3900.0
62859.2140176,12.163111008652777,153985.0,86518.0,3924.0
62859.22411146806,12.173204876708041,154015.0,86521.0,3915.0
62859.23420533611,12.183298744763306,153991.0,86521.0,3899.0
62859.24429920417,12.19339261281857,154031.0,86524.0,3926.0
62859.25439307223,12.20348648088111,153992.0,86517.0,3909.0
62859.26448694029,12.213580348936375,153988.0,86536.0,3895.0
62859.27458080834,12.22367421699164,154008.0,86540.0,3914.0
62859.2846746764,12.233768085046904,154008.0,86517.0,3896.0
62859.29476854446,12.243861953109445,154049.0,86561.0,3929.0
62859.304862412515,12.253955821164709,154022.0,86543.0,3932.0
62859.31495628057,12.264049689219974,154034.0,86538.0,3914.0
62859.325050148625,12.274143557275238,154040.0,86523.0,3894.0
62859.33514401668,12.284237425330502,154062.0,86565.0,3927.0
62859.34523788474,12.294331293393043,154013.0,86532.0,3888.0
62859.3553317528,12.304425161448307,154022.0,86553.0,3942.0
62859.365425620854,12.314519029503572,154029.0,86561.0,3928.0
62859.37551948891,12.324612897558836,154055.0,86528.0,3915.0
62859.38561335697,12.334706765621377,154065.0,86541.0,3915.0
62859.39570722503,12.344800633676641,154063.0,86543.0,3936.0
62859.40580109308,12.354894501731906,154067.0,86532.0,3932.0
62859.41589496114,12.36498836978717,154050.0,86531.0,3908.0
62859.4259888292,12.37508223784971,154099.0,86559.0,3921.0
62859.436082697255,12.385176105904975,154069.0,86545.0,3909.0
62859.44617656531,12.39526997396024,154095.0,86542.0,3928.0
62859.456270433366,12.405363842015504,154113.0,86564.0,3902.0
62859.46636430143,12.415457710078044,154067.0,86582.0,3919.0
62859.47645816948,12.425551578133309,154109.0,86548.0,3921.0
62859.48655203754,12.435645446188573,154097.0,86537.0,3956.0
62859.496645905594,12.445739314243838,154111.0,86552.0,3914.0
62859.50673977365,12.455833182299102,154096.0,86534.0,3909.0
62859.51683364171,12.465927050361643,154141.0,86574.0,3924.0
62859.52692750977,12.476020918416907,154139.0,86561.0,3938.0
62859.53702137782,12.486114786472172,154117.0,86568.0,3929.0
62859.54711524588,12.496208654527436,154154.0,86564.0,3935.0
62859.55720911394,12.506302522589976,154142.0,86554.0,3955.0
62859.567302981995,12.516396390645241,154130.0,86567.0,3944.0
62859.57739685005,12.526490258700505,154116.0,86578.0,3974.0
62859.587490718106,12.53658412675577,154073.0,86534.0,3922.0
62859.59758458617,12.54667799481831,154023.0,86546.0,3908.0
62859.607678454224,12.556771862873575,154040.0,86551.0,3927.0
62859.61777232228,12.56686573092884,153987.0,86509.0,3913.0
62859.627866190334,12.576959598984104,153985.0,86536.0,3919.0
62859.6379600584,12.587053467046644,153917.0,86492.0,3904.0
62859.64805392645,12.597147335101909,153916.0,86497.0,3910.0
62859.65814779451,12.607241203157173,153929.0,86520.0,3897.0
62859.66824166256,12.617335071212437,153879.0,86507.0,3897.0
62859.67833553062,12.627428939267702,153922.0,86520.0,3931.0
62859.68842939868,12.637522807330242,153898.0,86513.0,3897.0
62859.698523266736,12.647616675385507,153919.0,86524.0,3893.0
62859.70861713479,12.657710543440771,153887.0,86500.0,3871.0
62859.718711002846,12.667804411496036,153878.0,86519.0,3912.0
62859.72880487091,12.677898279558576,153902.0,86513.0,3897.0
62859.738898738964,12.68799214761384,153881.0,86499.0,3898.0
62859.74899260702,12.698086015669105,153923.0,86543.0,3912.0
62859.759086475075,12.70817988372437,153862.0,86470.0,3885.0
62859.76918034314,12.71827375178691,153902.0,86505.0,3891.0
62859.77927421119,12.728367619842174,153872.0,86496.0,3891.0
62859.78936807925,12.738461487897439,153893.0,86522.0,3900.0
62859.7994619473,12.748555355952703,153877.0,86537.0,3890.0
62859.809555815365,12.758649224015244,153894.0,86514.0,3890.0
62859.81964968342,12.768743092070508,153897.0,86497.0,3915.0
62859.829743551476,12.778836960125773,153876.0,86495.0,3871.0
62859.83983741953,12.788930828181037,153935.0,86532.0,3916.0
62859.84993128759,12.799024696236302,153909.0,86517.0,3881.0
62859.86002515565,12.809118564298842,153870.0,86515.0,3896.0
62859.870119023704,12.819212432354107,153896.0,86543.0,3895.0
62859.88021289176,12.829306300409371,153899.0,86514.0,3880.0
62859.890306759815,12.839400168464635,153931.0,86510.0,3863.0
62859.90040062788,12.849494036527176,153876.0,86521.0,3875.0
62859.91049449593,12.85958790458244,153923.0,86535.0,3914.0
62859.92058836399,12.869681772637705,153901.0,86508.0,3881.0
62859.93068223204,12.87977564069297,153915.0,86514.0,3897.0
62859.940776100106,12.88986950875551,153884.0,86537.0,3883.0
62859.95086996816,12.899963376810774,153888.0,86505.0,3881.0
62859.960963836216,12.910057244866039,153935.0,86533.0,3876.0
62859.97105770427,12.920151112921303,153910.0,86507.0,3880.0
62859.981151572334,12.930244980983844,153889.0,86522.0,3894.0
62859.99124544039,12.940338849039108,153905.0,86514.0,3872.0
62860.001339308445,12.950432717094372,153926.0,86526.0,3907.0
62860.0114331765,12.960526585149637,153903.0,86523.0,3879.0
62860.021527044555,12.970620453204901,153905.0,86490.0,3890.0
62860.03162091262,12.980714321267442,153950.0,86533.0,3886.0
62860.04171478067,12.990808189322706,153925.0,86524.0,3910.0
62860.05180864873,13.00090205737797,153923.0,86507.0,3884.0
62860.06190251678,13.010995925433235,153946.0,86514.0,3900.0
62860.071996384846,13.021089793495776,153954.0,86553.0,3894.0
62860.0820902529,13.03118366155104,153933.0,86513.0,3881.0
62860.09218412096,13.041277529606305,153979.0,86554.0,3871.0
62860.10227798901,13.051371397661569,153975.0,86530.0,3906.0
62860.112371857074,13.06146526572411,153960.0,86514.0,3893.0
62860.12246572513,13.071559133779374,154000.0,86561.0,3935.0
62860.132559593185,13.081653001834638,153988.0,86535.0,3885.0
62860.14265346124,13.091746869889903,153994.0,86536.0,3912.0
62860.152747329295,13.101840737945167,154006.0,86544.0,3925.0
62860.16284119736,13.111934606007708,153972.0,86548.0,3925.0
62860.17293506541,13.122028474062972,153998.0,86513.0,3886.0
62860.18302893347,13.132122342118237,154004.0,86532.0,3918.0
62860.193122801524,13.142216210173501,154028.0,86548.0,3920.0
62860.203216669586,13.152310078236042,154005.0,86516.0,3907.0
62860.21331053764,13.162403946291306,154013.0,86512.0,3914.0
62860.2234044057,13.17249781434657,154020.0,86545.0,3913.0
62860.23349827375,13.182591682401835,154043.0,86550.0,3936.0
62860.243592141815,13.192685550464375,154007.0,86546.0,3888.0
62860.25368600987,13.20277941851964,154057.0,86570.0,3936.0
62860.263779877925,13.212873286574904,154048.0,86552.0,3919.0
62860.27387374598,13.222967154630169,154047.0,86551.0,3909.0
62860.28396761404,13.23306102269271,154066.0,86555.0,3921.0
62860.2940614821,13.243154890747974,154058.0,86566.0,3945.0
62860.30415535015,13.253248758803238,154054.0,86537.0,3925.0
62860.31424921821,13.263342626858503,154023.0,86549.0,3924.0
62860.324343086264,13.273436494913767,154066.0,86541.0,3922.0
62860.33443695433,13.283530362976308,154082.0,86565.0,3907.0
62860.34453082238,13.293624231031572,154068.0,86541.0,3922.0
62860.35462469044,13.303718099086836,154056.0,86578.0,3935.0
62860.36471855849,13.313811967142101,154056.0,86537.0,3917.0
62860.374812426555,13.323905835204641,154053.0,86581.0,3930.0
62860.38490629461,13.333999703259906,154095.0,86551.0,3935.0
62860.395000162665,13.34409357131517,154117.0,86550.0,3944.0
62860.40509403072,13.354187439370435,154097.0,86561.0,3909.0
62860.41518789878,13.364281307432975,154128.0,86576.0,3953.0
62860.42528176684,13.37437517548824,154073.0,86532.0,3928.0
62860.435375634894,13.384469043543504,154088.0,86567.0,3919.0
62860.44546950295,13.394562911598769,154118.0,86596.0,3961.0
62860.45556337101,13.404656779661309,154108.0,86576.0,3918.0
62860.46565723907,13.414750647716573,154140.0,86581.0,3937.0
62860.47575110712,13.424844515771838,154145.0,86576.0,3917.0
62860.48584497518,13.434938383827102,154152.0,86586.0,3949.0
62860.49593884323,13.445032251882367,154130.0,86572.0,3918.0
62860.506032711295,13.455126119944907,154131.0,86573.0,3928.0
62860.51612657935,13.465219988000172,154128.0,86588.0,3956.0
62860.526220447406,13.475313856055436,154081.0,86553.0,3930.0
62860.53631431546,13.4854077241107,154093.0,86586.0,3914.0
62860.54640818352,13.495501592173241,154038.0,86558.0,3911.0
62860.55650205158,13.505595460228506,153959.0,86525.0,3927.0
62860.566595919634,13.51568932828377,153988.0,86554.0,3918.0
62860.57668978769,13.525783196339034,153961.0,86540.0,3936.0
62860.58678365575,13.535877064401575,153907.0,86533.0,3894.0
62860.59687752381,13.54597093245684,153922.0,86507.0,3905.0
62860.60697139186,13.556064800512104,153932.0,86548.0,3906.0
62860.61706525992,13.566158668567368,153904.0,86496.0,3889.0
62860.62715912798,13.576252536629909,153925.0,86526.0,3910.0
62860.637252996035,13.586346404685173,153892.0,86537.0,3899.0
62860.64734686409,13.596440272740438,153878.0,86493.0,3896.0
62860.657440732146,13.606534140795702,153883.0,86491.0,3885.0
62860.6675346002,13.616628008850967,153921.0,86542.0,3905.0
62860.677628468264,13.626721876913507,153903.0,86524.0,3907.0
62860.68772233632,13.636815744968771,153876.0,86505.0,3915.0
62860.697816204374,13.646909613024036,153918.0,86534.0,3912.0
62860.70791007243,13.6570034810793,153884.0,86491.0,3896.0
62860.71800394049,13.66709734914184,153910.0,86516.0,3900.0
62860.72809780855,13.677191217197105,153891.0,86512.0,3890.0
62860.7381916766,13.68728508525237,153892.0,86503.0,3912.0
62860.74828554466,13.697378953307634,153892.0,86524.0,3892.0
62860.75837941272,13.707472821370175,153916.0,86525.0,3892.0
62860.768473280776,13.717566689425439,153930.0,86519.0,3887.0
62860.77856714883,13.727660557480704,153897.0,86485.0,3894.0
62860.788661016886,13.737754425535968,153920.0,86517.0,3895.0
62860.79875488495,13.747848293598508,153938.0,86530.0,3892.0
62860.808848753004,13.757942161653773,153899.0,86537.0,3894.0
62860.81894262106,13.768036029709037,153898.0,86523.0,3875.0
62860.829036489115,13.778129897764302,153907.0,86553.0,3900.0
62860.83913035717,13.788223765819566,153923.0,86511.0,3900.0
62860.84922422523,13.798317633882107,153915.0,86520.0,3881.0
62860.85931809329,13.808411501937371,153934.0,86532.0,3915.0
62860.86941196134,13.818505369992636,153898.0,86536.0,3909.0
62860.8795058294,13.8285992380479,153927.0,86520.0,3894.0
62860.88959969746,13.83869310611044,153920.0,86541.0,3896.0
62860.899693565516,13.848786974165705,153944.0,86522.0,3908.0
62860.90978743357,13.85888084222097,153931.0,86528.0,3888.0
62860.91988130163,13.868974710276234,153941.0,86538.0,3896.0
62860.92997516969,13.879068578338774,153917.0,86537.0,3928.0
62860.940069037744,13.889162446394039,153942.0,86522.0,3879.0
62860.9501629058,13.899256314449303,153952.0,86515.0,3912.0
62860.960256773855,13.909350182504568,153947.0,86549.0,3865.0
62860.97035064191,13.919444050559832,153926.0,86528.0,3875.0
62860.98044450997,13.929537918622373,153955.0,86530.0,3861.0
62860.99053837803,13.939631786677637,153976.0,86541.0,3920.0
62861.00063224608,13.949725654732902,153957.0,86523.0,3903.0
62861.01072611414,13.959819522788166,153976.0,86522.0,3890.0
62861.0208199822,13.969913390850706,154008.0,86542.0,3920.0
62861.030913850256,13.980007258905971,153988.0,86502.0,3880.0
62861.04100771831,13.990101126961235,153988.0,86544.0,3906.0
62861.05110158637,14.0001949950165,154029.0,86545.0,3896.0
62861.06119545443,14.01028886307904,153984.0,86527.0,3878.0
62861.071289322485,14.020382731134305,154003.0,86543.0,3894.0
62861.08138319054,14.03047659918957,154003.0,86550.0,3910.0
62861.091477058595,14.040570467244834,154010.0,86508.0,3905.0
62861.10157092666,14.050664335307374,153983.0,86533.0,3895.0
62861.11166479471,14.060758203362639,154034.0,86552.0,3917.0
62861.12175866277,14.070852071417903,154034.0,86542.0,3902.0
62861.13185253082,14.080945939473168,154000.0,86528.0,3920.0
62861.14194639888,14.091039807528432,154056.0,86578.0,3940.0
62861.15204026694,14.101133675590972,154017.0,86525.0,3890.0
62861.162134135,14.111227543646237,154051.0,86545.0,3920.0
62861.17222800305,14.121321411701501,154045.0,86546.0,3910.0
62861.18232187111,14.131415279756766,154059.0,86563.0,3935.0
62861.19241573917,14.141509147819306,154038.0,86540.0,3896.0
62861.202509607225,14.15160301587457,154093.0,86556.0,3940.0
62861.21260347528,14.161696883929835,154063.0,86572.0,3925.0
62861.222697343335,14.1717907519851,154033.0,86503.0,3918.0
62861.2327912114,14.18188462004764,154081.0,86579.0,3927.0
62861.24288507945,14.191978488102905,154046.0,86549.0,3937.0
62861.25297894751,14.202072356158169,154081.0,86556.0,3925.0
62861.263072815564,14.212166224213433,154071.0,86586.0,3915.0
62861.273166683626,14.222260092275974,154105.0,86556.0,3918.0
62861.28326055168,14.232353960331238,154064.0,86544.0,3937.0
62861.29335441974,14.242447828386503,154092.0,86569.0,3928.0
62861.30344828779,14.252541696441767,154087.0,86572.0,3947.0
62861.31354215585,14.262635564497032,154088.0,86566.0,3926.0
62861.32363602391,14.272729432559572,154124.0,86589.0,3948.0
62861.333729891965,14.282823300614837,154126.0,86577.0,3930.0
62861.34382376002,14.292917168670101,154102.0,86557.0,3913.0
62861.353917628076,14.303011036725366,154139.0,86579.0,3923.0
62861.36401149614,14.313104904787906,154140.0,86601.0,3970.0
62861.37410536419,14.32319877284317,154145.0,86568.0,3930.0
62861.38419923225,14.333292640898435,154108.0,86563.0,3927.0
62861.394293100304,14.3433865089537,154148.0,86590.0,3949.0
62861.40438696837,14.35348037701624,154146.0,86552.0,3928.0
62861.41448083642,14.363574245071504,154153.0,86574.0,3941.0
62861.42457470448,14.373668113126769,154159.0,86584.0,3907.0
62861.43466857253,14.383761981182033,154179.0,86591.0,3963.0
62861.444762440595,14.393855849244574,154165.0,86585.0,3941.0
62861.45485630865,14.403949717299838,154180.0,86578.0,3935.0
62861.464950176705,14.414043585355103,154136.0,86545.0,3933.0
62861.47504404476,14.424137453410367,154097.0,86569.0,3929.0
62861.485137912816,14.434231321465631,154112.0,86577.0,3908.0
62861.49523178088,14.444325189528172,154071.0,86541.0,3941.0
62861.505325648934,14.454419057583436,154027.0,86526.0,3941.0
62861.51541951699,14.4645129256387,153998.0,86539.0,3921.0
62861.525513385044,14.474606793693965,153983.0,86534.0,3925.0
62861.53560725311,14.484700661756506,153958.0,86534.0,3912.0
62861.54570112116,14.49479452981177,153951.0,86534.0,3913.0
62861.55579498922,14.504888397867035,153956.0,86548.0,3914.0
62861.56588885727,14.5149822659223,153945.0,86540.0,3931.0
62861.575982725335,14.52507613398484,153943.0,86526.0,3893.0
62861.58607659339,14.535170002040104,153944.0,86541.0,3902.0
62861.596170461446,14.545263870095368,153974.0,86536.0,3923.0
62861.6062643295,14.555357738150633,153979.0,86523.0,3906.0
62861.61635819756,14.565451606213173,153951.0,86531.0,3912.0
62861.62645206562,14.575545474268438,153991.0,86546.0,3934.0
62861.636545933674,14.585639342323702,153920.0,86534.0,3889.0
62861.64663980173,14.595733210378967,153974.0,86518.0,3908.0
62861.656733669784,14.605827078434231,153964.0,86534.0,3913.0
62861.66682753785,14.615920946496772,153958.0,86539.0,3875.0
62861.6769214059,14.626014814552036,153966.0,86559.0,3925.0
62861.68701527396,14.6361086826073,153986.0,86559.0,3929.0
62861.69710914201,14.646202550662565,153970.0,86532.0,3881.0
62861.707203010075,14.656296418725105,153937.0,86541.0,3914.0
62861.71729687813,14.66639028678037,153991.0,86571.0,3920.0
62861.727390746186,14.676484154835634,153967.0,86531.0,3868.0
62861.73748461424,14.686578022890899,153979.0,86546.0,3900.0
62861.747578482304,14.69667189095344,153969.0,86538.0,3900.0
62861.75767235036,14.706765759008704,153926.0,86533.0,3872.0
62861.767766218414,14.716859627063968,153948.0,86519.0,3902.0
62861.77786008647,14.726953495119233,153990.0,86536.0,3921.0
62861.787953954525,14.737047363174497,153969.0,86545.0,3904.0
62861.79804782259,14.747141231237038,153939.0,86526.0,3908.0
62861.80814169064,14.757235099292302,154003.0,86549.0,3897.0
62861.8182355587,14.767328967347567,153938.0,86513.0,3895.0
62861.82832942675,14.777422835402831,153967.0,86550.0,3902.0
62861.838423294816,14.787516703465371,153952.0,86562.0,3901.0
62861.84851716287,14.797610571520636,153970.0,86516.0,3895.0
62861.858611030926,14.8077044395759,153973.0,86549.0,3863.0
62861.86870489898,14.817798307631165,153976.0,86552.0,3901.0
62861.878798767044,14.827892175693705,153964.0,86551.0,3915.0
62861.8888926351,14.83798604374897,153940.0,86519.0,3886.0
62861.898986503154,14.848079911804234,153997.0,86579.0,3915.0
62861.90908037121,14.858173779859499,153990.0,86542.0,3902.0
62861.91917423927,14.868267647922039,154004.0,86542.0,3899.0
62861.92926810733,14.878361515977303,154033.0,86571.0,3906.0
62861.93936197538,14.888455384032568,154009.0,86533.0,3901.0
62861.94945584344,14.898549252087832,154008.0,86543.0,3903.0
62861.95954971149,14.908643120143097,154018.0,86545.0,3896.0
62861.969643579556,14.918736988205637,154027.0,86530.0,3923.0
62861.97973744761,14.928830856260902,154004.0,86534.0,3894.0
62861.98983131567,14.938924724316166,154029.0,86552.0,3909.0
62861.99992518372,14.94901859237143,154056.0,86560.0,3895.0
62862.010019051784,14.959112460433971,154071.0,86562.0,3938.0
62862.02011291984,14.969206328489236,154040.0,86560.0,3917.0
62862.030206787895,14.9793001965445,154025.0,86533.0,3945.0
62862.04030065595,14.989394064599765,154057.0,86543.0,3919.0
62862.05039452401,14.999487932662305,154041.0,86527.0,3908.0
62862.06048839207,15.00958180071757,154060.0,86558.0,3929.0
62862.07058226012,15.019675668772834,154060.0,86555.0,3913.0
62862.08067612818,15.029769536828098,154050.0,86572.0,3915.0
62862.09076999624,15.039863404890639,154069.0,86573.0,3931.0
62862.100863864296,15.049957272945903,154058.0,86536.0,3908.0
62862.11095773235,15.060051141001168,154087.0,86558.0,3914.0
62862.12105160041,15.070145009056432,154074.0,86567.0,3918.0
62862.13114546846,15.080238877111697,154063.0,86557.0,3911.0
62862.141239336524,15.090332745174237,154054.0,86557.0,3911.0
62862.15133320458,15.100426613229502,154088.0,86560.0,3925.0
62862.161427072635,15.110520481284766,154092.0,86547.0,3964.0
62862.17152094069,15.12061434934003,154109.0,86566.0,3937.0
62862.18161480875,15.13070821740257,154095.0,86560.0,3922.0
62862.19170867681,15.140802085457835,154095.0,86562.0,3929.0
62862.20180254486,15.1508959535131,154111.0,86577.0,3906.0
62862.21189641292,15.160989821568364,154092.0,86565.0,3910.0
62862.22199028098,15.171083689630905,154147.0,86571.0,3952.0
62862.23208414904,15.18117755768617,154114.0,86566.0,3933.0
62862.24217801709,15.191271425741434,154136.0,86569.0,3943.0
62862.25227188515,15.201365293796698,154118.0,86542.0,3926.0
62862.26236575321,15.211459161859239,154121.0,86557.0,3923.0
62862.272459621265,15.221553029914503,154131.0,86570.0,3938.0
62862.28255348932,15.231646897969767,154140.0,86565.0,3937.0
62862.292647357375,15.241740766025032,154152.0,86553.0,3950.0
62862.30274122543,15.251834634080296,154140.0,86557.0,3918.0
62862.31283509349,15.261928502142837,154139.0,86570.0,3929.0
62862.32292896155,15.272022370198101,154140.0,86537.0,3940.0
62862.3330228296,15.282116238253366,154115.0,86557.0,3947.0
62862.34311669766,15.29221010630863,154110.0,86587.0,3948.0
62862.35321056572,15.30230397437117,154070.0,86567.0,3909.0
62862.36330443378,15.312397842426435,154075.0,86552.0,3933.0
62862.37339830183,15.3224917104817,154032.0,86540.0,3916.0
62862.38349216989,15.332585578536964,153991.0,86546.0,3906.0
62862.39358603795,15.342679446599504,154022.0,86558.0,3905.0
62862.403679906005,15.352773314654769,153981.0,86530.0,3916.0
62862.41377377406,15.362867182710033,153943.0,86517.0,3926.0
62862.423867642116,15.372961050765298,153944.0,86530.0,3909.0
62862.43396151018,15.383054918827838,153919.0,86498.0,3887.0
62862.44405537823,15.393148786883103,153957.0,86530.0,3901.0
62862.45414924629,15.403242654938367,153940.0,86552.0,3909.0
62862.464243114344,15.413336522993632,153963.0,86540.0,3911.0
62862.4743369824,15.423430391048896,153957.0,86494.0,3902.0
62862.48443085046,15.433524259111437,153971.0,86528.0,3907.0
62862.49452471852,15.443618127166701,153984.0,86528.0,3931.0
62862.50461858657,15.453711995221965,153965.0,86522.0,3877.0
62862.51471245463,15.46380586327723,153995.0,86507.0,3900.0
62862.52480632269,15.47389973133977,153984.0,86543.0,3904.0
62862.534900190745,15.483993599395035,153969.0,86533.0,3917.0
62862.5449940588,15.4940874674503,153977.0,86553.0,3912.0
62862.555087926856,15.504181335505564,154023.0,86551.0,3935.0
62862.56518179492,15.514275203568104,154031.0,86554.0,3921.0
62862.57527566297,15.524369071623369,154012.0,86558.0,3898.0
62862.58536953103,15.534462939678633,153946.0,86541.0,3916.0
62862.595463399084,15.544556807733898,153997.0,86567.0,3920.0
62862.60555726714,15.554650675789162,154009.0,86544.0,3916.0
62862.6156511352,15.564744543851702,153995.0,86516.0,3893.0
62862.62574500326,15.574838411906967,154014.0,86549.0,3910.0
62862.63583887131,15.584932279962231,153983.0,86530.0,3894.0
62862.64593273937,15.595026148017496,153994.0,86539.0,3904.0
62862.65602660743,15.605120016080036,153982.0,86569.0,3925.0
62862.666120475486,15.6152138841353,154014.0,86551.0,3932.0
62862.67621434354,15.625307752190565,153948.0,86574.0,3907.0
62862.686308211596,15.63540162024583,153995.0,86530.0,3899.0
62862.69640207966,15.64549548830837,154005.0,86551.0,3908.0
62862.706495947714,15.655589356363635,153981.0,86539.0,3882.0
62862.71658981577,15.665683224418899,153983.0,86542.0,3928.0
62862.726683683824,15.675777092474164,153995.0,86544.0,3909.0
62862.73677755189,15.685870960536704,153984.0,86519.0,3876.0
62862.74687141994,15.695964828591968,154005.0,86514.0,3895.0
62862.756965288,15.706058696647233,153973.0,86540.0,3881.0
62862.76705915605,15.716152564702497,154017.0,86543.0,3907.0
62862.77715302411,15.726246432757762,153981.0,86544.0,3886.0
62862.78724689217,15.736340300820302,153994.0,86554.0,3908.0
62862.797340760226,15.746434168875567,154017.0,86544.0,3895.0
62862.80743462828,15.756528036930831,154038.0,86541.0,3903.0
62862.817528496336,15.766621904986096,154050.0,86567.0,3918.0
62862.8276223644,15.776715773048636,154030.0,86544.0,3909.0
62862.837716232454,15.7868096411039,154069.0,86576.0,3863.0
62862.84781010051,15.796903509159165,154043.0,86538.0,3884.0
62862.857903968565,15.80699737721443,154059.0,86529.0,3931.0
62862.86799783663,15.81709124527697,154039.0,86552.0,3902.0
62862.87809170468,15.827185113332234,154074.0,86530.0,3927.0
62862.88818557274,15.837278981387499,154079.0,86556.0,3944.0
62862.89827944079,15.847372849442763,154051.0,86549.0,3925.0
62862.908373308856,15.857466717505304,154092.0,86577.0,3928.0
62862.91846717691,15.867560585560568,154071.0,86546.0,3909.0
62862.928561044966,15.877654453615833,154103.0,86564.0,3928.0
62862.93865491302,15.887748321671097,154079.0,86594.0,3924.0
62862.94874878108,15.897842189726362,154112.0,86556.0,3913.0
62862.95884264914,15.907936057788902,154094.0,86528.0,3923.0
62862.968936517194,15.918029925844166,154100.0,86568.0,3934.0
62862.97903038525,15.928123793899431,154094.0,86568.0,3931.0
62862.989124253305,15.938217661954695,154060.0,86533.0,3925.0
62862.99921812137,15.948311530017236,154133.0,86585.0,3941.0
62863.00931198942,15.9584053980725,154089.0,86537.0,3924.0
62863.01940585748,15.968499266127765,154105.0,86570.0,3932.0
62863.02949972553,15.97859313418303,154119.0,86557.0,3930.0
62863.039593593596,15.98868700224557,154108.0,86556.0,3951.0
62863.04968746165,15.998780870300834,154108.0,86562.0,3922.0
62863.059781329706,16.0088747383561,154133.0,86565.0,3924.0
62863.06987519776,16.018968606411363,154173.0,86567.0,3941.0
62863.079969065824,16.029062474473903,154127.0,86563.0,3945.0
62863.09006293388,16.039156342529168,154150.0,86576.0,3941.0
62863.100156801935,16.049250210584432,154153.0,86587.0,3945.0
62863.11025066999,16.059344078639697,154109.0,86587.0,3936.0
62863.120344538045,16.06943794669496,154130.0,86604.0,3937.0
62863.13043840611,16.0795318147575,154136.0,86573.0,3944.0
62863.14053227416,16.089625682812766,154132.0,86565.0,3935.0
62863.15062614222,16.09971955086803,154113.0,86565.0,3919.0
62863.16072001027,16.109813418923295,154124.0,86577.0,3953.0
62863.170813878336,16.119907286985836,154102.0,86576.0,3954.0
62863.18090774639,16.1300011550411,154057.0,86555.0,3931.0
62863.19100161445,16.140095023096364,154021.0,86560.0,3927.0
62863.2010954825,16.15018889115163,153982.0,86546.0,3891.0
62863.211189350564,16.16028275921417,153986.0,86563.0,3881.0
62863.22128321862,16.170376627269434,153970.0,86529.0,3903.0
62863.231377086675,16.1804704953247,153911.0,86508.0,3919.0
62863.24147095473,16.190564363379963,153955.0,86522.0,3902.0
62863.25156482279,16.200658231442503,153946.0,86539.0,3915.0
62863.26165869085,16.210752099497768,153973.0,86528.0,3903.0
62863.2717525589,16.220845967553032,153954.0,86521.0,3884.0
62863.28184642696,16.230939835608297,153985.0,86552.0,3925.0
62863.291940295014,16.24103370366356,153944.0,86532.0,3878.0
62863.302034163076,16.2511275717261,153974.0,86536.0,3903.0
62863.31212803113,16.261221439781366,153985.0,86530.0,3904.0
62863.32222189919,16.27131530783663,153992.0,86533.0,3922.0
62863.33231576724,16.281409175891895,153961.0,86510.0,3863.0
62863.342409635305,16.291503043954435,154008.0,86537.0,3905.0
62863.35250350336,16.3015969120097,154014.0,86549.0,3901.0
62863.362597371415,16.311690780064964,154000.0,86526.0,3890.0
62863.37269123947,16.32178464812023,154012.0,86551.0,3921.0
62863.38278510753,16.33187851618277,153994.0,86525.0,3901.0
62863.39287897559,16.341972384238034,154030.0,86523.0,3909.0
62863.40297284364,16.352066252293298,154003.0,86552.0,3917.0
62863.4130667117,16.362160120348562,154035.0,86567.0,3916.0
62863.42316057976,16.372253988411103,154003.0,86534.0,3892.0
62863.43325444782,16.382347856466367,153999.0,86514.0,3927.0
62863.44334831587,16.392441724521632,154034.0,86571.0,3932.0
62863.45344218393,16.402535592576896,153994.0,86525.0,3919.0
62863.46353605198,16.41262946063216,154006.0,86537.0,3903.0
62863.473629920045,16.4227233286947,153988.0,86535.0,3903.0
62863.4837237881,16.432817196749966,154000.0,86546.0,3903.0
62863.493817656155,16.44291106480523,154016.0,86562.0,3934.0
62863.50391152421,16.453004932860495,154035.0,86556.0,3951.0
62863.51400539227,16.463098800923035,153999.0,86548.0,3904.0
62863.52409926033,16.4731926689783,153988.0,86528.0,3900.0
62863.534193128384,16.483286537033564,154009.0,86522.0,3897.0
62863.54428699644,16.49338040508883,153987.0,86519.0,3920.0
62863.5543808645,16.50347427315137,154016.0,86538.0,3905.0
62863.56447473256,16.513568141206633,154011.0,86537.0,3912.0
62863.57456860061,16.523662009261898,154036.0,86553.0,3925.0
62863.58466246867,16.533755877317162,154017.0,86535.0,3886.0
62863.59475633672,16.543849745372427,154031.0,86548.0,3911.0
62863.604850204785,16.553943613434967,154034.0,86517.0,3905.0
62863.61494407284,16.56403748149023,154027.0,86529.0,3905.0
62863.625037940896,16.574131349545496,154035.0,86579.0,3916.0
62863.63513180895,16.58422521760076,154077.0,86567.0,3922.0
62863.64522567701,16.5943190856633,154063.0,86533.0,3931.0
62863.65531954507,16.604412953718565,154054.0,86535.0,3890.0
62863.665413413124,16.61450682177383,154079.0,86563.0,3940.0
62863.67550728118,16.624600689829094,154076.0,86545.0,3923.0
62863.68560114924,16.634694557891635,154063.0,86561.0,3920.0
62863.6956950173,16.6447884259469,154067.0,86579.0,3926.0
62863.70578888535,16.654882294002164,154060.0,86549.0,3891.0
62863.71588275341,16.664976162057428,154094.0,86560.0,3919.0
62863.72597662147,16.67507003011997,154088.0,86560.0,3904.0
62863.736070489525,16.685163898175233,154055.0,86558.0,3919.0
62863.74616435758,16.695257766230498,154095.0,86538.0,3910.0
62863.756258225636,16.705351634285762,154099.0,86554.0,3927.0
62863.76635209369,16.715445502341026,154100.0,86596.0,3934.0
62863.776445961754,16.725539370403567,154098.0,86557.0,3915.0
62863.78653982981,16.73563323845883,154125.0,86574.0,3912.0
62863.796633697864,16.745727106514096,154106.0,86557.0,3920.0
62863.80672756592,16.75582097456936,154090.0,86559.0,3905.0
62863.81682143398,16.7659148426319,154086.0,86543.0,3901.0
62863.82691530204,16.776008710687165,154145.0,86597.0,3943.0
62863.83700917009,16.78610257874243,154137.0,86568.0,3929.0
62863.84710303815,16.796196446797694,154129.0,86545.0,3903.0
62863.85719690621,16.806290314860235,154161.0,86581.0,3906.0
62863.867290774266,16.8163841829155,154133.0,86573.0,3967.0
62863.87738464232,16.826478050970763,154152.0,86566.0,3934.0
62863.887478510376,16.836571919026028,154140.0,86558.0,3924.0
62863.89757237844,16.84666578708857,154145.0,86549.0,3937.0
62863.907666246494,16.856759655143833,154111.0,86542.0,3952.0
62863.91776011455,16.866853523199097,154095.0,86564.0,3930.0
62863.927853982605,16.87694739125436,154089.0,86570.0,3917.0
62863.93794785066,16.887041259309626,154032.0,86537.0,3934.0
62863.94804171872,16.897135127372167,154040.0,86573.0,3944.0
62863.95813558678,16.90722899542743,153993.0,86537.0,3921.0
62863.96822945483,16.917322863482696,153995.0,86511.0,3906.0
62863.97832332289,16.92741673153796,153937.0,86509.0,3879.0
62863.98841719095,16.9375105996005,153976.0,86557.0,3902.0
62863.998511059006,16.947604467655765,153946.0,86520.0,3872.0
62864.00860492706,16.95769833571103,153935.0,86495.0,3923.0
62864.01869879512,16.967792203766294,153971.0,86549.0,3895.0
62864.02879266318,16.977886071828834,153926.0,86508.0,3900.0
62864.038886531234,16.9879799398841,153919.0,86518.0,3885.0
62864.04898039929,16.998073807939363,153917.0,86502.0,3888.0
62864.059074267345,17.008167675994628,153964.0,86549.0,3910.0
62864.06916813541,17.018261544057168,153925.0,86524.0,3877.0
62864.07926200346,17.028355412112433,153949.0,86538.0,3883.0
62864.08935587152,17.038449280167697,153953.0,86557.0,3890.0
62864.09944973957,17.04854314822296,153921.0,86506.0,3898.0
62864.10954360763,17.058637016278226,153971.0,86545.0,3886.0
62864.11963747569,17.068730884340766,153953.0,86552.0,3904.0
62864.129731343746,17.07882475239603,153967.0,86543.0,3889.0
62864.1398252118,17.088918620451295,153919.0,86534.0,3898.0
62864.14991907986,17.09901248850656,153984.0,86554.0,3893.0
62864.16001294792,17.1091063565691,153955.0,86523.0,3897.0
62864.170106815975,17.119200224624365,153934.0,86506.0,3863.0
62864.18020068403,17.12929409267963,153954.0,86527.0,3885.0
62864.190294552085,17.139387960734894,153925.0,86515.0,3881.0
62864.20038842015,17.149481828797434,153921.0,86523.0,3868.0
62864.2104822882,17.1595756968527,153957.0,86537.0,3883.0
62864.22057615626,17.169669564907963,153960.0,86510.0,3902.0
62864.23067002431,17.179763432963227,153922.0,86513.0,3881.0
62864.240763892376,17.189857301025768,153964.0,86531.0,3886.0
62864.25085776043,17.199951169081032,153942.0,86532.0,3894.0
62864.26095162849,17.210045037136297,153926.0,86553.0,3894.0
62864.27104549654,17.22013890519156,153941.0,86548.0,3900.0
62864.2811393646,17.230232773246826,153911.0,86513.0,3847.0
62864.29123323266,17.240326641309366,153957.0,86530.0,3882.0
62864.301327100715,17.25042050936463,153950.0,86546.0,3878.0
62864.31142096877,17.260514377419895,153943.0,86514.0,3904.0
62864.321514836825,17.27060824547516,153928.0,86509.0,3868.0
62864.33160870489,17.2807021135377,153978.0,86541.0,3888.0
62864.34170257294,17.290795981592964,153952.0,86531.0,3876.0
62864.351796441,17.30088984964823,153974.0,86545.0,3877.0
62864.361890309054,17.310983717703493,153973.0,86521.0,3864.0
62864.371984177116,17.321077585766034,153978.0,86537.0,3892.0
62864.38207804517,17.331171453821298,153987.0,86555.0,3904.0
62864.39217191323,17.341265321876563,153962.0,86502.0,3858.0
62864.40226578128,17.351359189931827,154016.0,86568.0,3921.0
62864.41235964934,17.36145305798709,154004.0,86547.0,3894.0
62864.4224535174,17.371546926049632,154005.0,86519.0,3874.0
62864.432547385455,17.381640794104896,154012.0,86534.0,3875.0
62864.44264125351,17.39173466216016,154024.0,86575.0,3910.0
62864.452735121566,17.401828530215425,154011.0,86537.0,3901.0
62864.46282898963,17.411922398277966,153997.0,86542.0,3869.0
62864.47292285768,17.42201626633323,154053.0,86578.0,3912.0
62864.48301672574,17.432110134388495,154013.0,86553.0,3890.0
62864.493110593794,17.44220400244376,154047.0,86556.0,3891.0
62864.50320446186,17.4522978705063,154048.0,86572.0,3908.0
62864.51329832991,17.462391738561564,154043.0,86537.0,3890.0
62864.52339219797,17.47248560661683,154076.0,86561.0,3920.0
62864.53348606602,17.482579474672093,154055.0,86542.0,3898.0
62864.543579934085,17.492673342734633,154060.0,86558.0,3903.0
62864.55367380214,17.502767210789898,154038.0,86559.0,3874.0
62864.563767670195,17.512861078845162,154077.0,86571.0,3887.0
62864.57386153825,17.522954946900427,154067.0,86532.0,3949.0
62864.583955406306,17.53304881495569,154050.0,86529.0,3917.0
62864.59404927437,17.54314268301823,154057.0,86535.0,3900.0
62864.604143142424,17.553236551073496,154055.0,86535.0,3911.0
62864.61423701048,17.56333041912876,154067.0,86543.0,3938.0
62864.624330878534,17.573424287184025,154080.0,86571.0,3909.0
62864.6344247466,17.583518155246566,154109.0,86570.0,3912.0
62864.64451861465,17.59361202330183,154090.0,86534.0,3895.0
62864.65461248271,17.603705891357095,154089.0,86554.0,3922.0
62864.66470635076,17.61379975941236,154090.0,86551.0,3914.0
62864.674800218825,17.6238936274749,154124.0,86565.0,3911.0
62864.68489408688,17.633987495530164,154083.0,86546.0,3894.0
62864.694987954936,17.64408136358543,154125.0,86586.0,3934.0
62864.70508182299,17.654175231640693,154100.0,86541.0,3904.0
62864.71517569105,17.664269099703233,154079.0,86556.0,3913.0
62864.72526955911,17.674362967758498,154105.0,86569.0,3921.0
62864.735363427164,17.684456835813762,154073.0,86544.0,3918.0
62864.74545729522,17.694550703869027,154086.0,86569.0,3908.0
62864.755551163275,17.70464457192429,154065.0,86562.0,3934.0
62864.76564503134,17.71473843998683,154027.0,86549.0,3921.0
62864.77573889939,17.724832308042096,153954.0,86532.0,3882.0
62864.78583276745,17.73492617609736,153954.0,86532.0,3898.0
62864.7959266355,17.745020044152625,153926.0,86513.0,3902.0
62864.806020503565,17.755113912215165,153915.0,86511.0,3872.0
62864.81611437162,17.76520778027043,153902.0,86544.0,3899.0
62864.826208239676,17.775301648325694,153881.0,86514.0,3877.0
62864.83630210773,17.78539551638096,153858.0,86527.0,3889.0
62864.846395975794,17.7954893844435,153831.0,86489.0,3849.0
62864.85648984385,17.805583252498764,153893.0,86509.0,3884.0
62864.866583711904,17.815677120554028,153880.0,86518.0,3862.0
62864.87667757996,17.825770988609293,153868.0,86495.0,3858.0
62864.88677144802,17.835864856671833,153893.0,86512.0,3867.0
62864.89686531608,17.845958724727097,153846.0,86510.0,3882.0
62864.90695918413,17.856052592782362,153881.0,86519.0,3871.0
62864.91705305219,17.866146460837626,153873.0,86488.0,3841.0
62864.92714692024,17.87624032889289,153866.0,86511.0,3847.0
62864.937240788306,17.88633419695543,153848.0,86487.0,3859.0
62864.94733465636,17.896428065010696,153880.0,86507.0,3865.0
62864.957428524416,17.90652193306596,153855.0,86517.0,3890.0
62864.96752239247,17.916615801121225,153839.0,86493.0,3823.0
62864.977616260534,17.926709669183765,153830.0,86525.0,3844.0
62864.98771012859,17.93680353723903,153873.0,86508.0,3845.0
62864.997803996645,17.946897405294294,153888.0,86519.0,3871.0
62865.0078978647,17.95699127334956,153894.0,86546.0,3867.0
62865.01799173276,17.9670851414121,153895.0,86529.0,3877.0
62865.02808560082,17.977179009467363,153889.0,86520.0,3853.0
62865.03817946887,17.987272877522628,153851.0,86505.0,3838.0
62865.04827333693,17.997366745577892,153857.0,86526.0,3870.0
62865.05836720499,18.007460613640433,153893.0,86521.0,3883.0
62865.068461073046,18.017554481695697,153880.0,86516.0,3856.0
62865.0785549411,18.02764834975096,153855.0,86498.0,3851.0
62865.08864880916,18.037742217806226,153884.0,86530.0,3845.0
62865.09874267721,18.04783608586149,153864.0,86487.0,3847.0
62865.108836545274,18.05792995392403,153873.0,86525.0,3861.0
62865.11893041333,18.068023821979295,153852.0,86530.0,3865.0
62865.129024281385,18.07811769003456,153850.0,86480.0,3849.0
62865.13911814944,18.088211558089824,153872.0,86522.0,3824.0
62865.1492120175,18.098305426152365,153878.0,86510.0,3858.0
62865.15930588556,18.10839929420763,153862.0,86507.0,3861.0
62865.16939975361,18.118493162262894,153855.0,86497.0,3834.0
62865.17949362167,18.128587030318158,153871.0,86497.0,3845.0
62865.18958748973,18.1386808983807,153896.0,86521.0,3842.0
62865.199681357786,18.148774766435963,153886.0,86519.0,3841.0
62865.20977522584,18.158868634491228,153874.0,86517.0,3851.0
62865.2198690939,18.168962502546492,153889.0,86501.0,3849.0
62865.22996296195,18.179056370601756,153880.0,86514.0,3846.0
62865.240056830015,18.189150238664297,153912.0,86517.0,3859.0
62865.25015069807,18.19924410671956,153899.0,86498.0,3857.0
62865.260244566125,18.209337974774826,153872.0,86501.0,3836.0
62865.27033843418,18.21943184283009,153911.0,86518.0,3867.0
62865.28043230224,18.22952571089263,153911.0,86521.0,3862.0
62865.2905261703,18.239619578947895,153900.0,86517.0,3850.0
62865.30062003835,18.24971344700316,153927.0,86531.0,3852.0
62865.31071390641,18.259807315058424,153943.0,86551.0,3886.0
62865.32080777447,18.269901183120965,153929.0,86528.0,3868.0
62865.33090164253,18.27999505117623,153920.0,86502.0,3843.0
62865.34099551058,18.290088919231493,153907.0,86519.0,3856.0
62865.35108937864,18.300182787286758,153940.0,86528.0,3846.0
62865.3611832467,18.3102766553493,153952.0,86530.0,3873.0
62865.371277114755,18.320370523404563,153979.0,86510.0,3911.0
62865.38137098281,18.330464391459827,153934.0,86490.0,3873.0
62865.391464850865,18.340558259515092,153907.0,86520.0,3838.0
62865.40155871892,18.350652127570356,153957.0,86539.0,3869.0
62865.41165258698,18.360745995632897,153990.0,86559.0,3859.0
62865.42174645504,18.37083986368816,153988.0,86537.0,3903.0
62865.431840323094,18.380933731743426,153966.0,86533.0,3854.0
62865.44193419115,18.39102759979869,153982.0,86525.0,3874.0
62865.45202805921,18.40112146786123,153984.0,86528.0,3858.0
62865.46212192727,18.411215335916495,153986.0,86520.0,3869.0
62865.47221579532,18.42130920397176,153985.0,86543.0,3894.0
62865.48230966338,18.431403072027024,153987.0,86538.0,3872.0
62865.49240353144,18.441496940089564,153986.0,86537.0,3879.0
62865.502497399495,18.45159080814483,154021.0,86569.0,3896.0
62865.51259126755,18.461684676200093,153958.0,86490.0,3880.0
62865.522685135606,18.471778544255358,154011.0,86542.0,3877.0
62865.53277900367,18.481872412317898,154016.0,86558.0,3895.0
62865.54287287172,18.491966280373163,154039.0,86566.0,3859.0
62865.55296673978,18.502060148428427,153994.0,86572.0,3885.0
62865.563060607834,18.51215401648369,154037.0,86551.0,3878.0
62865.57315447589,18.522247884538956,154037.0,86539.0,3897.0
62865.58324834395,18.532341752601496,154040.0,86531.0,3908.0
62865.59334221201,18.54243562065676,154024.0,86520.0,3881.0
62865.60343608006,18.552529488712025,154031.0,86533.0,3883.0
62865.61352994812,18.56262335676729,154057.0,86571.0,3890.0
62865.62362381618,18.57271722482983,153979.0,86561.0,3895.0
62865.633717684235,18.582811092885095,153982.0,86546.0,3905.0
62865.64381155229,18.59290496094036,153938.0,86519.0,3862.0
62865.653905420346,18.602998828995624,153922.0,86530.0,3853.0
62865.66399928841,18.613092697058164,153875.0,86499.0,3860.0
62865.674093156464,18.62318656511343,153860.0,86521.0,3852.0
62865.68418702452,18.633280433168693,153837.0,86508.0,3830.0
62865.694280892574,18.643374301223957,153802.0,86488.0,3868.0
62865.70437476064,18.653468169286498,153833.0,86507.0,3853.0
62865.71446862869,18.663562037341762,153821.0,86499.0,3851.0
62865.72456249675,18.673655905397027,153807.0,86501.0,3862.0
62865.7346563648,18.68374977345229,153803.0,86506.0,3840.0
62865.74475023286,18.693843641507556,153838.0,86527.0,3824.0
62865.75484410092,18.703937509570096,153833.0,86523.0,3857.0
62865.764937968976,18.71403137762536,153780.0,86499.0,3818.0
62865.77503183703,18.724125245680625,153808.0,86475.0,3828.0
62865.785125705086,18.73421911373589,153805.0,86539.0,3845.0
62865.79521957315,18.74431298179843,153837.0,86509.0,3846.0
62865.805313441204,18.754406849853694,153823.0,86513.0,3850.0
62865.81540730926,18.76450071790896,153820.0,86492.0,3834.0
62865.825501177314,18.774594585964223,153807.0,86491.0,3828.0
62865.83559504538,18.784688454026764,153774.0,86493.0,3811.0
62865.84568891343,18.79478232208203,153792.0,86495.0,3828.0
62865.85578278149,18.804876190137293,153806.0,86500.0,3834.0
62865.86587664954,18.814970058192557,153780.0,86489.0,3867.0
62865.875970517605,18.825063926255098,153811.0,86501.0,3826.0
62865.88606438566,18.835157794310362,153830.0,86517.0,3828.0
62865.896158253716,18.845251662365627,153805.0,86500.0,3839.0
62865.90625212177,18.85534553042089,153845.0,86509.0,3840.0
62865.91634598983,18.865439398476155,153779.0,86479.0,3843.0
62865.92643985789,18.875533266538696,153816.0,86505.0,3816.0
62865.936533725944,18.88562713459396,153804.0,86500.0,3821.0
62865.946627594,18.895721002649225,153786.0,86488.0,3825.0
62865.956721462055,18.90581487070449,153776.0,86485.0,3844.0
62865.96681533012,18.91590873876703,153786.0,86499.0,3814.0
62865.97690919817,18.926002606822294,153800.0,86495.0,3829.0
62865.98700306623,18.93609647487756,153822.0,86511.0,3850.0
62865.99709693428,18.946190342932823,153839.0,86499.0,3844.0
62866.007190802346,18.956284210995364,153770.0,86495.0,3837.0
62866.0172846704,18.966378079050628,153809.0,86495.0,3815.0
62866.027378538456,18.976471947105892,153780.0,86503.0,3818.0
62866.03747240651,18.986565815161157,153804.0,86494.0,3819.0
62866.04756627457,18.99665968321642,153827.0,86513.0,3826.0
62866.05766014263,19.006753551278962,153818.0,86505.0,3832.0
62866.067754010684,19.016847419334226,153796.0,86487.0,3820.0
62866.07784787874,19.02694128738949,153869.0,86505.0,3818.0
62866.087941746795,19.037035155444755,153823.0,86528.0,3834.0
62866.09803561486,19.047129023507296,153845.0,86506.0,3834.0
62866.10812948291,19.05722289156256,153867.0,86518.0,3855.0
62866.11822335097,19.067316759617825,153854.0,86533.0,3809.0
62866.12831721902,19.07741062767309,153854.0,86525.0,3852.0
62866.138411087086,19.08750449573563,153859.0,86508.0,3844.0
62866.14850495514,19.097598363790894,153840.0,86499.0,3808.0
62866.1585988232,19.10769223184616,153890.0,86497.0,3845.0
62866.16869269125,19.117786099901423,153858.0,86515.0,3826.0
62866.178786559314,19.127879967963963,153908.0,86526.0,3838.0
62866.18888042737,19.137973836019228,153917.0,86546.0,3835.0
62866.198974295425,19.148067704074492,153894.0,86515.0,3835.0
62866.20906816348,19.158161572129757,153867.0,86491.0,3828.0
62866.219162031535,19.16825544018502,153897.0,86522.0,3844.0
62866.2292558996,19.17834930824756,153894.0,86552.0,3854.0
62866.23934976765,19.188443176302826,153872.0,86517.0,3828.0
62866.24944363571,19.19853704435809,153944.0,86546.0,3828.0
62866.25953750376,19.208630912413355,153915.0,86531.0,3832.0
62866.269631371826,19.218724780475895,153880.0,86545.0,3856.0
62866.27972523988,19.22881864853116,153951.0,86544.0,3868.0
62866.28981910794,19.238912516586424,153927.0,86524.0,3829.0
62866.29991297599,19.24900638464169,153909.0,86532.0,3831.0
62866.310006844054,19.25910025270423,153939.0,86527.0,3843.0
62866.32010071211,19.269194120759494,153964.0,86538.0,3833.0
62866.330194580165,19.279287988814758,153932.0,86535.0,3884.0
62866.34028844822,19.289381856870023,153943.0,86527.0,3838.0
62866.35038231628,19.299475724932563,153955.0,86542.0,3866.0
62866.36047618434,19.309569592987827,153966.0,86561.0,3858.0
62866.37057005239,19.319663461043092,153930.0,86510.0,3849.0
62866.38066392045,19.329757329098356,153952.0,86517.0,3843.0
62866.390757788504,19.33985119715362,153976.0,86537.0,3845.0
62866.40085165657,19.34994506521616,153953.0,86534.0,3858.0
62866.41094552462,19.360038933271426,153993.0,86547.0,3864.0
62866.42103939268,19.37013280132669,154003.0,86532.0,3896.0
62866.43113326073,19.380226669381955,153992.0,86548.0,3861.0
62866.441227128795,19.390320537444495,154008.0,86543.0,3873.0
62866.45132099685,19.40041440549976,153990.0,86519.0,3880.0
62866.461414864905,19.410508273555024,154013.0,86581.0,3894.0
62866.47150873296,19.42060214161029,154005.0,86549.0,3872.0
62866.48160260102,19.43069600967283,154041.0,86554.0,3864.0
62866.49169646908,19.440789877728093,154009.0,86529.0,3875.0
62866.50179033713,19.450883745783358,154032.0,86536.0,3864.0
62866.51188420519,19.460977613838622,154022.0,86563.0,3874.0
62866.52197807325,19.471071481901163,154020.0,86551.0,3876.0
62866.53207194131,19.481165349956427,153999.0,86549.0,3848.0
62866.54216580936,19.49125921801169,154032.0,86569.0,3891.0
62866.55225967742,19.501353086066956,153988.0,86553.0,3871.0
62866.56235354547,19.51144695412222,153954.0,86530.0,3865.0
62866.572447413535,19.52154082218476,153934.0,86529.0,3856.0
62866.58254128159,19.531634690240026,153884.0,86522.0,3851.0
62866.592635149646,19.54172855829529,153856.0,86519.0,3852.0
62866.6027290177,19.551822426350554,153817.0,86507.0,3845.0
62866.61282288576,19.561916294413095,153854.0,86514.0,3854.0
62866.62291675382,19.57201016246836,153781.0,86483.0,3837.0
62866.633010621874,19.582104030523624,153797.0,86519.0,3834.0
62866.64310448993,19.59219789857889,153783.0,86478.0,3829.0
62866.65319835799,19.60229176664143,153799.0,86528.0,3858.0
62866.66329222605,19.612385634696693,153756.0,86516.0,3836.0
62866.6733860941,19.622479502751958,153810.0,86507.0,3827.0
62866.68347996216,19.632573370807222,153816.0,86536.0,3858.0
62866.69357383022,19.642667238869763,153809.0,86498.0,3820.0
62866.703667698275,19.652761106925027,153821.0,86504.0,3862.0
62866.71376156633,19.66285497498029,153799.0,86503.0,3823.0
62866.723855434386,19.672948843035556,153781.0,86504.0,3843.0
62866.73394930244,19.68304271109082,153788.0,86534.0,3834.0
62866.7440431705,19.69313657915336,153796.0,86516.0,3811.0
62866.75413703856,19.703230447208625,153805.0,86518.0,3822.0
62866.764230906614,19.71332431526389,153814.0,86506.0,3807.0
62866.77432477467,19.723418183319154,153821.0,86533.0,3850.0
62866.78441864273,19.733512051381695,153820.0,86532.0,3824.0
62866.79451251079,19.74360591943696,153822.0,86517.0,3830.0
62866.80460637884,19.753699787492224,153800.0,86487.0,3827.0
62866.8147002469,19.763793655547488,153798.0,86502.0,3810.0
62866.82479411496,19.77388752361003,153819.0,86515.0,3815.0
62866.834887983016,19.783981391665293,153816.0,86515.0,3844.0
62866.84498185107,19.794075259720557,153805.0,86511.0,3817.0
62866.855075719126,19.804169127775822,153792.0,86530.0,3821.0
62866.86516958718,19.814262995831086,153852.0,86546.0,3834.0
62866.875263455244,19.824356863893627,153830.0,86526.0,3826.0
62866.8853573233,19.83445073194889,153812.0,86504.0,3832.0
62866.895451191354,19.844544600004156,153826.0,86519.0,3815.0
62866.90554505941,19.85463846805942,153838.0,86513.0,3842.0
62866.91563892747,19.86473233612196,153848.0,86522.0,3826.0
62866.92573279553,19.874826204177225,153855.0,86515.0,3809.0
62866.93582666358,19.88492007223249,153874.0,86543.0,3825.0
62866.94592053164,19.895013940287754,153861.0,86532.0,3864.0
62866.9560143997,19.905107808350294,153880.0,86541.0,3829.0
62866.966108267756,19.91520167640556,153893.0,86530.0,3866.0
62866.97620213581,19.925295544460823,153885.0,86547.0,3863.0
62866.986296003866,19.935389412516088,153887.0,86508.0,3821.0
62866.99638987193,19.945483280578628,153884.0,86534.0,3831.0
