timestamp,time_from_segment_start_sec,selected_channel_name,backup_channel_name,selected_channel_raw,selected_channel_clipped,selected_channel_detrended,selected_channel_filtered,selected_channel_filtered_z
62858.88433721586,0.0,PPG_1,PPG_3,106502.0,106502.0,107.4524334082671,-0.5934630001523756,-0.04102653228608055
62858.89433512923,0.0099979133738088,PPG_1,PPG_3,106462.0,106462.0,67.43357006766018,0.21145613493656482,0.014136782372979672
62858.904333042614,0.0199958267548936,PPG_1,PPG_3,106531.0,106531.0,136.41470672703872,0.9087843527698592,0.06192659655938148
62858.914330955995,0.0299937401359784,PPG_1,PPG_3,106507.0,106507.0,112.39584338641725,1.4068052245773348,0.0960573320092968
62858.92432886937,0.0399916535097872,PPG_1,PPG_3,106539.0,106539.0,144.3769800457958,1.6381229054625692,0.11191016673593839
62858.93432678275,0.049989566890872,PPG_1,PPG_3,106483.0,106483.0,88.35811670518888,1.5691260466739188,0.10718162287864207
62858.94432469613,0.0599874802719568,PPG_1,PPG_3,106509.0,106509.0,114.33925336456741,1.2029417004420047,0.08208600589820922
62858.954322609505,0.0699853936457657,PPG_1,PPG_3,106506.0,106506.0,111.32039002394595,0.5762535759352883,0.0391373509361919
62858.964320522886,0.0799833070268505,PPG_1,PPG_3,106513.0,106513.0,118.30152668332448,-0.24695517711592002,-0.017279401374757548
62858.97431843627,0.0899812204079353,PPG_1,PPG_3,106491.0,106491.0,96.28266334271757,-1.1830000665002267,-0.08142912339920194
62858.98431634964,0.0999791337817441,PPG_1,PPG_3,106518.0,106518.0,123.2638000020961,-2.13746799364565,-0.1468414267000623
62858.99431426302,0.1099770471628289,PPG_1,PPG_3,106477.0,106477.0,82.24493666147464,-3.0153068825893548,-0.20700213196818926
62859.0043121764,0.1199749605439137,PPG_1,PPG_3,106514.0,106514.0,119.22607332085317,-3.7308066098593966,-0.2560372895054838
62859.01431008978,0.1299728739177226,PPG_1,PPG_3,106497.0,106497.0,102.20720998024626,-4.216013438932686,-0.2892898434827691
62859.02430800316,0.1399707872988074,PPG_1,PPG_3,106476.0,106476.0,81.1883466396248,-4.426603990840393,-0.30372219124628247
62859.03430591654,0.1499687006798922,PPG_1,PPG_3,106532.0,106532.0,137.16948329900333,-4.344691979179042,-0.2981085365614147
62859.04430382991,0.159966614053701,PPG_1,PPG_3,106507.0,106507.0,112.15061995838187,-3.9785114658792358,-0.2730131822623255
62859.054301743294,0.1699645274347858,PPG_1,PPG_3,106475.0,106475.0,80.13175661777495,-3.3603644913694017,-0.2306498757213967
62859.064299656675,0.1799624408158706,PPG_1,PPG_3,106512.0,106512.0,117.11289327715349,-2.5445279399075873,-0.1747383605930132
62859.07429757005,0.1899603541896795,PPG_1,PPG_3,106493.0,106493.0,98.09402993653202,-1.6042384856493488,-0.11029774690315247
62859.08429548343,0.1999582675707643,PPG_1,PPG_3,106514.0,106514.0,119.07516659591056,-0.625465255440784,-0.04321973456108794
62859.09429339681,0.2099561809518491,PPG_1,PPG_3,106513.0,106513.0,118.05630325530365,0.30272557513555337,0.02039172728480211
62859.104291310185,0.2199540943256579,PPG_1,PPG_3,106521.0,106521.0,126.03743991468218,1.0990520059514879,0.07496616036691772
62859.114289223566,0.2299520077067427,PPG_1,PPG_3,106498.0,106498.0,103.01857657406072,1.699431644816651,0.11611182269478924
62859.12428713695,0.2399499210878275,PPG_1,PPG_3,106504.0,106504.0,108.99971323343925,2.063342762941965,0.1410516491220228
62859.13428505033,0.2499478344689123,PPG_1,PPG_3,106535.0,106535.0,139.98084989283234,2.1775628417004453,0.14887946420339798
62859.1442829637,0.2599457478427212,PPG_1,PPG_3,106516.0,106516.0,120.96198655221087,2.058094532686568,0.1406919735169079
62859.15428087708,0.269943661223806,PPG_1,PPG_3,106495.0,106495.0,99.94312321158941,1.7492194618780355,0.11952391826938556
62859.164278790464,0.2799415746048908,PPG_1,PPG_3,106525.0,106525.0,129.9242598709825,1.3182407717020832,0.08998776729330182
62859.17427670384,0.2899394879786996,PPG_1,PPG_3,106483.0,106483.0,87.90539653036103,0.8468879308532705,0.05768466510364902
62859.18427461722,0.2999374013597844,PPG_1,PPG_3,106544.0,106544.0,148.88653318973957,0.42188557689740547,0.02855808883022232
62859.1942725306,0.3099353147408692,PPG_1,PPG_3,106487.0,106487.0,91.8676698491181,0.12603849795875174,0.00828287757604646
62859.204270443974,0.319933228114678,PPG_1,PPG_3,106509.0,106509.0,113.84880650851119,0.02964169486531367,0.001676540430659521
62859.214268357355,0.3299311414957628,PPG_1,PPG_3,106510.0,106510.0,114.82994316788972,0.18230627902343036,0.012139062845756823
62859.224266270736,0.3399290548768476,PPG_1,PPG_3,106485.0,106485.0,89.81107982726826,0.6066990573147236,0.04122386322800713
62859.23426418411,0.3499269682506565,PPG_1,PPG_3,106512.0,106512.0,116.7922164866468,1.2962265720689439,0.08847907385020701
62859.24426209749,0.3599248816317413,PPG_1,PPG_3,106528.0,106528.0,132.77335314603988,2.2180265568398214,0.15165255351535892
62859.25426001087,0.3699227950128261,PPG_1,PPG_3,106515.0,106515.0,119.75448980541842,3.320774558682176,0.2272268967797393
62859.264257924246,0.3799207083866349,PPG_1,PPG_3,106539.0,106539.0,143.73562646479695,4.544192401407286,0.31107107500305453
62859.27425583763,0.3899186217677197,PPG_1,PPG_3,106478.0,106478.0,82.71676312417549,5.826476592269524,0.3989495254203826
62859.28425375101,0.3999165351488045,PPG_1,PPG_3,106529.0,106529.0,133.69789978356857,7.108596400824814,0.48681671026763385
62859.29425166438,0.4099144485226134,PPG_1,PPG_3,106516.0,106516.0,120.67903644294711,8.337780589195036,0.5710560719639064
62859.30424957776,0.4199123619036982,PPG_1,PPG_3,106536.0,106536.0,140.66017310232564,9.472594340439997,0.6488279689289813
62859.314247491144,0.429910275284783,PPG_1,PPG_3,106525.0,106525.0,129.64130976170418,10.488875892233454,0.7184765293618077
62859.32424540452,0.4399081886585918,PPG_1,PPG_3,106542.0,106542.0,146.62244642109727,11.383519406913763,0.7797889016941468
62859.3342433179,0.4499061020396766,PPG_1,PPG_3,106528.0,106528.0,132.6035830804758,12.173490440710276,0.8339277819979988
62859.34424123128,0.4599040154207614,PPG_1,PPG_3,106497.0,106497.0,101.58471973985434,12.889152653522713,0.8829740751148962
62859.35423914465,0.4699019287945702,PPG_1,PPG_3,106518.0,106518.0,122.56585639923287,13.563610571043188,0.9291965249320018
62859.364237058035,0.479899842175655,PPG_1,PPG_3,106535.0,106535.0,139.54699305862596,14.222430007437929,0.97434722677155
62859.374234971416,0.4898977555567398,PPG_1,PPG_3,106523.0,106523.0,127.5281297180045,14.877542591741861,1.0192438878766121
62859.38423288479,0.4998956689305487,PPG_1,PPG_3,106545.0,106545.0,149.50926637738303,15.525333018679515,1.0636387414668926
62859.39423079817,0.5098935823116335,PPG_1,PPG_3,106508.0,106508.0,112.49040303677612,16.146364439343284,1.10619972700919
62859.40422871155,0.5198914956927183,PPG_1,PPG_3,106519.0,106519.0,123.47153969615465,16.705282849805943,1.144503937706935
62859.414226624926,0.5298894090665272,PPG_1,PPG_3,106541.0,106541.0,145.45267635553319,17.152039427727633,1.1751213905783666
62859.42422453831,0.539887322447612,PPG_1,PPG_3,106517.0,106517.0,121.43381301491172,17.426388754079678,1.1939233019211586
62859.43422245169,0.5498852358286968,PPG_1,PPG_3,106558.0,106558.0,162.4149496743048,17.46571441057808,1.1966183969549669
62859.44422036506,0.5598831492025056,PPG_1,PPG_3,106522.0,106522.0,126.39608633368334,17.213969683537645,1.179365640763556
62859.45421827844,0.5698810625835904,PPG_1,PPG_3,106526.0,106526.0,130.37722299306188,16.62914224768613,1.1392858135377268
62859.464216191824,0.5798789759646752,PPG_1,PPG_3,106550.0,106550.0,154.3583596524404,15.688028474923454,1.0747887070412507
62859.4742141052,0.589876889338484,PPG_1,PPG_3,106519.0,106519.0,123.3394963118335,14.388465395732387,0.9857260870442833
62859.48421201858,0.5998748027195688,PPG_1,PPG_3,106523.0,106523.0,127.32063297121204,12.749175600156196,0.8733810639622268
62859.49420993196,0.6098727161006536,PPG_1,PPG_3,106539.0,106539.0,143.30176963059057,10.80731434667375,0.7402999895034205
62859.50420784533,0.6198706294744625,PPG_1,PPG_3,106507.0,106507.0,111.2829062899691,8.614466342023732,0.5900181050174278
62859.514205758715,0.6298685428555473,PPG_1,PPG_3,106498.0,106498.0,102.26404294936219,6.232150373615158,0.42675146163205846
62859.524203672096,0.6398664562366321,PPG_1,PPG_3,106547.0,106547.0,151.24517960874073,3.728318984453093,0.25515703338142787
62859.53420158547,0.6498643696104409,PPG_1,PPG_3,106517.0,106517.0,121.22631626811926,1.1762310448623279,0.08025545145583199
62859.54419949885,0.6598622829915257,PPG_1,PPG_3,106508.0,106508.0,112.2074529274978,-1.3453631210863026,-0.09255630857681388
62859.55419741223,0.6698601963726105,PPG_1,PPG_3,106538.0,106538.0,142.18858958689088,-3.753666830633216,-0.2576039630963439
62859.564195325605,0.6798581097464194,PPG_1,PPG_3,106504.0,106504.0,108.16972624626942,-5.966669953193395,-0.40926713305910173
62859.57419323899,0.6898560231275042,PPG_1,PPG_3,106513.0,106513.0,117.15086290564795,-7.911670944263813,-0.54256338234102
62859.58419115237,0.699853936508589,PPG_1,PPG_3,106451.0,106451.0,55.13199956502649,-9.536732047325891,-0.6539332741233885
62859.59418906574,0.7098518498823978,PPG_1,PPG_3,106486.0,106486.0,90.11313622441958,-10.82127261252135,-0.741966360058629
62859.60418697912,0.7198497632634826,PPG_1,PPG_3,106522.0,106522.0,126.09427288379811,-11.779183677621447,-0.8076146310413699
62859.6141848925,0.7298476766445674,PPG_1,PPG_3,106511.0,106511.0,115.07540954317665,-12.450534448156395,-0.8536241395586818
62859.62418280588,0.7398455900183762,PPG_1,PPG_3,106504.0,106504.0,108.05654620255518,-12.885097824120187,-0.883405958877644
62859.63418071926,0.749843503399461,PPG_1,PPG_3,106550.0,106550.0,154.03768286194827,-13.125064208015324,-0.8998515129281656
62859.64417863264,0.7598414167805458,PPG_1,PPG_3,106493.0,106493.0,97.0188195213268,-13.193050290805594,-0.9045107855356955
62859.65417654601,0.7698393301543547,PPG_1,PPG_3,106509.0,106509.0,112.99995618070534,-13.088824180204714,-0.8973678844862242
62859.664174459394,0.7798372435354395,PPG_1,PPG_3,106495.0,106495.0,98.98109284009843,-12.795098246908632,-0.8772380411571206
62859.674172372776,0.7898351569165243,PPG_1,PPG_3,106502.0,106502.0,105.96222949947696,-12.289217115169988,-0.8425686205486804
62859.68417028615,0.7998330702903331,PPG_1,PPG_3,106481.0,106481.0,84.9433661588555,-11.556193574652907,-0.7923325080557477
62859.69416819953,0.8098309836714179,PPG_1,PPG_3,106491.0,106491.0,94.92450281823403,-10.599270288372603,-0.726751932263088
62859.70416611291,0.8198288970525027,PPG_1,PPG_3,106537.0,106537.0,140.90563947762712,-9.445103580286997,-0.6476537241181133
62859.714164026285,0.8298268104263116,PPG_1,PPG_3,106492.0,106492.0,95.88677613700565,-8.142824905134878,-0.5584049968863243
62859.72416193967,0.8398247238073964,PPG_1,PPG_3,106523.0,106523.0,126.86791279638419,-6.7594977347920295,-0.46360179412034935
62859.73415985305,0.8498226371884812,PPG_1,PPG_3,106510.0,106510.0,113.84904945576272,-5.375282623660809,-0.3687377383382486
62859.74415776643,0.859820550569566,PPG_1,PPG_3,106478.0,106478.0,81.83018611515581,-4.079346607962084,-0.27992369094440894
62859.7541556798,0.8698184639433748,PPG_1,PPG_3,106536.0,106536.0,139.81132277453435,-2.9651135188700013,-0.2035622431694947
62859.76415359318,0.8798163773244596,PPG_1,PPG_3,106529.0,106529.0,132.79245943391288,-2.1229838209467284,-0.1458487866430229
62859.774151506565,0.8898142907055444,PPG_1,PPG_3,106512.0,106512.0,115.77359609329142,-1.6311272375337664,-0.1121405067734662
62859.78414941994,0.8998122040793533,PPG_1,PPG_3,106504.0,106504.0,107.7547327526845,-1.5476618497784793,-0.10642039496698438
62859.79414733332,0.909810117460438,PPG_1,PPG_3,106493.0,106493.0,96.73586941206304,-1.9058868527763273,-0.13097053633855157
62859.8041452467,0.9198080308415229,PPG_1,PPG_3,106536.0,106536.0,139.71700607144157,-2.710248354454765,-0.1860956348514836
62859.814143160074,0.9298059442153316,PPG_1,PPG_3,106528.0,106528.0,131.6981427308201,-3.9305629093182306,-0.26972713625134304
62859.824141073455,0.9398038575964164,PPG_1,PPG_3,106531.0,106531.0,134.6792793902132,-5.4962453251455505,-0.377027643836986
62859.83413898684,0.9498017709775012,PPG_1,PPG_3,106540.0,106540.0,143.66041604959173,-7.29575808000258,-0.5003531854992574
62859.84413690021,0.95979968435131,PPG_1,PPG_3,106494.0,106494.0,97.64155270897027,-9.18584141627366,-0.6298857773652059
62859.85413481359,0.9697975977323948,PPG_1,PPG_3,106486.0,106486.0,89.6226893683488,-11.011188382209795,-0.7549818083258437
62859.86413272697,0.9797955111134796,PPG_1,PPG_3,106468.0,106468.0,71.60382602774189,-12.629999190352988,-0.8659233502649893
62859.874130640346,0.9897934244872886,PPG_1,PPG_3,106470.0,106470.0,73.58496268712042,-13.936700649270918,-0.9554751829913639
62859.88412855373,0.9997913378683734,PPG_1,PPG_3,106534.0,106534.0,137.56609934649896,-14.87335410889618,-1.0196666120025484
62859.89412646711,1.0097892512494582,PPG_1,PPG_3,106508.0,106508.0,111.54723600589205,-15.427015661213716,-1.057610555802246
62859.90412438048,1.019787164623267,PPG_1,PPG_3,106504.0,106504.0,107.52837266527058,-15.61786678510604,-1.070690106456914
62859.91412229386,1.0297850780043518,PPG_1,PPG_3,106495.0,106495.0,98.50950932464912,-15.485692777979944,-1.0616318594517165
62859.924120207244,1.0397829913854366,PPG_1,PPG_3,106525.0,106525.0,128.49064598402765,-15.07865842809872,-1.0337366797488972
62859.93411812062,1.0497809047592457,PPG_1,PPG_3,106518.0,106518.0,121.47178264342074,-14.444700034619823,-0.9902897733259748
62859.944116034,1.0597788181403305,PPG_1,PPG_3,106495.0,106495.0,98.45291930279927,-13.626344378758118,-0.9342056170680513
62859.95411394738,1.069776731521415,PPG_1,PPG_3,106495.0,106495.0,98.43405596217781,-12.660408472230033,-0.8680073817056808
62859.964111860754,1.079774644895224,PPG_1,PPG_3,106479.0,106479.0,82.41519262155634,-11.581300925758194,-0.7940531836477417
62859.974109774135,1.0897725582763087,PPG_1,PPG_3,106520.0,106520.0,123.39632928094943,-10.423521271935858,-0.7147073704281289
62859.98410768752,1.0997704716573935,PPG_1,PPG_3,106519.0,106519.0,122.37746594032797,-9.219733187198806,-0.6322084733260741
62859.99410560089,1.1097683850312023,PPG_1,PPG_3,106512.0,106512.0,115.3586025997065,-7.995051102843198,-0.548277653158459
62860.00410351427,1.1197662984122871,PPG_1,PPG_3,106524.0,106524.0,127.33973925908504,-6.761478872527865,-0.463737566919803
62860.01410142765,1.129764211793372,PPG_1,PPG_3,106525.0,106525.0,128.32087591847812,-5.5160412756522925,-0.3783843145870955
62860.024099341026,1.1397621251671808,PPG_1,PPG_3,106499.0,106499.0,102.30201257785666,-4.244007663781901,-0.2912083644455278
62860.03409725441,1.1497600385482656,PPG_1,PPG_3,106486.0,106486.0,89.2831492372352,-2.9264985628869953,-0.20091585439007906
62860.04409516779,1.1597579519293504,PPG_1,PPG_3,106532.0,106532.0,135.26428589661373,-1.54918021655016,-0.10652445280378166
62860.05409308116,1.1697558653031592,PPG_1,PPG_3,106530.0,106530.0,133.24542255600682,-0.10788190930541391,-0.007748329123571714
62860.06409099454,1.179753778684244,PPG_1,PPG_3,106516.0,106516.0,119.22655921538535,1.3896119861183582,0.0948790322500098
62860.07408890792,1.1897516920653288,PPG_1,PPG_3,106487.0,106487.0,90.20769587476389,2.922878412599691,0.19995798323160976
62860.0840868213,1.1997496054391377,PPG_1,PPG_3,106538.0,106538.0,141.18883253414242,4.458318806305861,0.3051859221461018
62860.09408473468,1.2097475188202225,PPG_1,PPG_3,106519.0,106519.0,122.16996919353551,5.951226478536967,0.40749897707317817
62860.10408264806,1.2197454322013073,PPG_1,PPG_3,106538.0,106538.0,141.15110585291404,7.351887666436537,0.5034901275758924
62860.114080561434,1.229743345575116,PPG_1,PPG_3,106518.0,106518.0,121.13224251229258,8.613647780997113,0.5899620067865489
62860.124078474815,1.239741258956201,PPG_1,PPG_3,106550.0,106550.0,153.1133791716711,9.700026145462337,0.6644144939313209
62860.13407638819,1.2497391723372857,PPG_1,PPG_3,106518.0,106518.0,121.0945158310642,10.589311737633459,0.7253596731477199
62860.14407430157,1.2597370857110946,PPG_1,PPG_3,106508.0,106508.0,111.07565249044274,11.276234181928517,0.7724363511506998
62860.15407221495,1.2697349990921794,PPG_1,PPG_3,106553.0,106553.0,156.05678914982127,11.771698753544575,0.8063918963415257
62860.16407012833,1.2797329124732642,PPG_1,PPG_3,106544.0,106544.0,147.03792580921436,12.102315917256083,0.829049996812064
62860.174068041706,1.289730825847073,PPG_1,PPG_3,106525.0,106525.0,128.0190624685929,12.30932021158216,0.843236568513362
62860.18406595509,1.2997287392281578,PPG_1,PPG_3,106521.0,106521.0,124.00019912797143,12.444376013022058,0.852492312782055
62860.19406386847,1.3097266526092426,PPG_1,PPG_3,106521.0,106521.0,123.98133578734996,12.561867662941934,0.8605443376026924
62860.20406178184,1.3197245659830514,PPG_1,PPG_3,106519.0,106519.0,121.96247244674305,12.710815307837015,0.8707521279817414
62860.21405969522,1.3297224793641362,PPG_1,PPG_3,106547.0,106547.0,149.94360910612158,12.929878784150656,0.8857651484795852
62860.22405760861,1.339720392745221,PPG_1,PPG_3,106533.0,106533.0,135.92474576550012,13.246241686400966,0.9074463653404057
62860.23405552198,1.34971830611903,PPG_1,PPG_3,106531.0,106531.0,133.90588242487866,13.676389670651217,0.9369255857623866
62860.24405343536,1.359716219500115,PPG_1,PPG_3,106558.0,106558.0,160.88701908427174,14.226066955839473,0.9745964768146005
62860.25405134874,1.3697141328811997,PPG_1,PPG_3,106509.0,106509.0,111.86815574365028,14.887799366331839,1.019946812753695
62860.264049262114,1.3797120462550083,PPG_1,PPG_3,106513.0,106513.0,115.84929240302881,15.63607888441727,1.0712284592069323
62860.274047175495,1.3897099596360931,PPG_1,PPG_3,106509.0,106509.0,111.83042906240735,16.422940802880177,1.1251542633147014
62860.28404508888,1.399707873017178,PPG_1,PPG_3,106558.0,106558.0,160.81156572180043,17.178832554265696,1.1769575969815798
62860.29404300225,1.4097057863909868,PPG_1,PPG_3,106566.0,106566.0,168.79270238117897,17.82124239690406,1.2209837043813272
62860.30404091563,1.4197036997720716,PPG_1,PPG_3,106538.0,106538.0,140.7738390405575,18.26715162668748,1.2515430861622112
62860.31403882901,1.4297016131531564,PPG_1,PPG_3,106504.0,106504.0,106.75497569993604,18.442279163073906,1.2635450562658082
62860.32403674239,1.4396995265342412,PPG_1,PPG_3,106542.0,106542.0,144.73611235932913,18.2845672356723,1.2527366255831651
62860.33403465577,1.44969743990805,PPG_1,PPG_3,106541.0,106541.0,143.71724901870766,17.74557922190045,1.2157982996010488
62860.34403256915,1.4596953532891348,PPG_1,PPG_3,106541.0,106541.0,143.6983856780862,16.793500271283413,1.150549719410006
62860.35403048253,1.4696932666702196,PPG_1,PPG_3,106535.0,106535.0,137.67952233746473,15.416932131193436,1.0562097315141659
62860.3640283959,1.4796911800440284,PPG_1,PPG_3,106519.0,106519.0,121.66065899685782,13.626775623209605,0.9335253990961462
62860.37402630928,1.4896890934251132,PPG_1,PPG_3,106523.0,106523.0,125.64179565623635,11.45560449177701,0.7847290901493473
62860.384024222665,1.499687006806198,PPG_1,PPG_3,106546.0,106546.0,148.6229323156149,8.95614696859524,0.6134344149233741
62860.39402213604,1.5096849201800069,PPG_1,PPG_3,106510.0,106510.0,112.60406897499342,6.200041375806704,0.4245509439995647
62860.40402004942,1.5196828335610917,PPG_1,PPG_3,106524.0,106524.0,126.58520563438651,3.2761700540507688,0.22417002781373818
62860.4140179628,1.5296807469421765,PPG_1,PPG_3,106530.0,106530.0,132.56634229376505,0.2875362296729327,0.019350759805345768
62860.424015876175,1.539678660315985,PPG_1,PPG_3,106521.0,106521.0,123.54747895314358,-2.653603297125535,-0.18221359380522675
62860.43401378955,1.54967657369707,PPG_1,PPG_3,106502.0,106502.0,104.52861561253667,-5.432876357368816,-0.37268479477712163
62860.44401170294,1.559674487078155,PPG_1,PPG_3,106501.0,106501.0,103.5097522719152,-7.943540948249862,-0.544747521071768
62860.45400961631,1.5696724004519638,PPG_1,PPG_3,106502.0,106502.0,104.49088893129374,-10.097180734403045,-0.6923423588721044
62860.46400752969,1.5796703138330486,PPG_1,PPG_3,106516.0,106516.0,118.47202559067227,-11.832483798246109,-0.8112674344065914
62860.47400544307,1.5896682272141334,PPG_1,PPG_3,106483.0,106483.0,85.45316225006536,-13.120630761312462,-0.8995476766732763
62860.48400335645,1.5996661405879422,PPG_1,PPG_3,106506.0,106506.0,108.4342989094439,-13.967501170367953,-0.9575860271282113
62860.49400126983,1.609664053969027,PPG_1,PPG_3,106493.0,106493.0,95.41543556882243,-14.412705741877566,-0.988097116746081
62860.50399918321,1.6196619673501118,PPG_1,PPG_3,106505.0,106505.0,107.39657222820097,-14.524826330566198,-0.9957810480181418
62860.51399709658,1.6296598807239209,PPG_1,PPG_3,106489.0,106489.0,91.37770888759405,-14.392847325928198,-0.9867361650679668
62860.52399500997,1.6396577941050057,PPG_1,PPG_3,106500.0,106500.0,102.35884554697259,-14.114456743445446,-0.9676572953652132
62860.533992923345,1.6496557074860905,PPG_1,PPG_3,106535.0,106535.0,137.33998220635112,-13.782012876938767,-0.9448740059450204
62860.54399083672,1.659653620859899,PPG_1,PPG_3,106504.0,106504.0,106.32111886572966,-13.468121743730931,-0.9233621861919472
62860.5539887501,1.669651534240984,PPG_1,PPG_3,106514.0,106514.0,116.30225552512275,-13.21470776875651,-0.9059950318641121
62860.56398666348,1.6796494476220687,PPG_1,PPG_3,106497.0,106497.0,99.28339218450128,-13.029005145206938,-0.8932683220502795
62860.573984576855,1.6896473609958775,PPG_1,PPG_3,106516.0,106516.0,118.26452884387982,-12.886731259125767,-0.8835179026559192
62860.58398249024,1.6996452743769623,PPG_1,PPG_3,106503.0,106503.0,105.24566550325835,-12.740518914112469,-0.8734975698753892
62860.59398040362,1.7096431877580471,PPG_1,PPG_3,106480.0,106480.0,82.22680216265144,-12.531780360432759,-0.8591921446268781
62860.60397831699,1.719641101131856,PPG_1,PPG_3,106511.0,106511.0,113.20793882202997,-12.204093941544443,-0.8367348961324198
62860.61397623037,1.7296390145129408,PPG_1,PPG_3,106478.0,106478.0,80.18907548140851,-11.71520249814523,-0.8032298254356312
62860.62397414375,1.7396369278940256,PPG_1,PPG_3,106508.0,106508.0,110.17021214078704,-11.044744323571612,-0.7572814889662081
62860.63397205713,1.7496348412678344,PPG_1,PPG_3,106503.0,106503.0,105.15134880018013,-10.196318162947964,-0.6991365185918994
62860.64396997051,1.7596327546489192,PPG_1,PPG_3,106516.0,106516.0,118.13248545955867,-9.194299863425185,-0.6304654579336086
62860.65396788389,1.769630668030004,PPG_1,PPG_3,106507.0,106507.0,109.1136221189372,-8.077474203587423,-0.5539263341791018
62860.66396579726,1.7796285814038129,PPG_1,PPG_3,106499.0,106499.0,101.09475877833029,-6.8920697828541,-0.47268731996194335
62860.67396371064,1.7896264947848977,PPG_1,PPG_3,106534.0,106534.0,136.07589543770882,-5.685631068238634,-0.390006767928786
62860.683961624025,1.7996244081659825,PPG_1,PPG_3,106511.0,106511.0,113.05703209708736,-4.502199151683596,-0.3089029348297172
62860.6939595374,1.8096223215397913,PPG_1,PPG_3,106521.0,106521.0,123.0381687564659,-3.379931068444945,-0.23199082688153985
62860.70395745078,1.819620234920876,PPG_1,PPG_3,106509.0,106509.0,111.01930541585898,-2.352692547109914,-0.16159135529232152
62860.71395536416,1.829618148301961,PPG_1,PPG_3,106473.0,106473.0,75.00044207523752,-1.4553484530909493,-0.10009390485545512
62860.723953277535,1.8396160616757695,PPG_1,PPG_3,106489.0,106489.0,90.98157873461605,-0.729196659144298,-0.050328731990861644
62860.73395119091,1.8496139750568543,PPG_1,PPG_3,106542.0,106542.0,143.96271539399459,-0.22186515940146423,-0.015559913687549082
62860.7439491043,1.8596118884379391,PPG_1,PPG_3,106517.0,106517.0,118.94385205338767,0.021509530197635306,0.001119220895234555
62860.75394701767,1.869609801811748,PPG_1,PPG_3,106526.0,106526.0,127.92498871276621,-0.027422386546852157,-0.002234217484570944
62860.76394493105,1.879607715192833,PPG_1,PPG_3,106541.0,106541.0,142.90612537214474,-0.3674119374339855,-0.0255346333385277
62860.77394284443,1.8896056285739176,PPG_1,PPG_3,106527.0,106527.0,128.88726203152328,-0.9616460790112672,-0.06625912789208566
62860.78394075781,1.8996035419477264,PPG_1,PPG_3,106478.0,106478.0,79.86839869091637,-1.7409884572181393,-0.1196695972945998
62860.79393867119,1.9096014553288112,PPG_1,PPG_3,106508.0,106508.0,109.8495353502949,-2.615381247263309,-0.17959413195924728
62860.80393658457,1.919599368709896,PPG_1,PPG_3,106501.0,106501.0,102.83067200967344,-3.4882930206659233,-0.23941716849382538
62860.81393449794,1.929597282083705,PPG_1,PPG_3,106532.0,106532.0,133.81180866905197,-4.268504116295577,-0.29288717348252913
62860.82393241133,1.93959519546479,PPG_1,PPG_3,106495.0,106495.0,96.79294532844506,-4.877819745307822,-0.3346452437092628
62860.833930324705,1.949593108845875,PPG_1,PPG_3,106482.0,106482.0,83.77408198782359,-5.256791385038285,-0.3606172089638862
62860.84392823808,1.9595910222196835,PPG_1,PPG_3,106510.0,106510.0,111.75521864720213,-5.368999747010028,-0.36830715557963045
62860.85392615146,1.9695889356007683,PPG_1,PPG_3,106528.0,106528.0,129.73635530658066,-5.201634362495792,-0.3568371470203567
62860.86392406484,1.979586848981853,PPG_1,PPG_3,106513.0,106513.0,114.71749196597375,-4.761618975210383,-0.3266816864212355
62860.873921978215,1.989584762355662,PPG_1,PPG_3,106505.0,106505.0,106.69862862535228,-4.070528111759315,-0.2793193352276085
62860.8839198916,1.9995826757367468,PPG_1,PPG_3,106506.0,106506.0,107.67976528473082,-3.161838536521884,-0.21704434786419907
62860.89391780498,2.0095805891178316,PPG_1,PPG_3,106511.0,106511.0,112.66090194410936,-2.0806368942240767,-0.1429466356792647
62860.90391571836,2.0195785024989164,PPG_1,PPG_3,106516.0,106516.0,117.64203860350244,-0.8838338345189257,-0.06092644148901677
62860.91391363173,2.029576415872725,PPG_1,PPG_3,106509.0,106509.0,110.62317526288098,0.36018075737019356,0.024329288411427452
62860.92391154511,2.03957432925381,PPG_1,PPG_3,106495.0,106495.0,96.60431192225951,1.5723702119891458,0.10740395442014543
62860.933909458494,2.049572242634895,PPG_1,PPG_3,106517.0,106517.0,118.5854485816526,2.66488099121324,0.1822767127576579
62860.94390737187,2.0595701560087036,PPG_1,PPG_3,106509.0,106509.0,110.56658524103113,3.5454008054901505,0.24262114918744587
62860.95390528525,2.0695680693897884,PPG_1,PPG_3,106508.0,106508.0,109.54772190040967,4.124994016045546,0.2823422606064077
62860.96390319863,2.0795659827708732,PPG_1,PPG_3,106513.0,106513.0,114.5288585597882,4.328928565846427,0.2963184543010411
62860.973901112,2.089563896144682,PPG_1,PPG_3,106532.0,106532.0,133.5099952191813,4.109376895515037,0.281271976528992
62860.983899025385,2.099561809525767,PPG_1,PPG_3,106540.0,106540.0,141.49113187855983,3.45807637367861,0.23663656651391882
62860.993896938766,2.1095597229068517,PPG_1,PPG_3,106513.0,106513.0,114.47226853793836,2.4152372855512465,0.16516794532033674
62861.00389485214,2.1195576362806605,PPG_1,PPG_3,106503.0,106503.0,104.4534051973169,1.0707492298652663,0.0730264935421296
62861.01389276552,2.1295555496617453,PPG_1,PPG_3,106518.0,106518.0,119.43454185670998,-0.44305082062199963,-0.030718373334097913
62861.0238906789,2.13955346304283,PPG_1,PPG_3,106525.0,106525.0,126.41567851608852,-1.9644020436339926,-0.13498074276165978
62861.033888592276,2.149551376416639,PPG_1,PPG_3,106506.0,106506.0,107.39681517546705,-3.318676493776791,-0.22779288297708428
62861.04388650566,2.159549289797724,PPG_1,PPG_3,106465.0,106465.0,66.37795183484559,-4.3380788385577835,-0.2976553199076265
62861.05388441904,2.169547203178809,PPG_1,PPG_3,106493.0,106493.0,94.35908849423868,-4.882511398102199,-0.3349667755353619
62861.06388233241,2.1795451165526174,PPG_1,PPG_3,106498.0,106498.0,99.34022515361721,-4.856045720249701,-0.3331530100881268
62861.07388024579,2.189543029933702,PPG_1,PPG_3,106529.0,106529.0,130.32136181299575,-4.214083195810306,-0.2891575586306807
62861.083878159174,2.199540943314787,PPG_1,PPG_3,106485.0,106485.0,86.30249847237428,-2.9617126508417844,-0.20332917236153863
62861.09387607255,2.209538856688596,PPG_1,PPG_3,106497.0,106497.0,98.28363513176737,-1.1473765020662565,-0.07898774288222458
62861.10387398593,2.2195367700696806,PPG_1,PPG_3,106552.0,106552.0,153.2647717911459,1.1456182681655864,0.07815747395735533
62861.11387189931,2.2295346834507654,PPG_1,PPG_3,106526.0,106526.0,127.24590845052444,3.808783580440286,0.26067149270269274
62861.12386981268,2.2395325968245743,PPG_1,PPG_3,106486.0,106486.0,87.22704510990297,6.716355581934017,0.4599353717935402
62861.133867726065,2.249530510205659,PPG_1,PPG_3,106481.0,106481.0,82.20818176929606,9.728727061807083,0.666381446399352
62861.143865639446,2.259528423586744,PPG_1,PPG_3,106539.0,106539.0,140.1893184286746,12.694588671240556,0.8696400720976062
62861.15386355282,2.2695263369605527,PPG_1,PPG_3,106522.0,106522.0,123.17045508805313,15.458106301171485,1.0590315102436203
62861.1638614662,2.2795242503416375,PPG_1,PPG_3,106534.0,106534.0,135.15159174743167,17.87248838924899,1.2244957327050503
62861.17385937958,2.2895221637227223,PPG_1,PPG_3,106539.0,106539.0,140.13272840682475,19.81540206452771,1.3576489325143064
62861.18385729296,2.299520077096531,PPG_1,PPG_3,106540.0,106540.0,141.1138650662033,21.2012228509152,1.4526230296229712
62861.19385520634,2.309517990477616,PPG_1,PPG_3,106515.0,106515.0,116.09500172558182,21.98746554419884,1.506506396531872
62861.20385311972,2.3195159038587008,PPG_1,PPG_3,106533.0,106533.0,134.0761383849749,22.175005738710553,1.5193590401206316
62861.21385103309,2.3295138172325096,PPG_1,PPG_3,106521.0,106521.0,122.05727504435345,21.803794477764075,1.4939189148957364
62861.22384894647,2.3395117306135944,PPG_1,PPG_3,106545.0,106545.0,146.03841170373198,20.94644339519336,1.435162295156651
62861.233846859854,2.349509643994679,PPG_1,PPG_3,106526.0,106526.0,127.01954836311052,19.700488131209617,1.3497735656780643
62861.24384477323,2.359507557368488,PPG_1,PPG_3,106486.0,106486.0,87.0006850225036,18.178680358434487,1.2454799076438043
62861.25384268661,2.369505470749573,PPG_1,PPG_3,106560.0,106560.0,160.98182168188214,16.497783729375637,1.1302834542163662
62861.26384059999,2.3795033841306577,PPG_1,PPG_3,106493.0,106493.0,93.96295834126067,14.768120468753896,1.0117448898556736
62861.27383851336,2.3895012975044665,PPG_1,PPG_3,106522.0,106522.0,122.94409500063921,13.085250208691052,0.8964131780856913
62861.283836426745,2.3994992108855513,PPG_1,PPG_3,106507.0,106507.0,107.9252316600323,11.523630956265851,0.789391130225369
62861.293834340126,2.409497124266636,PPG_1,PPG_3,106533.0,106533.0,133.90636831941083,10.132497500132898,0.6940529412967027
62861.3038322535,2.419495037640445,PPG_1,PPG_3,106511.0,106511.0,111.88750497878937,8.934055561892077,0.6119204302681415
62861.31383016688,2.4294929510215297,PPG_1,PPG_3,106480.0,106480.0,80.8686416381679,7.922827935476499,0.5426182291945723
62861.32382808026,2.4394908644026145,PPG_1,PPG_3,106510.0,106510.0,110.84977829756099,7.06601444852928,0.4838984523571469
62861.333825993635,2.4494887777764234,PPG_1,PPG_3,106524.0,106524.0,124.83091495693952,6.307267576040075,0.4318994494149755
62861.34382390702,2.459486691157508,PPG_1,PPG_3,106518.0,106518.0,118.81205161631806,5.575368080532097,0.3817403708075911
62861.3538218204,2.469484604538593,PPG_1,PPG_3,106507.0,106507.0,107.7931882756966,4.795171080740542,0.3282713318453098
62861.36381973377,2.479482517912402,PPG_1,PPG_3,106487.0,106487.0,87.77432493508968,3.896844810906301,0.26670657020762006
62861.37381764715,2.4894804312934866,PPG_1,PPG_3,106514.0,106514.0,114.75546159446822,2.8225720479549237,0.19308371311676856
62861.38381556053,2.4994783446745714,PPG_1,PPG_3,106521.0,106521.0,121.73659825384675,1.5325597877335344,0.1046756369231582
62861.39381347391,2.5094762580483803,PPG_1,PPG_3,106506.0,106506.0,106.71773491322529,0.010741844694680555,0.0003812818928481086
62861.40381138729,2.519474171429465,PPG_1,PPG_3,106482.0,106482.0,82.69887157261837,-1.7321392857540332,-0.1190631393180572
62861.41380930067,2.52947208481055,PPG_1,PPG_3,106487.0,106487.0,87.68000823199691,-3.659461364912762,-0.25114780430771416
62861.42380721404,2.5394699981843587,PPG_1,PPG_3,106529.0,106529.0,129.66114489137544,-5.711716855075319,-0.3917944984034035
62861.433805127424,2.5494679115654435,PPG_1,PPG_3,106487.0,106487.0,87.64228155076853,-7.809563416592441,-0.5355656735868702
62861.443803040806,2.5594658249465283,PPG_1,PPG_3,106485.0,106485.0,85.62341821014707,-9.85822424811619,-0.6759660158728681
62861.45380095418,2.569463738320337,PPG_1,PPG_3,106515.0,106515.0,115.6045548695256,-11.755458590668082,-0.8059886858005757
62861.46379886756,2.579461651701422,PPG_1,PPG_3,106452.0,106452.0,52.585691528904135,-13.402984151889651,-0.9188981284770353
62861.47379678094,2.5894595650825067,PPG_1,PPG_3,106488.0,106488.0,88.56682818829722,-14.719450211592157,-1.0091191560605308
62861.48379469432,2.5994574784635915,PPG_1,PPG_3,106472.0,106472.0,72.54796484767576,-15.652221681771067,-1.0730445416941918
62861.4937926077,2.6094553918374004,PPG_1,PPG_3,106474.0,106474.0,74.52910150705429,-16.184884336246856,-1.1095493734655615
62861.50379052108,2.619453305218485,PPG_1,PPG_3,106469.0,106469.0,69.51023816643283,-16.338579756559973,-1.1200825419079443
62861.51378843446,2.62945121859957,PPG_1,PPG_3,106488.0,106488.0,88.49137482582591,-16.166828006540907,-1.1083119236973347
62861.52378634783,2.639449131973379,PPG_1,PPG_3,106495.0,106495.0,95.47251148520445,-15.744533000024965,-1.0793708893649672
62861.53378426121,2.6494470453544636,PPG_1,PPG_3,106492.0,106492.0,92.45364814458298,-15.153599586944965,-1.038872602782822
62861.543782174595,2.6594449587355484,PPG_1,PPG_3,106496.0,106496.0,96.43478480396152,-14.469245181394964,-0.9919719195141883
62861.55378008797,2.6694428721093573,PPG_1,PPG_3,106483.0,106483.0,83.41592146335461,-13.750669666286354,-0.9427259698053985
62861.56377800135,2.679440785490442,PPG_1,PPG_3,106502.0,106502.0,102.39705812273314,-13.037681496181614,-0.8938629361649701
62861.57377591473,2.689438698871527,PPG_1,PPG_3,106459.0,106459.0,59.37819478211168,-12.352973232728818,-0.8469380020443125
62861.583773828104,2.6994366122453357,PPG_1,PPG_3,106465.0,106465.0,65.35933144149021,-11.708161188592786,-0.8027472651913522
62861.593771741485,2.7094345256264205,PPG_1,PPG_3,106500.0,106500.0,100.3404681008833,-11.109923355307654,-0.7617483866706972
62861.60376965487,2.7194324390075053,PPG_1,PPG_3,106484.0,106484.0,84.32160476026183,-10.562614214004755,-0.7242397910101707
62861.61376756824,2.729430352381314,PPG_1,PPG_3,106475.0,106475.0,75.30274141964037,-10.066965419290876,-0.6902716205054844
62861.62376548162,2.739428265762399,PPG_1,PPG_3,106510.0,106510.0,110.2838780790189,-9.617196130026002,-0.6594476982676827
62861.633763395,2.749426179143484,PPG_1,PPG_3,106478.0,106478.0,78.26501473841199,-9.198557040933935,-0.630757213977461
62861.643761308376,2.7594240925172926,PPG_1,PPG_3,106490.0,106490.0,90.24615139779053,-8.786508953115094,-0.6025184290708216
62861.65375922176,2.7694220058983774,PPG_1,PPG_3,106497.0,106497.0,97.22728805716906,-8.34835640951769,-0.5724906342558052
62861.66375713514,2.779419919279462,PPG_1,PPG_3,106478.0,106478.0,78.2084247165476,-7.847331078301614,-0.5381539949672158
62861.67375504851,2.789417832653271,PPG_1,PPG_3,106484.0,106484.0,84.18956137594068,-7.248487202537284,-0.4971135826942628
62861.68375296189,2.799415746034356,PPG_1,PPG_3,106488.0,106488.0,88.17069803531922,-6.525321818229359,-0.44755307666813837
62861.693750875274,2.8094136594154406,PPG_1,PPG_3,106470.0,106470.0,70.15183469469775,-5.665481169082706,-0.38862584010755347
62861.70374878865,2.8194115727892495,PPG_1,PPG_3,106498.0,106498.0,98.13297135409084,-4.673975324762892,-0.3206752268195894
62861.71374670203,2.8294094861703343,PPG_1,PPG_3,106490.0,106490.0,90.11410801346938,-3.57308845296141,-0.2452284318983786
62861.72374461541,2.839407399551419,PPG_1,PPG_3,106487.0,106487.0,87.09524467284791,-2.3993828525010117,-0.16479116990168863
62861.733742528784,2.849405312925228,PPG_1,PPG_3,106485.0,106485.0,85.07638133222645,-1.1990608441157746,-0.08252981251274595
62861.743740442165,2.8594032263063127,PPG_1,PPG_3,106521.0,106521.0,121.05751799161953,-0.02260047094231393,-0.0019037583910333257
62861.75373835555,2.8694011396873975,PPG_1,PPG_3,106458.0,106458.0,58.03865465099807,1.0807729604313514,0.07371344727346746
62861.76373626892,2.8793990530612064,PPG_1,PPG_3,106501.0,106501.0,101.0197913103766,2.0681686116111915,0.14138237775926427
62861.7737341823,2.889396966442291,PPG_1,PPG_3,106514.0,106514.0,114.00092796975514,2.9079809006696298,0.19893701590407284
62861.78373209568,2.899394879823376,PPG_1,PPG_3,106495.0,106495.0,94.98206462914823,3.5851636119555343,0.24534620330674559
62861.793730009056,2.909392793197185,PPG_1,PPG_3,106502.0,106502.0,101.96320128852676,4.1051330798745145,0.2809811362105949
62861.80372792244,2.9193907065782696,PPG_1,PPG_3,106506.0,106506.0,105.9443379479053,4.493706765985232,0.30761115602343975
62861.81372583582,2.9293886199593544,PPG_1,PPG_3,106485.0,106485.0,84.92547460728383,4.792324197013221,0.32807622709999823
62861.82372374919,2.9393865333331632,PPG_1,PPG_3,106509.0,106509.0,108.90661126667692,5.049502883071132,0.34570138739768286
62861.83372166257,2.949384446714248,PPG_1,PPG_3,106463.0,106463.0,62.887747926055454,5.310178169789296,0.3635661793230058
62861.843719575954,2.959382360095333,PPG_1,PPG_3,106483.0,106483.0,82.86888458543399,5.605478645573244,0.38380393036471777
62861.85371748933,2.9693802734691417,PPG_1,PPG_3,106507.0,106507.0,106.85002124481252,5.94641718739523,0.4071693831686808
62861.86371540271,2.9793781868502265,PPG_1,PPG_3,106493.0,106493.0,92.83115790420561,6.323948942167539,0.4330426691603113
62861.87371331609,2.9893761002313113,PPG_1,PPG_3,106491.0,106491.0,90.81229456358415,6.7145295769578786,0.45981023066733684
62861.883711229464,2.99937401360512,PPG_1,PPG_3,106501.0,106501.0,100.79343122296268,7.088291268136969,0.4854251438669547
62861.893709142845,3.009371926986205,PPG_1,PPG_3,106513.0,106513.0,112.77456788234122,7.417829423881,0.5080092969638564
62861.903707056226,3.0193698403672897,PPG_1,PPG_3,106521.0,106521.0,120.7557045417343,7.686002730683638,0.5263879487580891
62861.9137049696,3.0293677537410986,PPG_1,PPG_3,106484.0,106484.0,83.73684120111284,7.889894264108633,0.5403611944225726
62861.92370288298,3.0393656671221834,PPG_1,PPG_3,106493.0,106493.0,92.71797786049137,8.038525744261422,0.5505473171652059
62861.93370079636,3.049363580503268,PPG_1,PPG_3,106461.0,106461.0,60.69911451988446,8.145612193446238,0.5578862450581932
62861.943698709736,3.059361493877077,PPG_1,PPG_3,106522.0,106522.0,121.680251179263,8.222205815571765,0.5631354159301476
62861.95369662312,3.069359407258162,PPG_1,PPG_3,106495.0,106495.0,94.66138783864153,8.273404714053749,0.566644216782356
62861.9636945365,3.0793573206392466,PPG_1,PPG_3,106502.0,106502.0,101.64252449802007,8.298918027781049,0.5683927141056043
62861.97369244987,3.0893552340130555,PPG_1,PPG_3,106478.0,106478.0,77.62366115741315,8.294311029422701,0.5680769838800492
62861.98369036325,3.0993531473941403,PPG_1,PPG_3,106496.0,106496.0,95.60479781679169,8.251358846862273,0.5651333530746857
62861.993688276634,3.109351060775225,PPG_1,PPG_3,106495.0,106495.0,94.58593447617022,8.158929307678777,0.5587989033995544
62862.00368619001,3.119348974149034,PPG_1,PPG_3,106491.0,106491.0,90.56707113554876,8.006039362628123,0.5483209363847639
62862.01368410339,3.1293468875301187,PPG_1,PPG_3,106494.0,106494.0,93.54820779494185,7.7869665764511735,0.5333072778564687
62862.02368201677,3.1393448009112035,PPG_1,PPG_3,106518.0,106518.0,117.52934445432038,7.507187987108932,0.5141332842390245
62862.033679930144,3.1493427142850123,PPG_1,PPG_3,106487.0,106487.0,86.51048111369892,7.188402525995485,0.49228604277893473
62862.043677843525,3.159340627666097,PPG_1,PPG_3,106498.0,106498.0,97.49161777307745,6.8704880567394975,0.4704984927782773
62862.053675756906,3.169338541047182,PPG_1,PPG_3,106491.0,106491.0,90.47275443247054,6.6092340061054875,0.452594036575375
62862.06367367029,3.1793364544282667,PPG_1,PPG_3,106501.0,106501.0,100.45389109184907,6.4706216061536255,0.4430945488618084
62862.07367158366,3.1893343678020756,PPG_1,PPG_3,106498.0,106498.0,97.43502775122761,6.522887671920056,0.44667648561318923
62862.08366949704,3.1993322811831604,PPG_1,PPG_3,106504.0,106504.0,103.41616441060614,6.826539091102504,0.4674865496964349
62862.09366741042,3.209330194564245,PPG_1,PPG_3,106475.0,106475.0,74.39730106999923,7.421913678122457,0.5082892021022082
62862.1036653238,3.219328107938054,PPG_1,PPG_3,106442.0,106442.0,41.378437729377765,8.315381524644124,0.5695210026730589
62862.11366323718,3.229326021319139,PPG_1,PPG_3,106510.0,106510.0,109.3595743887563,9.46865945284317,0.6485583002962089
62862.12366115056,3.2393239347002236,PPG_1,PPG_3,106505.0,106505.0,104.34071104813484,10.796983519612098,0.7395919896074716
62862.13365906393,3.2493218480740325,PPG_1,PPG_3,106485.0,106485.0,84.32184770752792,12.177426898709633,0.8341975582547612
62862.143656977314,3.2593197614551173,PPG_1,PPG_3,106522.0,106522.0,121.30298436690646,13.462994702838161,0.9223010436898081
62862.153654890695,3.269317674836202,PPG_1,PPG_3,106479.0,106479.0,78.28412102628499,14.497641977583994,0.9932082574581043
62862.16365280407,3.279315588210011,PPG_1,PPG_3,106504.0,106504.0,103.26525768566353,15.130264806898237,1.0365636340079618
62862.17365071745,3.2893135015910957,PPG_1,PPG_3,106489.0,106489.0,88.24639434505661,15.227845682991637,1.043251118921651
62862.18364863083,3.2993114149721805,PPG_1,PPG_3,106495.0,106495.0,94.22753100443515,14.68873952246829,1.0063046960188071
62862.193646544205,3.3093093283459893,PPG_1,PPG_3,106541.0,106541.0,140.20866766381369,13.456413662234532,0.9218500269382162
62862.203644457586,3.319307241727074,PPG_1,PPG_3,106505.0,106505.0,104.18980432320677,11.531379913658384,0.7899221875158342
62862.21364237097,3.329305155108159,PPG_1,PPG_3,106483.0,106483.0,82.17094098258531,8.976549057993601,0.6148326260331892
62862.22364028434,3.339303068481968,PPG_1,PPG_3,106490.0,106490.0,89.15207764196384,5.912657320740689,0.40485572696903466
62862.23363819772,3.3493009818630526,PPG_1,PPG_3,106509.0,106509.0,108.13321430134238,2.5052143951769916,0.17133432327561954
62862.2436361111,3.3592988952441374,PPG_1,PPG_3,106465.0,106465.0,64.11435096073546,-1.0534240635551746,-0.07254892474181579
62862.25363402448,3.3692968086179462,PPG_1,PPG_3,106462.0,106462.0,61.095487620114,-4.564776944299678,-0.3131915624871637
62862.26363193786,3.379294721999031,PPG_1,PPG_3,106480.0,106480.0,79.07662427949253,-7.845697900223415,-0.5380420687968782
62862.27362985124,3.389292635380116,PPG_1,PPG_3,106446.0,106446.0,45.05776093887107,-10.74687556664355,-0.7368677265778779
62862.28362776461,3.3992905487539247,PPG_1,PPG_3,106453.0,106453.0,52.03889759826416,-13.16497328557655,-0.9025865914066011
62862.293625677994,3.4092884621350095,PPG_1,PPG_3,106491.0,106491.0,90.02003425764269,-15.046606906313096,-1.0315401011057932
62862.303623591375,3.4192863755160943,PPG_1,PPG_3,106469.0,106469.0,68.00117091702123,-16.384249402212095,-1.1232124079077102
62862.31362150475,3.429284288889903,PPG_1,PPG_3,106470.0,106470.0,68.98230757639976,-17.20710723052157,-1.179605110384203
62862.32361941813,3.439282202270988,PPG_1,PPG_3,106453.0,106453.0,51.96344423579285,-17.571346136627607,-1.2045674010202418
62862.33361733151,3.4492801156520727,PPG_1,PPG_3,106475.0,106475.0,73.94458089517138,-17.551561854843797,-1.2032115299596995
62862.343615244885,3.4592780290258816,PPG_1,PPG_3,106479.0,106479.0,77.92571755454992,-17.23280502108074,-1.1813662504104012
62862.353613158266,3.4692759424069664,PPG_1,PPG_3,106444.0,106444.0,42.906854213928455,-16.702958662263107,-1.1450544271001195
62862.36361107165,3.479273855788051,PPG_1,PPG_3,106473.0,106473.0,71.88799087332154,-16.04626264560697,-1.1000492490356781
62862.37360898502,3.48927176916186,PPG_1,PPG_3,106488.0,106488.0,86.86912753270008,-15.337929225290074,-1.051505218157158
62862.3836068984,3.499269682542945,PPG_1,PPG_3,106440.0,106440.0,38.85026419207861,-14.639447149989456,-1.0036363269557285
62862.39360481178,3.5092675959240296,PPG_1,PPG_3,106500.0,106500.0,98.83140085145715,-13.995284161043386,-0.9594900716340352
62862.40360272516,3.5192655092978384,PPG_1,PPG_3,106457.0,106457.0,55.812537510850234,-13.431832203630824,-0.9208751645370904
62862.41360063854,3.5292634226789232,PPG_1,PPG_3,106474.0,106474.0,72.79367417022877,-12.958803865162558,-0.8884572359029375
62862.42359855192,3.539261336060008,PPG_1,PPG_3,106465.0,106465.0,63.774810829607304,-12.573054478955465,-0.8620207731040627
62862.43359646529,3.549259249433817,PPG_1,PPG_3,106465.0,106465.0,63.75594748898584,-12.26406101840924,-0.840844604283303
62862.443594378674,3.5592571628149017,PPG_1,PPG_3,106462.0,106462.0,60.737084148378926,-12.019426267229807,-0.824079114226515
62862.453592292055,3.5692550761959865,PPG_1,PPG_3,106473.0,106473.0,71.71822080775746,-11.828833656518318,-0.8110172801887295
62862.46359020543,3.5792529895697953,PPG_1,PPG_3,106466.0,106466.0,64.699357467136,-11.685573515907043,-0.8011992700680386
62862.47358811881,3.58925090295088,PPG_1,PPG_3,106469.0,106469.0,67.68049412652908,-11.58568946736349,-0.7943539424332073
62862.48358603219,3.599248816331965,PPG_1,PPG_3,106490.0,106490.0,88.66163078590762,-11.525545916830046,-0.7902321400580868
62862.493583945565,3.6092467297057738,PPG_1,PPG_3,106473.0,106473.0,71.64276744528615,-11.499236757348164,-0.7884291012438163
62862.503581858946,3.6192446430868586,PPG_1,PPG_3,106464.0,106464.0,62.62390410466469,-11.497790784693521,-0.7883300047742962
62862.51357977233,3.6292425564679434,PPG_1,PPG_3,106478.0,106478.0,76.60504076405778,-11.511354273633051,-0.7892595478496554
62862.5235776857,3.639240469841752,PPG_1,PPG_3,106441.0,106441.0,39.58617742343631,-11.533372435539448,-0.7907685128381973
62862.53357559908,3.649238383222837,PPG_1,PPG_3,106475.0,106475.0,73.56731408281485,-11.564173666153868,-0.792879405600216
62862.54357351246,3.659236296603922,PPG_1,PPG_3,106481.0,106481.0,79.54845074219338,-11.611422923667662,-0.7961175267306726
62862.55357142584,3.66923420997773,PPG_1,PPG_3,106459.0,106459.0,57.52958740158647,-11.686784665619411,-0.8012822734776609
62862.56356933922,3.679232123358815,PPG_1,PPG_3,106474.0,106474.0,72.510724060965,-11.800430544788554,-0.8090707370872634
62862.5735672526,3.6892300367399,PPG_1,PPG_3,106468.0,106468.0,66.49186072034354,-11.955182109850732,-0.8196762860242554
62862.58356516597,3.699227950113709,PPG_1,PPG_3,106482.0,106482.0,80.47299737972207,-12.140819609005954,-0.8323985326848332
62862.593563079354,3.709225863494794,PPG_1,PPG_3,106490.0,106490.0,88.45413403911516,-12.329286157611305,-0.845314661858822
62862.603560992735,3.7192237768758782,PPG_1,PPG_3,106468.0,106468.0,66.4352706984937,-12.472932181982012,-0.8551591176512772
62862.61355890611,3.729221690249687,PPG_1,PPG_3,106478.0,106478.0,76.41640735787223,-12.508137549904061,-0.8575718380149909
62862.62355681949,3.739219603630772,PPG_1,PPG_3,106436.0,106436.0,34.397544017250766,-12.364531912953883,-0.8477301500831689
62862.63355473287,3.749217517011857,PPG_1,PPG_3,106495.0,106495.0,93.37868067664385,-11.97702058815584,-0.8211729368030775
62862.64355264625,3.759215430392942,PPG_1,PPG_3,106451.0,106451.0,49.35981733602239,-11.296751236823381,-0.7745522134973497
62862.653550559626,3.7692133437667503,PPG_1,PPG_3,106458.0,106458.0,56.34095399540092,-10.298796697356853,-0.7061596534547228
62862.66354847301,3.779211257147835,PPG_1,PPG_3,106482.0,106482.0,80.32209065477946,-8.98587393321855,-0.616181457628627
62862.67354638639,3.78920917052892,PPG_1,PPG_3,106464.0,106464.0,62.303227314172545,-7.387476867633482,-0.5066389254222771
62862.68354429976,3.799207083902729,PPG_1,PPG_3,106489.0,106489.0,87.28436397355108,-5.554501461815727,-0.3810200965665426
62862.69354221314,3.809204997283814,PPG_1,PPG_3,106481.0,106481.0,79.26550063292962,-3.551036136225039,-0.24371712618571806
62862.70354012653,3.819202910664899,PPG_1,PPG_3,106484.0,106484.0,82.2466372923227,-1.445618886857794,-0.09942711101217494
62862.7135380399,3.829200824038708,PPG_1,PPG_3,106510.0,106510.0,108.22777395170124,0.6960326890608821,0.04734614188039055
62862.72353595328,3.839198737419793,PPG_1,PPG_3,106474.0,106474.0,72.20891061107977,2.81506799341031,0.19256943968976456
62862.73353386666,3.8491966508008777,PPG_1,PPG_3,106481.0,106481.0,79.19004727045831,4.859175028619003,0.3326576978320639
62862.743531780034,3.859194564174686,PPG_1,PPG_3,106483.0,106483.0,81.1711839298514,6.778715589514569,0.46420907404554007
62862.753529693415,3.869192477555771,PPG_1,PPG_3,106467.0,106467.0,65.15232058922993,8.522554369763526,0.5837191256222314
62862.7635276068,3.879190390936856,PPG_1,PPG_3,106504.0,106504.0,102.13345724860847,10.037213009084722,0.6875228339446914
62862.77352552017,3.889188304310665,PPG_1,PPG_3,106500.0,106500.0,98.114593907987,11.271035673104514,0.7720800830915677
62862.78352343355,3.89918621769175,PPG_1,PPG_3,106504.0,106504.0,102.09573056738009,12.182028103670774,0.8345128914429257
62862.79352134693,3.909184131072834,PPG_1,PPG_3,106488.0,106488.0,86.07686722675862,12.745901469804227,0.8731566788346197
62862.803519260306,3.919182044446643,PPG_1,PPG_3,106507.0,106507.0,105.05800388613716,12.961540492154334,0.8879350121157097
62862.81351717369,3.929179957827728,PPG_1,PPG_3,106498.0,106498.0,96.03914054551569,12.853349389703105,0.8805203793064544
62862.82351508707,3.939177871208813,PPG_1,PPG_3,106493.0,106493.0,91.02027720490878,12.470841052338054,0.8543060344686332
62862.83351300044,3.9491757845826214,PPG_1,PPG_3,106530.0,106530.0,128.00141386428731,11.885352344486263,0.8141808884600392
62862.84351091382,3.959173697963706,PPG_1,PPG_3,106467.0,106467.0,64.98255052366585,11.183206219610824,0.7660608898978684
62862.8535088272,3.969171611344791,PPG_1,PPG_3,106496.0,106496.0,93.96368718304439,10.454920260588503,0.7161494568507654
62862.86350674058,3.9791695247186,PPG_1,PPG_3,106474.0,106474.0,71.94482384243747,9.782101088128993,0.6700393147245859
62862.87350465396,3.9891674380996847,PPG_1,PPG_3,106486.0,106486.0,83.92596050181601,9.225944537198549,0.6319243818310055
62862.88350256734,3.9991653514807695,PPG_1,PPG_3,106496.0,106496.0,93.90709716119454,8.820887855024372,0.6041647371170553
62862.89350048071,4.009163264854578,PPG_1,PPG_3,106492.0,106492.0,89.88823382057308,8.574330133352106,0.5872674606214165
62862.903498394095,4.019161178235663,PPG_1,PPG_3,106472.0,106472.0,69.86937047996616,8.471097615803156,0.5801926532272919
62862.91349630747,4.029159091616748,PPG_1,PPG_3,106517.0,106517.0,114.8505071393447,8.48103015248665,0.5808733571918878
62862.92349422085,4.039157004990557,PPG_1,PPG_3,106506.0,106506.0,103.83164379872323,8.568507614417909,0.5868684274389839
62862.93349213423,4.0491549183716415,PPG_1,PPG_3,106477.0,106477.0,74.81278045810177,8.70177113279471,0.5960013416366078
62862.94349004761,4.059152831752726,PPG_1,PPG_3,106498.0,106498.0,95.79391711749486,8.859338966973137,0.6067998972156982
62862.953487960986,4.069150745126535,PPG_1,PPG_3,106513.0,106513.0,110.77505377687339,9.032941980774455,0.61869738760773
62862.96348587437,4.07914865850762,PPG_1,PPG_3,106483.0,106483.0,80.75619043625193,9.227925666413064,0.6320601540464696
62862.97348378775,4.089146571888705,PPG_1,PPG_3,106496.0,106496.0,93.73732709564501,9.461035479156058,0.648035808481664
62862.98348170112,4.099144485262514,PPG_1,PPG_3,106489.0,106489.0,86.71846375502355,9.755410176907745,0.6682101134172123
62862.9934796145,4.109142398643598,PPG_1,PPG_3,106475.0,106475.0,72.69960041440208,10.134348934030717,0.6941798251366111
62863.00347752789,4.119140312024683,PPG_1,PPG_3,106516.0,106516.0,113.68073707378062,10.616233327698836,0.7272046835085862
62863.01347544126,4.129138225398492,PPG_1,PPG_3,106504.0,106504.0,101.6618737331737,11.211776924762932,0.7680189186359512
62863.02347335464,4.139136138779577,PPG_1,PPG_3,106498.0,106498.0,95.64301039255224,11.922310964767007,0.8167137640136638
62863.03347126802,4.149134052160662,PPG_1,PPG_3,106487.0,106487.0,84.62414705193078,12.736535024109477,0.8725147706371714
62863.04346918139,4.1591319655344705,PPG_1,PPG_3,106469.0,106469.0,66.60528371130931,13.625345310002967,0.9334273758115214
62863.053467094775,4.169129878915555,PPG_1,PPG_3,106514.0,106514.0,111.5864203707024,14.53790864640733,0.9959678426459112
62863.06346500816,4.17912779229664,PPG_1,PPG_3,106500.0,106500.0,97.56755703008093,15.402636927716456,1.0552300420358822
62863.07346292153,4.189125705670449,PPG_1,PPG_3,106485.0,106485.0,82.54869368945947,16.133514441289858,1.1053190814199767
62863.08346083491,4.199123619051534,PPG_1,PPG_3,106508.0,106508.0,105.529830348838,16.639637936835168,1.1400051118844212
62863.09345874829,4.2091215324326186,PPG_1,PPG_3,106522.0,106522.0,119.51096700823109,16.836275098982338,1.1534811956005704
62863.103456661665,4.219119445806427,PPG_1,PPG_3,106505.0,106505.0,102.49210366760963,16.655998391543054,1.1411263386905361
62863.11345457505,4.229117359187512,PPG_1,PPG_3,106483.0,106483.0,80.47324032698816,16.057260654138695,1.1000932003703234
62863.12345248843,4.239115272568597,PPG_1,PPG_3,106526.0,106526.0,123.4543769863667,15.028623137772566,1.029597851816895
62863.1334504018,4.249113185942406,PPG_1,PPG_3,106479.0,106479.0,76.43551364575978,13.589396837733272,0.93096372846997
62863.14344831518,4.259111099323491,PPG_1,PPG_3,106492.0,106492.0,89.41665030513832,11.788135993982735,0.8075183854842104
62863.15344622856,4.269109012704575,PPG_1,PPG_3,106532.0,106532.0,129.39778696451685,9.699738694540876,0.6643947941317532
62863.16344414194,4.279106926078384,PPG_1,PPG_3,106490.0,106490.0,87.37892362389539,7.420968172583708,0.5082244040159506
62863.17344205532,4.289104839459469,PPG_1,PPG_3,106490.0,106490.0,87.36006028328848,5.062509421025926,0.34659276109542203
62863.1834399687,4.299102752840554,PPG_1,PPG_3,106479.0,106479.0,76.34119694266701,2.735908318761853,0.18714441020471057
62863.19343788207,4.309100666214363,PPG_1,PPG_3,106442.0,106442.0,39.322333602045546,0.5374743714310186,0.03647970575539905
62863.203435795454,4.3190985795954475,PPG_1,PPG_3,106470.0,106470.0,67.30347026142408,-1.465115586880677,-0.10076327330636212
62863.213433708836,4.329096492976532,PPG_1,PPG_3,106500.0,106500.0,97.28460692081717,-3.2374647430228145,-0.22222721909165588
62863.22343162222,4.339094406357617,PPG_1,PPG_3,106485.0,106485.0,82.2657435801957,-4.77227553604707,-0.3274120097456433
62863.23342953559,4.349092319731426,PPG_1,PPG_3,106518.0,106518.0,115.24688023957424,-6.076530213064737,-0.4167961578016175
62863.24342744897,4.359090233112511,PPG_1,PPG_3,106465.0,106465.0,62.228016898967326,-7.159582988358008,-0.49102073320479706
62863.25342536235,4.369088146493596,PPG_1,PPG_3,106475.0,106475.0,72.20915355834586,-8.027539984849247,-0.5505042052962992
62863.26342327573,4.379086059867404,PPG_1,PPG_3,106475.0,106475.0,72.1902902177244,-8.68416153150946,-0.5955042797277933
62863.27342118911,4.389083973248489,PPG_1,PPG_3,106475.0,106475.0,72.17142687710293,-9.13484566903501,-0.6263908990245529
62863.28341910249,4.399081886629574,PPG_1,PPG_3,106464.0,106464.0,61.15256353649602,-9.390393050798036,-0.6439042615674064
62863.29341701586,4.409079800003383,PPG_1,PPG_3,106500.0,106500.0,97.13370019587455,-9.46929826259287,-0.6493118520156038
62863.30341492924,4.419077713384468,PPG_1,PPG_3,106455.0,106455.0,52.11483685525309,-9.398766728976216,-0.6444781326857091
62863.313412842625,4.429075626765552,PPG_1,PPG_3,106467.0,106467.0,64.09597351463162,-9.215114074578455,-0.6318919128769379
62863.323410756,4.439073540139361,PPG_1,PPG_3,106486.0,106486.0,83.07711017402471,-8.963303901135253,-0.6146346714641531
62863.33340866938,4.449071453520446,PPG_1,PPG_3,106485.0,106485.0,82.05824683340325,-8.69448218932335,-0.5962115826973186
62863.34340658276,4.459069366901531,PPG_1,PPG_3,106475.0,106475.0,72.03938349278178,-8.46184655513966,-0.580268425018545
62863.353404496134,4.46906728027534,PPG_1,PPG_3,106474.0,106474.0,71.02052015216032,-8.316997951518802,-0.5703415531737355
62863.363402409515,4.4790651936564245,PPG_1,PPG_3,106463.0,106463.0,60.0016568115534,-8.307846092853366,-0.569714351213602
62863.3734003229,4.489063107037509,PPG_1,PPG_3,106460.0,106460.0,56.98279347093194,-8.476595266333351,-0.5812791946237468
62863.38339823627,4.499061020411318,PPG_1,PPG_3,106483.0,106483.0,79.96393013031047,-8.85518706978229,-0.6072251286568434
62863.39339614965,4.509058933792403,PPG_1,PPG_3,106498.0,106498.0,94.94506678968901,-9.45687503104061,-0.6484604539045079
62863.40339406303,4.519056847173488,PPG_1,PPG_3,106487.0,106487.0,83.9262034490821,-10.266018344872407,-0.7039132631115422
62863.413391976406,4.529054760547297,PPG_1,PPG_3,106493.0,106493.0,89.90734010846063,-11.23115532430038,-0.7700567458098351
62863.42338988979,4.539052673928381,PPG_1,PPG_3,106473.0,106473.0,69.88847676783917,-12.26598675211256,-0.8409765800925426
62863.43338780317,4.549050587309466,PPG_1,PPG_3,106461.0,106461.0,57.8696134272177,-13.259512250944002,-0.9090656058401821
62863.44338571654,4.559048500683275,PPG_1,PPG_3,106447.0,106447.0,43.85075008661079,-14.092684252034788,-0.9661651668491417
62863.45338362992,4.56904641406436,PPG_1,PPG_3,106491.0,106491.0,87.83188674598932,-14.65643691688421,-1.0048006822509914
62863.463381543304,4.579044327445445,PPG_1,PPG_3,106470.0,106470.0,66.81302340536786,-14.866675461705029,-1.019208906003968
62863.47337945668,4.5890422408192535,PPG_1,PPG_3,106449.0,106449.0,45.794160064760945,-14.675393879682373,-1.0060998548737166
62863.48337737006,4.599040154200338,PPG_1,PPG_3,106436.0,106436.0,32.77529672413948,-14.078690209008293,-0.9652061167220284
62863.49337528344,4.609038067581423,PPG_1,PPG_3,106492.0,106492.0,88.75643338351802,-13.11978231688115,-0.8994895304507615
62863.503373196814,4.619035980955232,PPG_1,PPG_3,106484.0,106484.0,80.73757004289655,-11.883851870360909,-0.8147878291915718
62863.513371110195,4.629033894336317,PPG_1,PPG_3,106455.0,106455.0,51.71870670228964,-10.485573170345042,-0.7189599571140692
62863.52336902358,4.6390318077174015,PPG_1,PPG_3,106498.0,106498.0,94.69984336166817,-9.053882246444509,-0.6208422537488497
62863.53336693695,4.64902972109121,PPG_1,PPG_3,106456.0,106456.0,52.68098002104671,-7.717163003634765,-0.529233220011831
62863.54336485033,4.659027634472295,PPG_1,PPG_3,106482.0,106482.0,78.66211668042524,-6.589248539522531,-0.45193415010531995
62863.55336276371,4.66902554785338,PPG_1,PPG_3,106490.0,106490.0,86.64325333981833,-5.75594897028564,-0.39482584650163594
62863.563360677086,4.679023461227189,PPG_1,PPG_3,106498.0,106498.0,94.62438999919686,-5.262697488723427,-0.36102197043841194
62863.57335859047,4.689021374608274,PPG_1,PPG_3,106503.0,106503.0,99.6055266585754,-5.105828777406497,-0.35027132766535757
62863.58335650385,4.699019287989358,PPG_1,PPG_3,106480.0,106480.0,76.58666331795393,-5.231444096943367,-0.35888008983231123
62863.59335441722,4.709017201363167,PPG_1,PPG_3,106481.0,106481.0,77.56779997734702,-5.544465684482372,-0.38033231723722283
62863.6033523306,4.719015114744252,PPG_1,PPG_3,106459.0,106459.0,55.54893663672556,-5.926793210692304,-0.4065342705909695
62863.613350243984,4.729013028125337,PPG_1,PPG_3,106443.0,106443.0,39.53007329610409,-6.259845591838301,-0.4293592631873697
62863.62334815736,4.739010941499146,PPG_1,PPG_3,106477.0,106477.0,73.51120995548263,-6.44483141359619,-0.4420368486096217
62863.63334607074,4.7490088548802305,PPG_1,PPG_3,106479.0,106479.0,75.49234661487571,-6.414985150027842,-0.43999140235689216
62863.64334398412,4.759006768261315,PPG_1,PPG_3,106473.0,106473.0,69.47348327425425,-6.138098299003471,-0.421015587492799
62863.653341897494,4.769004681635124,PPG_1,PPG_3,106469.0,106469.0,65.45461993363278,-5.611876634483724,-0.38495217441825486
62863.663339810875,4.779002595016209,PPG_1,PPG_3,106514.0,106514.0,110.43575659301132,-4.855465666532618,-0.33311325741693326
62863.673337724256,4.789000508397294,PPG_1,PPG_3,106484.0,106484.0,80.4168932524044,-3.899850401054544,-0.26762232387521345
62863.68333563763,4.798998421771103,PPG_1,PPG_3,106464.0,106464.0,60.39802991178294,-2.780357918569146,-0.19090043545474394
62863.69333355101,4.808996335152187,PPG_1,PPG_3,106464.0,106464.0,60.37916657116148,-1.533281574447783,-0.10543487528137836
62863.70333146439,4.818994248533272,PPG_1,PPG_3,106512.0,106512.0,108.36030323054001,-0.19461751603464011,-0.013692558000203059
62863.713329377766,4.828992161907081,PPG_1,PPG_3,106473.0,106473.0,69.3414398899331,1.2023682716612567,0.08204670725206203
62863.72332729115,4.838990075288166,PPG_1,PPG_3,106468.0,106468.0,64.32257654931163,2.6308570034395125,0.1799449556137421
62863.73332520453,4.848987988669251,PPG_1,PPG_3,106511.0,106511.0,107.30371320869017,4.073966390996413,0.2788451975920232
62863.7433231179,4.8589859020430595,PPG_1,PPG_3,106512.0,106512.0,108.28484986808326,5.527648434772729,0.37847001268130304
62863.75332103128,4.868983815424144,PPG_1,PPG_3,106498.0,106498.0,94.26598652746179,7.00154311015473,0.47948005481855055
62863.763318944664,4.878981728805229,PPG_1,PPG_3,106462.0,106462.0,58.24712318684033,8.514341629428559,0.5831562840154644
62863.77331685804,4.888979642179038,PPG_1,PPG_3,106472.0,106472.0,68.22825984621886,10.083135306418585,0.6906700148567403
62863.78331477142,4.898977555560123,PPG_1,PPG_3,106507.0,106507.0,103.20939650561195,11.71187022240849,0.8022916831091933
62863.7933126848,4.9089754689412075,PPG_1,PPG_3,106491.0,106491.0,87.19053316499048,13.384765676557608,0.9169397940883693
62863.80331059818,4.918973382322292,PPG_1,PPG_3,106500.0,106500.0,96.17166982436902,15.065719599900095,1.0321401740501124
62863.813308511555,4.928971295696101,PPG_1,PPG_3,106495.0,106495.0,91.15280648374755,16.7009828683573,1.1442092481917536
62863.823306424936,4.938969209077186,PPG_1,PPG_3,106483.0,106483.0,79.13394314314064,18.223121416148686,1.2485255751445514
62863.83330433832,4.948967122458271,PPG_1,PPG_3,106511.0,106511.0,107.11507980251918,19.556562454204673,1.33990994452404
62863.84330225169,4.95896503583208,PPG_1,PPG_3,106498.0,106498.0,94.09621646189771,20.625680312460215,1.4131795218661845
62863.85330016507,4.968962949213164,PPG_1,PPG_3,106512.0,106512.0,108.07735312127625,21.365096662337397,1.463853751107637
62863.86329807845,4.978960862594249,PPG_1,PPG_3,106527.0,106527.0,123.05848978066933,21.73011274115443,1.4888693035198373
62863.87329599183,4.988958775968058,PPG_1,PPG_3,106494.0,106494.0,90.03962644004787,21.704313016508234,1.4871011776712477
62863.88329390521,4.998956689349143,PPG_1,PPG_3,106510.0,106510.0,106.0207630994264,21.301902617444522,1.4595228899924777
62863.89329181859,5.008954602730228,PPG_1,PPG_3,106498.0,106498.0,94.00189975880494,20.564380207447606,1.408978457642422
62863.90328973196,5.0189525161040365,PPG_1,PPG_3,106494.0,106494.0,89.98303641819803,19.553316287114594,1.3396874757954191
62863.913287645344,5.028950429485121,PPG_1,PPG_3,106500.0,106500.0,95.96417307757656,18.341586966541268,1.2566443440341029
62863.923285558725,5.038948342866206,PPG_1,PPG_3,106484.0,106484.0,79.9453097369551,17.00492825862195,1.1650394589190547
62863.9332834721,5.048946256240015,PPG_1,PPG_3,106498.0,106498.0,93.92644639633363,15.61522079455094,1.0697989971351227
62863.94328138548,5.0589441696211,PPG_1,PPG_3,106497.0,106497.0,92.90758305572672,14.236405879994196,0.9753050316265321
62863.95327929886,5.0689420830021845,PPG_1,PPG_3,106503.0,106503.0,98.88871971510525,12.922911179417797,0.8852876394286218
62863.963277212235,5.078939996375993,PPG_1,PPG_3,106490.0,106490.0,85.86985637448379,11.719166619979058,0.8027917252345658
62863.973275125616,5.088937909757078,PPG_1,PPG_3,106496.0,106496.0,91.85099303387688,10.658425788139628,0.7300962484746473
62863.983273039,5.098935823138163,PPG_1,PPG_3,106477.0,106477.0,72.83212969325541,9.76021370380669,0.668539312282351
62863.99327095237,5.108933736511972,PPG_1,PPG_3,106481.0,106481.0,76.81326635263395,9.027340218965076,0.6183134835161697
62864.00326886575,5.118931649893057,PPG_1,PPG_3,106494.0,106494.0,89.79440301201248,8.44441146933813,0.5783637784617226
62864.01326677913,5.128929563274141,PPG_1,PPG_3,106479.0,106479.0,74.77553967140557,7.9793770081701645,0.5464936921506542
62864.02326469251,5.13892747664795,PPG_1,PPG_3,106506.0,106506.0,101.7566763307841,7.588005240306727,0.5196719121255864
62864.03326260589,5.148925390029035,PPG_1,PPG_3,106494.0,106494.0,89.73781299016264,7.219548291775582,0.4944205474802486
62864.04326051927,5.15892330341012,PPG_1,PPG_3,106479.0,106479.0,74.71894964954117,6.821187947683932,0.46711982117015655
62864.05325843264,5.168921216783929,PPG_1,PPG_3,106461.0,106461.0,56.70008630893426,6.339876214306503,0.4341342087775985
62864.063256346024,5.1789191301650135,PPG_1,PPG_3,106487.0,106487.0,82.6812229683128,5.723075326444551,0.391863153244353
62864.073254259405,5.188917043546098,PPG_1,PPG_3,106488.0,106488.0,83.66235962769133,4.921836573832152,0.3369520652845583
62864.08325217278,5.198914956919907,PPG_1,PPG_3,106483.0,106483.0,78.64349628706987,3.897757403505738,0.26676911267993025
62864.09325008616,5.208912870300992,PPG_1,PPG_3,106498.0,106498.0,93.62463294646295,2.631840701386187,0.18001237113040253
62864.10324799954,5.218910783682077,PPG_1,PPG_3,106506.0,106506.0,101.60576960584149,1.1317170280601805,0.07720478386880261
62864.113245912915,5.228908697055886,PPG_1,PPG_3,106470.0,106470.0,65.58690626522002,-0.5661807267004138,-0.039156803304076906
62864.123243826296,5.23890661043697,PPG_1,PPG_3,106449.0,106449.0,44.56804292459856,-2.4015078132422962,-0.16493679928593313
62864.13324173968,5.248904523818055,PPG_1,PPG_3,106456.0,106456.0,51.549179583991645,-4.300034293539977,-0.29504802295518656
62864.14323965305,5.258902437191864,PPG_1,PPG_3,106501.0,106501.0,96.53031624337018,-6.183047995051832,-0.42409611337279424
62864.15323756643,5.268900350572949,PPG_1,PPG_3,106469.0,106469.0,64.51145290274872,-7.972063891359553,-0.5467022765461654
62864.16323547981,5.278898263954034,PPG_1,PPG_3,106490.0,106490.0,85.49258956212725,-9.590687396529795,-0.6576309820991662
62864.17323339319,5.2888961773278425,PPG_1,PPG_3,106430.0,106430.0,25.473726221520337,-10.968194968921471,-0.7520353518656817
62864.18323130657,5.298894090708927,PPG_1,PPG_3,106462.0,106462.0,57.45486288089887,-12.04603760715179,-0.8259028622946404
62864.19322921995,5.308892004090012,PPG_1,PPG_3,106477.0,106477.0,72.43599954027741,-12.783896299672062,-0.8764703410077921
62864.20322713332,5.318889917463821,PPG_1,PPG_3,106479.0,106479.0,74.41713619965594,-13.161939336796282,-0.9023786665804546
62864.213225046704,5.328887830844906,PPG_1,PPG_3,106444.0,106444.0,39.39827285904903,-13.180098625109606,-0.9036231723842604
62864.223222960085,5.3388857442259905,PPG_1,PPG_3,106483.0,106483.0,78.37940951842756,-12.857352053305275,-0.8815044651508834
62864.23322087346,5.348883657599799,PPG_1,PPG_3,106455.0,106455.0,50.3605461778061,-12.231948154017362,-0.8386438216632486
62864.24321878684,5.358881570980884,PPG_1,PPG_3,106460.0,106460.0,55.34168283719919,-11.361552945887766,-0.7789932522448861
62864.25321670022,5.368879484361969,PPG_1,PPG_3,106445.0,106445.0,40.32281949657772,-10.322130652397295,-0.7077587933534085
62864.263214613595,5.378877397735778,PPG_1,PPG_3,106480.0,106480.0,75.30395615595626,-9.203935013620633,-0.6311257811870248
62864.273212526976,5.388875311116863,PPG_1,PPG_3,106481.0,106481.0,76.28509281533479,-8.103244608412467,-0.5556924506599806
62864.28321044036,5.398873224497947,PPG_1,PPG_3,106491.0,106491.0,86.26622947472788,-7.11129699496814,-0.4877115617229981
62864.29320835373,5.408871137871756,PPG_1,PPG_3,106462.0,106462.0,57.247366134106414,-6.304782826198382,-0.4324389350337089
62864.30320626711,5.418869051252841,PPG_1,PPG_3,106439.0,106439.0,34.22850279348495,-5.741267846782441,-0.3938197088661255
62864.31320418049,5.428866964633926,PPG_1,PPG_3,106491.0,106491.0,86.20963945286348,-5.458338199081345,-0.3744297645821098
62864.32320209387,5.438864878007735,PPG_1,PPG_3,106478.0,106478.0,73.19077611225657,-5.472467856689389,-0.3753981087482243
62864.33320000725,5.4488627913888195,PPG_1,PPG_3,106472.0,106472.0,67.1719127716351,-5.776232891678058,-0.3962159592340981
62864.34319792063,5.458860704769904,PPG_1,PPG_3,106476.0,106476.0,71.15304943101364,-6.336428911665792,-0.4346077280146005
62864.353195834,5.468858618143713,PPG_1,PPG_3,106495.0,106495.0,90.13418609039218,-7.095787227237359,-0.48664863482720816
62864.363193747384,5.478856531524798,PPG_1,PPG_3,106444.0,106444.0,39.115322749785264,-7.979211264112003,-0.5471921055922664
62864.373191660765,5.488854444905883,PPG_1,PPG_3,106456.0,106456.0,51.0964594091638,-8.904163102301284,-0.6105815904116
62864.383189574146,5.4988523582869675,PPG_1,PPG_3,106446.0,106446.0,41.077596068542334,-9.792486796061828,-0.671460848093301
62864.39318748752,5.508850271660776,PPG_1,PPG_3,106485.0,106485.0,80.05873272792087,-10.578897734401318,-0.7253557452970488
62864.4031854009,5.518848185041861,PPG_1,PPG_3,106463.0,106463.0,58.039869387313956,-11.213347976785595,-0.768836359473644
62864.41318331428,5.528846098422946,PPG_1,PPG_3,106479.0,106479.0,74.02100604669249,-11.659014871480315,-0.7993791333666446
62864.423181227656,5.538844011796755,PPG_1,PPG_3,106480.0,106480.0,75.00214270607103,-11.889974426909138,-0.815207424774115
62864.43317914104,5.54884192517784,PPG_1,PPG_3,106437.0,106437.0,31.98327936544956,-11.89156595552816,-0.8153164965928515
62864.44317705442,5.558839838558924,PPG_1,PPG_3,106466.0,106466.0,60.96441602484265,-11.663693842796786,-0.7996997960963022
62864.45317496779,5.568837751932733,PPG_1,PPG_3,106462.0,106462.0,56.945552684221184,-11.224456874849782,-0.7695976827081357
62864.46317288117,5.578835665313818,PPG_1,PPG_3,106470.0,106470.0,64.92668934359972,-10.610975289318889,-0.7275541080620435
62864.473170794554,5.588833578694903,PPG_1,PPG_3,106451.0,106451.0,45.907826002978254,-9.876620038493863,-0.6772267298114099
62864.48316870793,5.598831492068712,PPG_1,PPG_3,106472.0,106472.0,66.88896266237134,-9.085583057030775,-0.6230147971921414
62864.49316662131,5.6088294054497965,PPG_1,PPG_3,106483.0,106483.0,77.87009932174988,-8.305427590528563,-0.569548604620024
62864.50316453469,5.618827318830881,PPG_1,PPG_3,106465.0,106465.0,59.85123598112841,-7.59850922907778,-0.5211015516043593
62864.513162448064,5.62882523220469,PPG_1,PPG_3,106482.0,106482.0,76.8323726405215,-7.014393867205499,-0.4810705247601645
62864.523160361445,5.638823145585775,PPG_1,PPG_3,106464.0,106464.0,58.81350929990003,-6.585265437007359,-0.45166117717203336
62864.533158274826,5.64882105896686,PPG_1,PPG_3,106472.0,106472.0,66.79464595927857,-6.3247268222498,-0.43380575175079666
62864.5431561882,5.6588189723406686,PPG_1,PPG_3,106477.0,106477.0,71.7757826186571,-6.229221014792355,-0.4272604769786166
62864.55315410158,5.668816885721753,PPG_1,PPG_3,106449.0,106449.0,43.75691927805019,-6.2810750618350575,-0.4308141769574924
62864.56315201496,5.678814799102838,PPG_1,PPG_3,106471.0,106471.0,65.73805593742873,-6.4520344829419285,-0.4425304946959284
62864.573149928336,5.688812712476647,PPG_1,PPG_3,106470.0,106470.0,64.71919259680726,-6.705701381163564,-0.4599149825471729
62864.58314784172,5.698810625857732,PPG_1,PPG_3,106478.0,106478.0,72.7003292561858,-6.9977464425355596,-0.47992963111594844
62864.5931457551,5.708808539238817,PPG_1,PPG_3,106473.0,106473.0,67.68146591557888,-7.27469958258226,-0.49890998894844396
62864.60314366847,5.718806452612625,PPG_1,PPG_3,106480.0,106480.0,74.66260257495742,-7.473568523812366,-0.5125390226025865
62864.61314158185,5.72880436599371,PPG_1,PPG_3,106489.0,106489.0,83.64373923433595,-7.524354896467199,-0.5160195519291024
62864.623139495234,5.738802279374795,PPG_1,PPG_3,106480.0,106480.0,74.62487589371449,-7.357041720189963,-0.5045531213434161
62864.63313740861,5.748800192748604,PPG_1,PPG_3,106421.0,106421.0,15.606012553107576,-6.913893916467764,-0.4741829876597412
62864.64313532199,5.758798106129689,PPG_1,PPG_3,106479.0,106479.0,73.58714921248611,-6.165012893064013,-0.4228601183982775
62864.65313323537,5.7687960195107735,PPG_1,PPG_3,106439.0,106439.0,33.568285871864646,-5.121304402987993,-0.3513319147060713
62864.66313114874,5.778793932884582,PPG_1,PPG_3,106467.0,106467.0,61.54942253124318,-3.838907613624351,-0.26344574760480277
62864.673129062125,5.788791846265667,PPG_1,PPG_3,106485.0,106485.0,79.53055919063627,-2.412857408239853,-0.16571461814103333
62864.683126975506,5.798789759646752,PPG_1,PPG_3,106486.0,106486.0,80.5116958500148,-0.9616757274955452,-0.06626115978398149
62864.69312488888,5.808787673020561,PPG_1,PPG_3,106482.0,106482.0,76.49283250939334,0.39267406756560447,0.02655614402522255
62864.70312280226,5.818785586401646,PPG_1,PPG_3,106465.0,106465.0,59.47396916877187,1.5444379908314807,0.10548968274032447
62864.71312071564,5.82878349978273,PPG_1,PPG_3,106517.0,106517.0,111.45510582816496,2.4205288420709605,0.16553059019310515
62864.723118629016,5.838781413156539,PPG_1,PPG_3,106486.0,106486.0,80.4362424875435,2.9928676675448003,0.2047545387177253
62864.7331165424,5.848779326537624,PPG_1,PPG_3,106487.0,106487.0,81.41737914692203,3.2847816746271095,0.22476020577680106
62864.74311445578,5.858777239918709,PPG_1,PPG_3,106502.0,106502.0,96.39851580631512,3.368974677647951,0.23053018305186823
62864.75311236915,5.868775153292518,PPG_1,PPG_3,106454.0,106454.0,48.37965246569365,3.356595863513447,0.22968182898816192
62864.76311028253,5.878773066673602,PPG_1,PPG_3,106493.0,106493.0,87.36078912507219,3.3796320335863204,0.23126056086677368
62864.773108195914,5.888770980054687,PPG_1,PPG_3,106453.0,106453.0,47.34192578445072,3.5705183888109198,0.24434252602121398
62864.78310610929,5.898768893428496,PPG_1,PPG_3,106471.0,106471.0,65.32306244384381,4.043389516672752,0.27674968058158433
62864.79310402267,5.908766806809581,PPG_1,PPG_3,106505.0,106505.0,99.30419910322235,4.880566987863978,0.3341237474357598
62864.80310193605,5.918764720190666,PPG_1,PPG_3,106499.0,106499.0,93.28533576260088,6.125293895756951,0.41942829430444883
62864.81309984942,5.9287626335644745,PPG_1,PPG_3,106470.0,106470.0,64.26647242197942,7.778124341633668,0.5327012952673313
62864.823097762805,5.938760546945559,PPG_1,PPG_3,106478.0,106478.0,72.2476090813725,9.793542169452081,0.6708234033883442
62864.833095676186,5.948758460326644,PPG_1,PPG_3,106471.0,106471.0,65.22874574075104,12.07718630701538,0.8273277957405063
62864.84309358956,5.958756373700453,PPG_1,PPG_3,106496.0,106496.0,90.20988240012957,14.487678472031513,0.9925254311120291
62864.85309150294,5.968754287081538,PPG_1,PPG_3,106474.0,106474.0,68.19101905950811,16.84625947240272,1.1541654520788331
62864.86308941632,5.978752200462623,PPG_1,PPG_3,106506.0,106506.0,100.1721557189012,18.954434337611094,1.2986444542247584
62864.873087329695,5.988750113836431,PPG_1,PPG_3,106531.0,106531.0,125.15329237827973,20.617580454540583,1.4126244164007578
62864.88308524308,5.998748027217516,PPG_1,PPG_3,106497.0,106497.0,91.13442903765826,21.670486581991263,1.4847829593935227
62864.89308315646,6.008745940598601,PPG_1,PPG_3,106533.0,106533.0,127.1155656970368,21.99919052282965,1.5073099414563078
62864.90308106983,6.01874385397241,PPG_1,PPG_3,106489.0,106489.0,83.09670235642989,21.554480830541312,1.4768327672679655
62864.91307898321,6.028741767353495,PPG_1,PPG_3,106508.0,106508.0,102.07783901580842,20.35566762231366,1.3946748120895336
62864.92307689659,6.0387396807345795,PPG_1,PPG_3,106498.0,106498.0,92.05897567518696,18.48605384061051,1.2665450549063966
62864.93307480997,6.048737594108388,PPG_1,PPG_3,106505.0,106505.0,99.04011233456549,16.08258190055932,1.1018285347945773
62864.94307272335,6.058735507489473,PPG_1,PPG_3,106500.0,106500.0,94.02124899395858,13.321390260745654,0.9125965031269769
62864.95307063673,6.068733420870558,PPG_1,PPG_3,106473.0,106473.0,67.00238565333711,10.399892863693477,0.7123782785081684
62864.9630685501,6.078731334244367,PPG_1,PPG_3,106487.0,106487.0,80.98352231271565,7.516449379158969,0.5147679928222422
62864.973066463484,6.0887292476254515,PPG_1,PPG_3,106489.0,106489.0,82.96465897209418,4.850224588777166,0.33204429965601273
62864.983064376866,6.098727161006536,PPG_1,PPG_3,106466.0,106466.0,59.94579563148727,2.543981589129343,0.1739911453403678
62864.99306229025,6.108725074387621,PPG_1,PPG_3,106470.0,106470.0,63.92693229086581,0.6913239598645939,0.04702343976166101
62865.00306020362,6.11872298776143,PPG_1,PPG_3,106472.0,106472.0,65.90806895024434,-0.6703442203060979,-0.04629541303923055
62865.013058117,6.128720901142515,PPG_1,PPG_3,106488.0,106488.0,81.88920560963743,-1.5595667342917567,-0.10723626933467864
62865.02305603038,6.1387188145236,PPG_1,PPG_3,106507.0,106507.0,100.87034226901596,-2.043443077249583,-0.14039764145152928
62865.03305394376,6.148716727897408,PPG_1,PPG_3,106453.0,106453.0,46.8514789283945,-2.22632985009474,-0.15293137329817336
62865.04305185714,6.158714641278493,PPG_1,PPG_3,106460.0,106460.0,53.832615587773034,-2.238262974247938,-0.1537491830057979
62865.05304977052,6.168712554659578,PPG_1,PPG_3,106474.0,106474.0,67.81375224716612,-2.2228686047916,-0.1526941646700691
62865.06304768389,6.178710468033387,PPG_1,PPG_3,106498.0,106498.0,91.79488890654466,-2.3213402125199503,-0.15944269386424997
62865.07304559727,6.188708381414472,PPG_1,PPG_3,106495.0,106495.0,88.77602556592319,-2.6516381538859495,-0.18207891715244298
62865.083043510655,6.1987062947955565,PPG_1,PPG_3,106507.0,106507.0,100.75716222530173,-3.287510244630918,-0.2256569744945676
62865.09304142403,6.208704208169365,PPG_1,PPG_3,106483.0,106483.0,76.73829888469481,-4.2440747516604524,-0.29121296216173675
62865.10303933741,6.21870212155045,PPG_1,PPG_3,106469.0,106469.0,62.71943554407335,-5.474258054999518,-0.37552079594545795
62865.11303725079,6.228700034931535,PPG_1,PPG_3,106493.0,106493.0,86.70057220345188,-6.875968695481562,-0.4715838683102614
62865.12303516416,6.238697948305344,PPG_1,PPG_3,106467.0,106467.0,60.68170886283042,-8.306833859178267,-0.5696449800652545
62865.133033077545,6.2486958616864285,PPG_1,PPG_3,106481.0,106481.0,74.6628455222235,-9.603347003202929,-0.6584985796452139
62865.14303099093,6.258693775067513,PPG_1,PPG_3,106486.0,106486.0,79.64398218160204,-10.602720141067179,-0.7269883601244995
62865.1530289043,6.268691688441322,PPG_1,PPG_3,106450.0,106450.0,43.625118840980576,-11.166431648633957,-0.7656210549049551
62865.16302681768,6.278689601822407,PPG_1,PPG_3,106414.0,106414.0,7.6062555003591115,-11.203516853278424,-0.768162605632001
62865.17302473106,6.288687515203492,PPG_1,PPG_3,106474.0,106474.0,67.5873921597522,-10.688487986870628,-0.7328662656921969
62865.18302264443,6.298685428577301,PPG_1,PPG_3,106477.0,106477.0,70.56852881913073,-9.666771750985074,-0.6628452514617453
62865.19302055782,6.308683341958385,PPG_1,PPG_3,106481.0,106481.0,74.54966547850927,-8.244853910609942,-0.565397324299127
62865.2030184712,6.31868125533947,PPG_1,PPG_3,106491.0,106491.0,84.5308021378878,-6.5696912381807335,-0.4505938346366357
62865.21301638457,6.328679168713279,PPG_1,PPG_3,106489.0,106489.0,82.51193879728089,-4.804735857191182,-0.3296366045293279
62865.22301429795,6.338677082094364,PPG_1,PPG_3,106485.0,106485.0,78.49307545665943,-3.1078518433412703,-0.21334449179978177
62865.233012211334,6.348674995475449,PPG_1,PPG_3,106497.0,106497.0,90.47421211603796,-1.6137610068698727,-0.11095035138419428
62865.24301012471,6.3586729088492575,PPG_1,PPG_3,106468.0,106468.0,61.45534877543105,-0.42188410423641015,-0.02926776024095988
62865.25300803809,6.368670822230342,PPG_1,PPG_3,106492.0,106492.0,85.43648543480958,0.4109464582951063,0.027808401047629435
62865.26300595147,6.378668735611427,PPG_1,PPG_3,106513.0,106513.0,106.41762209418812,0.8742051042415588,0.05955678587395193
62865.27300386485,6.388666648985236,PPG_1,PPG_3,106506.0,106506.0,99.39875875356665,1.003933504097136,0.06844742870934539
62865.283001778225,6.398664562366321,PPG_1,PPG_3,106492.0,106492.0,85.37989541295974,0.8769777315274516,0.05974680162179112
62865.29299969161,6.4086624757474056,PPG_1,PPG_3,106472.0,106472.0,65.36103207233828,0.5964482246901357,0.04052134557009976
62865.30299760498,6.418660389121214,PPG_1,PPG_3,106450.0,106450.0,43.34216873171681,0.26986445280323224,0.018139664497069524
62865.31299551836,6.428658302502299,PPG_1,PPG_3,106494.0,106494.0,87.32330539109535,-0.01362293085198511,-0.001288502960669609
62865.32299343174,6.438656215883384,PPG_1,PPG_3,106465.0,106465.0,58.30444205048843,-0.1997137683197719,-0.014041818138434976
62865.33299134512,6.448654129257193,PPG_1,PPG_3,106481.0,106481.0,74.28557870986697,-0.275598720740537,-0.019242421933016077
62865.3429892585,6.458652042638278,PPG_1,PPG_3,106474.0,106474.0,67.2667153692455,-0.26705045629860913,-0.018656585939507465
62865.35298717188,6.468649956019362,PPG_1,PPG_3,106517.0,106517.0,110.24785202862404,-0.22755305408148963,-0.015949720700830193
62865.36298508525,6.478647869393171,PPG_1,PPG_3,106503.0,106503.0,96.22898868801713,-0.22223773155531598,-0.015585447078495063
62865.37298299863,6.488645782774256,PPG_1,PPG_3,106492.0,106492.0,85.21012534739566,-0.3117372103756016,-0.02171909168546516
62865.382980912014,6.498643696155341,PPG_1,PPG_3,106474.0,106474.0,67.1912620067742,-0.5411143208472389,-0.03743893380244355
62865.39297882539,6.50864160952915,PPG_1,PPG_3,106482.0,106482.0,75.17239866615273,-0.9349735300169084,-0.0644311849984527
62865.40297673877,6.5186395229102345,PPG_1,PPG_3,106511.0,106511.0,104.15353532554582,-1.4958606461645512,-0.10287031649312947
62865.41297465215,6.528637436291319,PPG_1,PPG_3,106484.0,106484.0,77.13467198492435,-2.2035605251609915,-0.15137092904838426
62865.42297256552,6.538635349665128,PPG_1,PPG_3,106486.0,106486.0,79.11580864430289,-3.0161447943572224,-0.2070595563584074
62865.432970478905,6.548633263046213,PPG_1,PPG_3,106486.0,106486.0,79.09694530368142,-3.8744829314826146,-0.26588382165170016
62865.442968392286,6.558631176427298,PPG_1,PPG_3,106461.0,106461.0,54.07808196307451,-4.709681747828612,-0.32312228586572106
62865.45296630566,6.568629089801107,PPG_1,PPG_3,106498.0,106498.0,91.05921862245305,-5.450941024452561,-0.3739228159287019
62865.46296421904,6.578627003182191,PPG_1,PPG_3,106501.0,106501.0,94.04035528183158,-6.031679348285092,-0.41372240509936975
62865.47296213242,6.588624916563276,PPG_1,PPG_3,106454.0,106454.0,47.021491941210115,-6.394068474972135,-0.4385579252814692
62865.48296004579,6.598622829937085,PPG_1,PPG_3,106494.0,106494.0,87.0026286006032,-6.493476179572688,-0.4453706077601995
62865.49295795918,6.60862074331817,PPG_1,PPG_3,106494.0,106494.0,86.98376525998174,-6.302820336192476,-0.43230444021430187
62865.50295587256,6.618618656699255,PPG_1,PPG_3,106466.0,106466.0,58.96490191936027,-5.815670314807616,-0.3989187139414986
62865.51295378593,6.6286165700730635,PPG_1,PPG_3,106474.0,106474.0,66.94603857875336,-5.047815282436461,-0.34629550383660695
62865.52295169931,6.638614483454148,PPG_1,PPG_3,106500.0,106500.0,92.9271752381319,-4.036814667272392,-0.2770088604663551
62865.532949612694,6.648612396835233,PPG_1,PPG_3,106487.0,106487.0,79.90831189751043,-2.8383343787188235,-0.1948737211857407
62865.54294752607,6.658610310209042,PPG_1,PPG_3,106505.0,106505.0,97.88944855688896,-1.5198722903573,-0.10451590028700915
62865.55294543945,6.668608223590127,PPG_1,PPG_3,106472.0,106472.0,64.87058521628205,-0.15449619067806297,-0.010942933598568174
62865.56294335283,6.6786061369712115,PPG_1,PPG_3,106487.0,106487.0,79.85172187566059,1.183846479678752,0.08077735807816314
62865.57294126621,6.688604050352296,PPG_1,PPG_3,106496.0,106496.0,88.83285853503912,2.424571584527013,0.1658076504150169
62865.582939179585,6.698601963726105,PPG_1,PPG_3,106506.0,106506.0,98.81399519441766,3.5061434153589115,0.23993073263490144
62865.592937092966,6.70859987710719,PPG_1,PPG_3,106476.0,106476.0,68.79513185381074,4.383178411545901,0.30003634492889264
62865.60293500635,6.718597790488275,PPG_1,PPG_3,106525.0,106525.0,117.77626851318928,5.033313548930153,0.3445918879530699
62865.61293291972,6.728595703862084,PPG_1,PPG_3,106506.0,106506.0,98.75740517256781,5.462323886087808,0.37399314230143654
62865.6229308331,6.738593617243168,PPG_1,PPG_3,106483.0,106483.0,75.73854183194635,5.705947411349394,0.3906893302742438
62865.63292874648,6.748591530624253,PPG_1,PPG_3,106524.0,106524.0,116.71967849133944,5.826923580514072,0.398980158750003
62865.64292665986,6.758589443998062,PPG_1,PPG_3,106481.0,106481.0,73.70081515071797,5.907334053863635,0.4044909088985577
62865.65292457324,6.768587357379147,PPG_1,PPG_3,106510.0,106510.0,102.6819518100965,6.037633652940822,0.41342069758229927
62865.66292248662,6.778585270760232,PPG_1,PPG_3,106507.0,106507.0,99.66308846947504,6.303614251543926,0.4316490770732738
62865.67292039999,6.7885831841340405,PPG_1,PPG_3,106477.0,106477.0,69.64422512886813,6.7722295823640115,0.4637645701969795
62865.682918313374,6.798581097515125,PPG_1,PPG_3,106484.0,106484.0,76.62536178824666,7.47767958549242,0.5121109925919539
62865.692916226755,6.80857901089621,PPG_1,PPG_3,106495.0,106495.0,87.6064984476252,8.410711798052727,0.5760542476157225
62865.70291414013,6.818576924270019,PPG_1,PPG_3,106490.0,106490.0,82.58763510700373,9.514948623245317,0.6517306240252483
62865.71291205351,6.828574837651104,PPG_1,PPG_3,106503.0,106503.0,95.56877176639682,10.692163503376348,0.7324083865769118
62865.72290996689,6.8385727510321885,PPG_1,PPG_3,106529.0,106529.0,121.54990842577536,11.815390568579058,0.8093862161877129
62865.732907880265,6.848570664405997,PPG_1,PPG_3,106489.0,106489.0,81.53104508515389,12.746617007571892,0.8732057165991695
62865.742905793646,6.858568577787082,PPG_1,PPG_3,106503.0,106503.0,95.51218174453243,13.355319632108351,0.9149217759488956
62865.75290370703,6.868566491168167,PPG_1,PPG_3,106515.0,106515.0,107.49331840392551,13.535948499371068,0.927300767336921
62865.7629016204,6.878564404541976,PPG_1,PPG_3,106542.0,106542.0,134.47445506330405,13.224240855101522,0.9059385880658625
62865.77289953378,6.888562317923061,PPG_1,PPG_3,106527.0,106527.0,119.45559172268258,12.41043110659781,0.8501659752997857
62865.78289744716,6.898560231304145,PPG_1,PPG_3,106512.0,106512.0,104.43672838207567,11.14435349645635,0.763398206282458
62865.79289536054,6.908558144677954,PPG_1,PPG_3,106473.0,106473.0,65.4178650414542,9.528649058686316,0.6526695524197316
62865.80289327392,6.918556058059039,PPG_1,PPG_3,106523.0,106523.0,115.39900170083274,7.7018845735236905,0.5274763749809975
62865.8128911873,6.928553971440124,PPG_1,PPG_3,106488.0,106488.0,80.38013836021128,5.8174603768013595,0.39833161946036433
62865.82288910067,6.938551884813933,PPG_1,PPG_3,106488.0,106488.0,80.36127501960436,4.023027889985528,0.27535424249227425
62865.832887014054,6.9485497981950175,PPG_1,PPG_3,106500.0,106500.0,92.3424116789829,2.4422844215693917,0.16702155968947519
62865.842884927435,6.958547711576102,PPG_1,PPG_3,106478.0,106478.0,70.32354833836143,1.1603986343109702,0.0791704129631647
62865.85288284081,6.968545624949911,PPG_1,PPG_3,106465.0,106465.0,57.30468499773997,0.21483900929682515,0.014368620025548944
62865.86288075419,6.978543538330996,PPG_1,PPG_3,106500.0,106500.0,92.28582165713306,-0.40626233756524455,-0.028197157750789598
62865.87287866757,6.988541451712081,PPG_1,PPG_3,106509.0,106509.0,101.26695831651159,-0.756504978449037,-0.05220024596654934
62865.882876580945,6.99853936508589,PPG_1,PPG_3,106513.0,106513.0,105.24809497589013,-0.9157824074677372,-0.06311596476614509
62865.892874494326,7.008537278466974,PPG_1,PPG_3,106499.0,106499.0,91.22923163526866,-0.9725334050152489,-0.06700526618594924
62865.90287240771,7.018535191848059,PPG_1,PPG_3,106494.0,106494.0,86.21036829466175,-1.0095573522650556,-0.06954261877582879
62865.91287032108,7.028533105221868,PPG_1,PPG_3,106487.0,106487.0,79.19150495404028,-1.0955386999781846,-0.075435156214618
62865.92286823446,7.038531018602953,PPG_1,PPG_3,106494.0,106494.0,86.17264161341882,-1.2806707238781654,-0.08812276127041636
62865.93286614784,7.048528931984038,PPG_1,PPG_3,106487.0,106487.0,79.15377827279735,-1.5936507913399267,-0.10957214319062543
62865.94286406122,7.0585268453578465,PPG_1,PPG_3,106507.0,106507.0,99.13491493219044,-2.0384037408925897,-0.14005228191786265
62865.9528619746,7.068524758738931,PPG_1,PPG_3,106519.0,106519.0,111.11605159156898,-2.5908894592287957,-0.17791564259178855
62865.96285988798,7.078522672120016,PPG_1,PPG_3,106490.0,106490.0,82.09718825094751,-3.198455172040467,-0.21955378626467206
62865.97285780135,7.088520585493825,PPG_1,PPG_3,106486.0,106486.0,78.07832491032605,-3.7847290041601305,-0.25973273899141586
62865.982855714734,7.09851849887491,PPG_1,PPG_3,106497.0,106497.0,89.05946156971913,-4.260525908340757,-0.29234040502264086
62865.992853628115,7.1085164122559945,PPG_1,PPG_3,106480.0,106480.0,72.04059822909767,-4.537987342458413,-0.3113555976410834
62866.00285154149,7.118514325629803,PPG_1,PPG_3,106489.0,106489.0,81.0217348884762,-4.544547155840363,-0.31180515963298866
62866.01284945487,7.128512239010888,PPG_1,PPG_3,106499.0,106499.0,91.00287154786929,-4.234580085898485,-0.2905622666916233
62866.02284736825,7.138510152391973,PPG_1,PPG_3,106490.0,106490.0,81.98400820724783,-3.5978624578657876,-0.24692626236150242
62866.032845281625,7.148508065765782,PPG_1,PPG_3,106453.0,106453.0,44.96514486662636,-2.6647270036482507,-0.18297593190397227
62866.042843195006,7.158505979146867,PPG_1,PPG_3,106514.0,106514.0,105.9462815260049,-1.5069768350753017,-0.10363213938932081
62866.05284110839,7.168503892527951,PPG_1,PPG_3,106489.0,106489.0,80.92741818539798,-0.23237847691206145,-0.01628042015418141
62866.06283902176,7.17850180590176,PPG_1,PPG_3,106505.0,106505.0,96.90855484477652,1.027750007573482,0.0700796389750376
62866.07283693514,7.188499719282845,PPG_1,PPG_3,106511.0,106511.0,102.88969150415505,2.134986787440966,0.1459616105014887
62866.08283484852,7.19849763266393,PPG_1,PPG_3,106491.0,106491.0,82.87082816353359,2.9605020257657775,0.20253643257045206
62866.0928327619,7.208495546037739,PPG_1,PPG_3,106524.0,106524.0,115.85196482292667,3.3995513215628206,0.23262568427176109
62866.10283067528,7.218493459418824,PPG_1,PPG_3,106501.0,106501.0,92.83310148230521,3.3824451519839243,0.231453351581487
62866.11282858866,7.228491372799908,PPG_1,PPG_3,106501.0,106501.0,92.81423814168375,2.880943231347856,0.1970840503135855
62866.12282650203,7.238489286173717,PPG_1,PPG_3,106521.0,106521.0,112.79537480106228,1.909315123960236,0.13049571282364866
62866.132824415414,7.248487199554802,PPG_1,PPG_3,106479.0,106479.0,70.77651146045537,0.5200764239250099,0.03528737672399924
62866.142822328795,7.258485112935887,PPG_1,PPG_3,106486.0,106486.0,77.7576481198339,-1.2046474717039382,-0.08291267941464263
62866.152820242176,7.2684830263169715,PPG_1,PPG_3,106493.0,106493.0,84.73878477921244,-3.1637570035939695,-0.21717582567128188
62866.16281815555,7.27848093969078,PPG_1,PPG_3,106482.0,106482.0,73.71992143859097,-5.2463981876492,-0.3599049346584376
62866.17281606893,7.288478853071865,PPG_1,PPG_3,106525.0,106525.0,116.70105809798406,-7.3377820950678165,-0.5032332064420129
62866.18281398231,7.29847676645295,PPG_1,PPG_3,106495.0,106495.0,86.6821947573626,-9.322974193701087,-0.6392838624914393
62866.192811895686,7.308474679826759,PPG_1,PPG_3,106468.0,106468.0,59.66333141674113,-11.092262366974598,-0.7605380307304093
62866.20280980907,7.318472593207844,PPG_1,PPG_3,106461.0,106461.0,52.644468076119665,-12.549980098475004,-0.8604394225614819
62866.21280772245,7.328470506588928,PPG_1,PPG_3,106509.0,106509.0,100.62560473551275,-13.623930628854723,-0.9340401961709389
62866.22280563582,7.338468419962737,PPG_1,PPG_3,106471.0,106471.0,62.60674139489129,-14.270860780151303,-0.9783760927134698
62866.2328035492,7.348466333343822,PPG_1,PPG_3,106480.0,106480.0,71.58787805426982,-14.476943697711993,-0.9924995199394873
62866.242801462584,7.358464246724907,PPG_1,PPG_3,106497.0,106497.0,88.56901471364836,-14.255161549455277,-0.9773001814013423
62866.25279937596,7.368462160098716,PPG_1,PPG_3,106476.0,106476.0,67.55015137304144,-13.640939282575205,-0.9352058458321392
62866.26279728934,7.3784600734798,PPG_1,PPG_3,106497.0,106497.0,88.53128803241998,-12.68668124307836,-0.8698079267071503
62866.27279520272,7.388457986860885,PPG_1,PPG_3,106503.0,106503.0,94.51242469179851,-11.456272813737298,-0.7854846644214286
62866.282793116094,7.398455900234694,PPG_1,PPG_3,106468.0,106468.0,59.4935613511916,-10.020847681111618,-0.6871110454965856
62866.292791029475,7.408453813615779,PPG_1,PPG_3,106485.0,106485.0,76.47469801057014,-8.456410622074682,-0.579895885625385
62866.302788942856,7.418451726996864,PPG_1,PPG_3,106496.0,106496.0,87.45583466994867,-6.841993810901065,-0.4692554763427724
62866.31278685623,7.428449640370673,PPG_1,PPG_3,106491.0,106491.0,82.4369713293272,-5.25602723040925,-0.36056483935256506
62866.32278476961,7.438447553751757,PPG_1,PPG_3,106501.0,106501.0,92.4181079887203,-3.770349913431555,-0.25874730048984024
62866.33278268299,7.448445467132842,PPG_1,PPG_3,106510.0,106510.0,101.39924464809883,-2.4434620922413988,-0.1678120410249257
62866.342780596366,7.458443380506651,PPG_1,PPG_3,106502.0,106502.0,93.38038130747736,-1.3152078904341504,-0.09048968796293394
62866.35277850975,7.468441293887736,PPG_1,PPG_3,106510.0,106510.0,101.3615179668559,-0.4048514307816126,-0.028100464441527556
62866.36277642313,7.478439207268821,PPG_1,PPG_3,106486.0,106486.0,77.34265462624899,0.2863212559923152,0.01926749432869764
62866.3727743365,7.488437120642629,PPG_1,PPG_3,106493.0,106493.0,84.32379128562752,0.7685635064978572,0.05231687761064824
62866.38277224988,7.498435034023714,PPG_1,PPG_3,106477.0,106477.0,68.30492794500606,1.0561950093581898,0.07202905291679212
62866.392770163264,7.508432947404799,PPG_1,PPG_3,106504.0,106504.0,95.28606460438459,1.1629372002538827,0.07934438784559333
62866.40276807664,7.518430860778608,PPG_1,PPG_3,106501.0,106501.0,92.26720126377768,1.1027743242350636,0.07522126104198786
62866.41276599002,7.528428774159693,PPG_1,PPG_3,106528.0,106528.0,119.24833792315621,0.8959402346428099,0.06104635393764001
62866.4227639034,7.5384266875407775,PPG_1,PPG_3,106497.0,106497.0,88.22947458253475,0.5764025787366188,0.03914756250659266
62866.43276181677,7.548424600914586,PPG_1,PPG_3,106506.0,106506.0,97.21061124191328,0.19637024842847667,0.013102905219264617
62866.442759730155,7.558422514295671,PPG_1,PPG_3,106526.0,106526.0,117.19174790130637,-0.17462138059557483,-0.012322168027962606
62866.452757643536,7.568420427676756,PPG_1,PPG_3,106480.0,106480.0,71.1728845606849,-0.45619840656212984,-0.03161941343689321
62866.46275555691,7.578418341050565,PPG_1,PPG_3,106472.0,106472.0,63.15402122006344,-0.568141466225083,-0.03929117815820662
62866.47275347029,7.58841625443165,PPG_1,PPG_3,106512.0,106512.0,103.13515787944198,-0.44279588304997225,-0.03070090176348777
62866.48275138367,7.598414167812734,PPG_1,PPG_3,106508.0,106508.0,99.11629453883506,-0.03436131955738011,-0.0027097615838121655
62866.492749297046,7.608412081186543,PPG_1,PPG_3,106504.0,106504.0,95.0974311982136,0.6766357818077376,0.04601681865825149
62866.50274721043,7.618409994567628,PPG_1,PPG_3,106479.0,106479.0,70.07856785759213,1.6813910780789856,0.1148754532059863
62866.51274512381,7.628407907948713,PPG_1,PPG_3,106513.0,106513.0,104.05970451697067,2.9416593708308545,0.20124509377891941
62866.52274303718,7.638405821322522,PPG_1,PPG_3,106489.0,106489.0,80.04084117636376,4.390714808406826,0.30055283486348566
62866.53274095056,7.6484037347036065,PPG_1,PPG_3,106519.0,106519.0,110.02197783574229,5.9381983698328415,0.4066061250728606
62866.542738863944,7.658401648084691,PPG_1,PPG_3,106486.0,106486.0,77.00311449512083,7.478787259491105,0.5121869045272843
62866.55273677732,7.6683995614585,PPG_1,PPG_3,106516.0,106516.0,106.98425115451391,8.903735089688578,0.6098424851978107
62866.5627346907,7.678397474839585,PPG_1,PPG_3,106542.0,106542.0,132.96538781389245,10.114459326271398,0.6928167357982624
62866.57273260408,7.68839538822067,PPG_1,PPG_3,106517.0,106517.0,107.94652447327098,11.036142821214009,0.7559822320961777
62866.58273051745,7.6983933015944785,PPG_1,PPG_3,106528.0,106528.0,118.92766113264952,11.627160989897119,0.7964863272121243
62866.592728430835,7.708391214975563,PPG_1,PPG_3,106508.0,106508.0,98.9087977920426,11.880581540584794,0.8138539321916132
62866.602726344216,7.718389128356648,PPG_1,PPG_3,106504.0,106504.0,94.88993445142114,11.817548227320117,0.8095340864555092
62866.61272425759,7.728387041730457,PPG_1,PPG_3,106524.0,106524.0,114.87107111079968,11.47554763967187,0.7860958487399414
62866.62272217097,7.738384955111542,PPG_1,PPG_3,106453.0,106453.0,43.85220777017821,10.895462677992297,0.7463410362685204
62866.63272008435,7.748382868492627,PPG_1,PPG_3,106522.0,106522.0,112.8333444295713,10.111423109567943,0.6926086555451234
62866.642717997725,7.758380781866435,PPG_1,PPG_3,106521.0,106521.0,111.81448108894983,9.147356810567835,0.6265385495113511
62866.65271591111,7.76837869524752,PPG_1,PPG_3,106514.0,106514.0,104.79561774832837,8.02131523297587,0.5493678336517678
62866.66271382449,7.778376608628605,PPG_1,PPG_3,106520.0,106520.0,110.7767544077069,6.753757152754869,0.46249860396183234
62866.67271173786,7.788374522002414,PPG_1,PPG_3,106504.0,106504.0,94.75789106709999,5.374457092241308,0.36797139007100704
62866.68270965124,7.798372435383499,PPG_1,PPG_3,106496.0,106496.0,86.73902772647853,3.925604700731582,0.26867756428992196
62866.69270756462,7.808370348764584,PPG_1,PPG_3,106536.0,106536.0,126.72016438585706,2.461659279018607,0.16834937177811116
62866.702705478,7.818368262138392,PPG_1,PPG_3,106501.0,106501.0,91.7013010452356,1.0467942992756016,0.07138479648692465
62866.71270339138,7.828366175519477,PPG_1,PPG_3,106503.0,106503.0,93.68243770462868,-0.2508743418971056,-0.017547992479876894
62866.72270130476,7.838364088900562,PPG_1,PPG_3,106452.0,106452.0,42.66357436400722,-1.3689518407200638,-0.09417290819140464
62866.73269921814,7.848362002281647,PPG_1,PPG_3,106526.0,106526.0,116.64471102338575,-2.261490116662087,-0.1553410027424239
62866.742697131514,7.858359915655456,PPG_1,PPG_3,106498.0,106498.0,88.62584768276429,-2.90585827501161,-0.19950131888571732
62866.752695044896,7.86835782903654,PPG_1,PPG_3,106486.0,106486.0,76.60698434215738,-3.304047936206965,-0.22679034782907426
62866.76269295828,7.878355742417625,PPG_1,PPG_3,106491.0,106491.0,81.58812100153591,-3.4805042786967237,-0.2388833846572693
62866.77269087165,7.888353655791434,PPG_1,PPG_3,106505.0,106505.0,95.56925766091445,-3.4778382044175373,-0.23870067127904784
62866.78268878503,7.898351569172519,PPG_1,PPG_3,106508.0,106508.0,98.55039432030753,-3.3499663646432927,-0.22993726359497016
62866.79268669841,7.908349482553604,PPG_1,PPG_3,106499.0,106499.0,89.53153097968607,-3.153490603223543,-0.21647224111308008
62866.80268461179,7.918347395927412,PPG_1,PPG_3,106494.0,106494.0,84.5126676390646,-2.9397559628070136,-0.20182442034592274
62866.81268252517,7.928345309308497,PPG_1,PPG_3,106519.0,106519.0,109.49380429844314,-2.7491472840350135,-0.18876148511990684
62866.82268043855,7.938343222689582,PPG_1,PPG_3,106502.0,106502.0,92.47494095783622,-2.607893274412979,-0.17908096065483342
62866.83267835192,7.948341136063391,PPG_1,PPG_3,106495.0,106495.0,85.45607761721476,-2.527924340200643,-0.17360047039363802
62866.8426762653,7.958339049444476,PPG_1,PPG_3,106506.0,106506.0,96.4372142765933,-2.5103838011721336,-0.17239836917434936
62866.852674178685,7.96833696282556,PPG_1,PPG_3,106482.0,106482.0,72.41835093597183,-2.551929463057847,-0.17524560726251745
62866.86267209206,7.978334876199369,PPG_1,PPG_3,106492.0,106492.0,82.39948759536492,-2.6515784476018847,-0.18207482531713753
62866.87267000544,7.988332789580454,PPG_1,PPG_3,106500.0,106500.0,90.38062425474345,-2.815562586214744,-0.19331310782659306
62866.88266791882,7.998330702961539,PPG_1,PPG_3,106480.0,106480.0,70.36176091412199,-3.058289460166421,-0.20994784582735743
62866.892665832194,8.008328616335348,PPG_1,PPG_3,106510.0,106510.0,100.34289757350052,-3.3987955506627263,-0.23328366155659666
62866.902663745575,8.018326529716433,PPG_1,PPG_3,106522.0,106522.0,112.32403423289361,-3.8535324769431,-0.2644480295756603
62866.91266165896,8.028324443097517,PPG_1,PPG_3,106493.0,106493.0,83.30517089227214,-4.4280750211613205,-0.30382300498635756
62866.92265957233,8.038322356471326,PPG_1,PPG_3,106497.0,106497.0,87.28630755165068,-5.1114447085508266,-0.3506562028202811
62866.93265748571,8.048320269852411,PPG_1,PPG_3,106502.0,106502.0,92.26744421102921,-5.8750311177374925,-0.4029868724777885
62866.94265539909,8.058318183233496,PPG_1,PPG_3,106476.0,106476.0,66.2485808704223,-6.675011043296586,-0.4578116895691001
62866.952653312466,8.068316096607305,PPG_1,PPG_3,106502.0,106502.0,92.22971752980084,-7.4559372040920495,-0.5113306999336531
62866.96265122585,8.07831400998839,PPG_1,PPG_3,106524.0,106524.0,114.21085418917937,-8.153936592749153,-0.5591665112963298
62866.97264913923,8.088311923369474,PPG_1,PPG_3,106482.0,106482.0,72.19199084855791,-8.700038274238606,-0.5965923564261215
62866.9826470526,8.098309836743283,PPG_1,PPG_3,106492.0,106492.0,82.173127507951,-9.025984742037844,-0.6189303613031355
62866.99264496598,8.108307750124368,PPG_1,PPG_3,106495.0,106495.0,85.15426416732953,-9.073534409800885,-0.6221890703714155
62867.00264287936,8.118305663505453,PPG_1,PPG_3,106478.0,106478.0,68.13540082670806,-8.805146484940495,-0.6037957102134041
62867.01264079274,8.128303576879262,PPG_1,PPG_3,106480.0,106480.0,70.1165374860866,-8.212920309202516,-0.5632088270627679
62867.02263870612,8.138301490260346,PPG_1,PPG_3,106483.0,106483.0,73.09767414547969,-7.323156117643739,-0.5022308481184634
62867.0326366195,8.148299403641431,PPG_1,PPG_3,106494.0,106494.0,84.07881080485822,-6.194319193227554,-0.4248685594788037
62867.042634532874,8.15829731701524,PPG_1,PPG_3,106516.0,106516.0,106.05994746423676,-4.9077399106542465,-0.33669575465341317
62867.052632446255,8.168295230396325,PPG_1,PPG_3,106527.0,106527.0,117.04108412362984,-3.5535567483818595,-0.2438898706459734
62867.06263035964,8.17829314377741,PPG_1,PPG_3,106486.0,106486.0,76.02222078300838,-2.2171678747537826,-0.15230347801453603
62867.07262827301,8.188291057151218,PPG_1,PPG_3,106482.0,106482.0,72.00335744238691,-0.9707141410743116,-0.06688058704136571
62867.08262618639,8.198288970532303,PPG_1,PPG_3,106501.0,106501.0,90.98449410176545,0.13070211414663746,0.008602487976652728
62867.09262409977,8.208286883913388,PPG_1,PPG_3,106536.0,106536.0,125.96563076115854,1.0521181726976243,0.07174965612559084
62867.102622013146,8.218284797287197,PPG_1,PPG_3,106520.0,106520.0,109.94676742053707,1.7827146082158098,0.12181943246010953
62867.11261992653,8.228282710668282,PPG_1,PPG_3,106493.0,106493.0,82.9279040799156,2.337049397790978,0.1598095150544562
62867.12261783991,8.238280624049366,PPG_1,PPG_3,106509.0,106509.0,98.90904073929414,2.74950580056744,0.18807628290435704
62867.13261575328,8.248278537423175,PPG_1,PPG_3,106485.0,106485.0,74.89017739868723,3.0627961496529474,0.2095469292747419
62867.14261366666,8.25827645080426,PPG_1,PPG_3,106486.0,106486.0,75.87131405806576,3.3152230454741027,0.22684643636256083
62867.15261158005,8.268274364185345,PPG_1,PPG_3,106526.0,106526.0,115.8524507174443,3.531440337737049,0.24166440006585005
62867.16260949342,8.278272277559154,PPG_1,PPG_3,106493.0,106493.0,82.83358737682283,3.719009898348729,0.2545190561939349
62867.1726074068,8.288270190940239,PPG_1,PPG_3,106504.0,106504.0,93.81472403621592,3.8698826803515285,0.2648587814958916
62867.18260532018,8.298268104321323,PPG_1,PPG_3,106514.0,106514.0,103.79586069559446,3.964592727219322,0.2713495206136356
62867.192603233554,8.308266017695132,PPG_1,PPG_3,106492.0,106492.0,81.77699735497299,3.977979320635826,0.2722669405539205
62867.202601146935,8.318263931076217,PPG_1,PPG_3,106521.0,106521.0,110.75813401435153,3.88608346211537,0.2659690654774779
62867.21259906032,8.328261844457302,PPG_1,PPG_3,106521.0,106521.0,110.73927067374461,3.673455815002655,0.2513971099957657
62867.22259697369,8.33825975783111,PPG_1,PPG_3,106503.0,106503.0,92.72040733312315,3.339139915028363,0.22848552499068192
62867.23259488707,8.348257671212195,PPG_1,PPG_3,106487.0,106487.0,76.70154399250168,2.899301799019913,0.19834221327808185
62867.24259280045,8.35825558459328,PPG_1,PPG_3,106508.0,106508.0,97.68268065188022,2.3864985575535216,0.16319840151608309
62867.252590713826,8.368253497967089,PPG_1,PPG_3,106549.0,106549.0,138.6638173112733,1.847762831998418,0.12627736553699742
62867.26258862721,8.378251411348174,PPG_1,PPG_3,106500.0,106500.0,89.64495397065184,1.3417522986750268,0.09159907668325708
62867.27258654059,8.388249324729259,PPG_1,PPG_3,106489.0,106489.0,78.62609063003038,0.9316375385320991,0.06349278802161462
62867.28258445396,8.398247238103068,PPG_1,PPG_3,106470.0,106470.0,59.60722728942346,0.6721304894242176,0.0457080586219334
62867.29258236734,8.408245151484152,PPG_1,PPG_3,106478.0,106478.0,67.588363948802,0.5954489178616043,0.04045286033398081
62867.30258028072,8.418243064865237,PPG_1,PPG_3,106503.0,106503.0,92.56950060818053,0.7042371020218884,0.047908412789394166
62867.312578194105,8.428240978246322,PPG_1,PPG_3,106544.0,106544.0,133.55063726755907,0.9757221932045412,0.06651403024498807
62867.32257610748,8.43823889162013,PPG_1,PPG_3,106506.0,106506.0,95.53177392695216,1.3739537683419547,0.09380593166568292
62867.33257402086,8.448236805001216,PPG_1,PPG_3,106477.0,106477.0,66.51291058633069,1.8623823505689878,0.12727928121761198
62867.34257193424,8.4582347183823,PPG_1,PPG_3,106524.0,106524.0,113.49404724570923,2.4118150489299337,0.16493341006412324
62867.352569847615,8.46823263175611,PPG_1,PPG_3,106521.0,106521.0,110.47518390508776,3.0046869277885784,0.20556454501952956
62867.36256776099,8.478230545137194,PPG_1,PPG_3,106512.0,106512.0,101.45632056448085,3.637324576124331,0.24892093715755081
62867.37256567438,8.488228458518279,PPG_1,PPG_3,106487.0,106487.0,76.43745722385938,4.318737141343803,0.2956200080445731
62867.38256358775,8.498226371892088,PPG_1,PPG_3,106505.0,106505.0,94.41859388323792,5.064915276178206,0.34675764094360045
62867.39256150113,8.508224285273172,PPG_1,PPG_3,106510.0,106510.0,99.39973054261645,5.891211115276389,0.40338595972323626
62867.40255941451,8.518222198654257,PPG_1,PPG_3,106506.0,106506.0,95.38086720200954,6.806133659880626,0.46608810956229413
62867.41255732789,8.528220112028066,PPG_1,PPG_3,106495.0,106495.0,84.36200386138808,7.807535193796768,0.5347169015829706
62867.42255524127,8.53821802540915,PPG_1,PPG_3,106529.0,106529.0,118.34314052076661,8.880816132690793,0.6082717862525228
62867.43255315465,8.548215938790236,PPG_1,PPG_3,106493.0,106493.0,82.32427718014515,9.999026656832614,0.6849058185537825
62867.44255106802,8.558213852164045,PPG_1,PPG_3,106523.0,106523.0,112.30541383953823,11.124595679980867,0.7620441489620383
62867.45254898141,8.56821176554513,PPG_1,PPG_3,106524.0,106524.0,113.28655049891677,12.211996014522288,0.8365666745174132
62867.462546894785,8.578209678926214,PPG_1,PPG_3,106514.0,106514.0,103.2676871582953,13.210390973863728,0.9049894177412848
62867.47254480816,8.588207592300023,PPG_1,PPG_3,106497.0,106497.0,86.24882381767384,14.065111725482291,0.9635657736903249
62867.48254272154,8.598205505681108,PPG_1,PPG_3,106514.0,106514.0,103.22996047706692,14.718013731102642,1.0083109377788733
62867.49254063492,8.608203419062193,PPG_1,PPG_3,106530.0,106530.0,119.21109713644546,15.108700870848379,1.0350857983624284
62867.502538548295,8.618201332436001,PPG_1,PPG_3,106506.0,106506.0,95.192233795824,15.178058842199352,1.0398390902534518
62867.51253646168,8.628199245817086,PPG_1,PPG_3,106510.0,106510.0,99.17337045520253,14.873198951983886,1.018946206337822
62867.52253437506,8.638197159198171,PPG_1,PPG_3,106524.0,106524.0,113.15450711459562,14.15256689609507,0.9695593162522638
62867.53253228843,8.64819507257198,PPG_1,PPG_3,106514.0,106514.0,103.13564377397415,12.99113202246391,0.8899630007999765
62867.54253020181,8.658192985953065,PPG_1,PPG_3,106531.0,106531.0,120.11678043335269,11.38518700882087,0.7799031870238373
62867.55252811519,8.66819089933415,PPG_1,PPG_3,106485.0,106485.0,74.09791709274577,9.355098318861687,0.6407756445066083
62867.56252602857,8.678188812707958,PPG_1,PPG_3,106501.0,106501.0,90.07905375212431,6.9451562019621855,0.475615705440233
62867.57252394195,8.688186726089043,PPG_1,PPG_3,106516.0,106516.0,105.06019041150284,4.222129104251871,0.28899919445426436
62867.58252185533,8.698184639470128,PPG_1,PPG_3,106522.0,106522.0,111.04132707088138,1.2745732540891401,0.08699511261601345
62867.5925197687,8.708182552843937,PPG_1,PPG_3,106494.0,106494.0,83.02246373027447,-1.7880565046878962,-0.12289529960403103
62867.60251768208,8.718180466225022,PPG_1,PPG_3,106497.0,106497.0,86.003600389653,-4.839705686287089,-0.33203318277166016
62867.612515595465,8.728178379606106,PPG_1,PPG_3,106468.0,106468.0,56.98473704903154,-7.746567873140247,-0.5312484163195449
62867.62251350884,8.738176292979915,PPG_1,PPG_3,106523.0,106523.0,111.96587370841007,-10.3780913201975,-0.7115939313092887
62867.63251142222,8.748174206361,PPG_1,PPG_3,106467.0,106467.0,55.94701036780316,-12.617364428375783,-0.8650574553940544
62867.6425093356,8.758172119742085,PPG_1,PPG_3,106497.0,106497.0,85.9281470271817,-14.370483577841007,-0.9852035161111827
62867.652507248975,8.768170033115894,PPG_1,PPG_3,106453.0,106453.0,41.90928368656023,-15.575482694030713,-1.0677854085181975
62867.66250516235,8.778167946496978,PPG_1,PPG_3,106468.0,106468.0,56.890420345938765,-16.209411708371295,-1.1112303015082408
62867.67250307574,8.788165859878063,PPG_1,PPG_3,106499.0,106499.0,87.87155700533185,-16.290209821072054,-1.1167676176440757
62867.68250098911,8.798163773251872,PPG_1,PPG_3,106488.0,106488.0,76.85269366471039,-15.871391995503762,-1.088064884053211
62867.69249890249,8.808161686632957,PPG_1,PPG_3,106498.0,106498.0,86.83383032408892,-15.031674589372669,-1.0305167484954931
62867.70249681587,8.818159600014042,PPG_1,PPG_3,106476.0,106476.0,64.81496698346746,-13.864226145340108,-0.9505083065800424
62867.71249472925,8.82815751338785,PPG_1,PPG_3,106499.0,106499.0,87.79610364286054,-12.468706735230969,-0.8548695362032263
62867.72249264263,8.838155426768935,PPG_1,PPG_3,106474.0,106474.0,62.77724030223908,-10.946264289851316,-0.750532382315703
62867.73249055601,8.84815334015002,PPG_1,PPG_3,106488.0,106488.0,76.75837696161761,-9.396185150955557,-0.6443012100676937
62867.74248846938,8.858151253523829,PPG_1,PPG_3,106501.0,106501.0,89.73951362099615,-7.912820481372022,-0.5426421632699955
62867.75248638277,8.868149166904914,PPG_1,PPG_3,106466.0,106466.0,54.720650280389236,-6.581953479773812,-0.45143419966454584
62867.762484296145,8.878147080285999,PPG_1,PPG_3,106503.0,106503.0,91.70178693976777,-5.4763532486071504,-0.3756643853064398
62867.77248220952,8.888144993659807,PPG_1,PPG_3,106496.0,106496.0,84.6829235991463,-4.650270518594662,-0.3190506714765914
62867.7824801229,8.898142907040892,PPG_1,PPG_3,106530.0,106530.0,118.66406025852484,-4.133350635019251,-0.2836247349468996
62867.79247803628,8.908140820421977,PPG_1,PPG_3,106468.0,106468.0,56.64519691791793,-3.9266269884546268,-0.26945739680596614
62867.802475949655,8.918138733795786,PPG_1,PPG_3,106486.0,106486.0,74.62633357729646,-4.003554175070989,-0.2747294277667977
62867.81247386304,8.92813664717687,PPG_1,PPG_3,106519.0,106519.0,107.607470236675,-4.315602765652481,-0.29611497302316814
62867.82247177642,8.938134560557955,PPG_1,PPG_3,106484.0,106484.0,72.58860689606809,-4.799573843896752,-0.32928283760887395
62867.83246968979,8.948132473931764,PPG_1,PPG_3,106467.0,106467.0,55.56974355544662,-5.385494603012087,-0.3694375932748369
62867.84246760317,8.958130387312849,PPG_1,PPG_3,106500.0,106500.0,88.55088021482516,-6.004914193914508,-0.4118881157054672
62867.85246551655,8.968128300693934,PPG_1,PPG_3,106493.0,106493.0,81.53201687420369,-6.597657636854348,-0.45251044859530726
62867.86246342993,8.978126214067743,PPG_1,PPG_3,106475.0,106475.0,63.51315353359678,-7.115313809409685,-0.4879868450270054
62867.87246134331,8.988124127448827,PPG_1,PPG_3,106498.0,106498.0,86.49429019297531,-7.522028661015918,-0.5158601286372758
62867.88245925669,8.998122040829912,PPG_1,PPG_3,106485.0,106485.0,73.47542685235385,-7.793600291453778,-0.5344716768652383
62867.89245717007,9.008119954210995,PPG_1,PPG_3,106500.0,106500.0,88.45656351173238,-7.915300083346109,-0.5428120971900167
62867.90245508344,9.018117867584806,PPG_1,PPG_3,106493.0,106493.0,81.43770017112547,-7.879440739530603,-0.5403545580657373
62867.912452996825,9.02811578096589,PPG_1,PPG_3,106487.0,106487.0,75.418836830504,-7.684296055559306,-0.5269807579699525
62867.922450910206,9.038113694346976,PPG_1,PPG_3,106483.0,106483.0,71.39997348988254,-7.3352574094399525,-0.5030601828156213
62867.93244882358,9.048111607720784,PPG_1,PPG_3,106486.0,106486.0,74.38111014926108,-6.847556517799591,-0.46963670389424017
62867.94244673696,9.05810952110187,PPG_1,PPG_3,106485.0,106485.0,73.36224680865416,-6.24878957671776,-0.4286015641659614
62867.95244465034,9.068107434482954,PPG_1,PPG_3,106469.0,106469.0,57.3433834680327,-5.579542289128245,-0.3827362131006724
62867.96244256371,9.078105347856765,PPG_1,PPG_3,106518.0,106518.0,106.32452012741123,-4.89101743498917,-0.33554971755878105
62867.9724404771,9.088103261237848,PPG_1,PPG_3,106494.0,106494.0,82.30565678678977,-4.239753862514693,-0.2909168397847627
62867.98243839048,9.098101174618932,PPG_1,PPG_3,106467.0,106467.0,55.286793446182855,-3.681461485410029,-0.2526555328690359
62867.99243630385,9.10809908799274,PPG_1,PPG_3,106514.0,106514.0,102.26793010556139,-3.266192533791358,-0.22419601333761416
62868.00243421723,9.118097001373826,PPG_1,PPG_3,106467.0,106467.0,55.249066764939926,-3.034736797630551,-0.20833371730451983
62868.012432130614,9.12809491475491,PPG_1,PPG_3,106489.0,106489.0,77.23020342431846,-3.0147412186095366,-0.20696336546513355
62868.02243004399,9.13809282812872,PPG_1,PPG_3,106514.0,106514.0,102.21134008371155,-3.215727643438282,-0.22073751607443987
62868.03242795737,9.148090741509805,PPG_1,PPG_3,106489.0,106489.0,77.19247674309008,-3.623536085012787,-0.2486857464028314
62868.04242587075,9.15808865489089,PPG_1,PPG_3,106488.0,106488.0,76.17361340246862,-4.196377933447059,-0.28794416846974596
62868.05242378413,9.168086568264698,PPG_1,PPG_3,106494.0,106494.0,82.1547500618617,-4.864777471525392,-0.3337514209373016
62868.062421697505,9.178084481645785,PPG_1,PPG_3,106497.0,106497.0,85.13588672124024,-5.535626922581408,-0.3797265726565756
62868.072419610886,9.188082395026868,PPG_1,PPG_3,106487.0,106487.0,75.11702338061878,-6.099546400708076,-0.4183735202295602
62868.08241752426,9.198080308400677,PPG_1,PPG_3,106496.0,106496.0,84.09816003999731,-6.441440652915616,-0.4418044704859045
62868.09241543764,9.20807822178176,PPG_1,PPG_3,106490.0,106490.0,78.0792966993904,-6.454330919101031,-0.4426878757605804
62868.10241335102,9.218076135162846,PPG_1,PPG_3,106448.0,106448.0,36.06043335876893,-6.055633642028245,-0.4153640585097376
62868.1124112644,9.228074048536657,PPG_1,PPG_3,106473.0,106473.0,61.04157001814747,-5.203130479931205,-0.3569396800491528
62868.12240917778,9.23807196191774,PPG_1,PPG_3,106478.0,106478.0,66.022706677526,-3.905589998947173,-0.26801567425137585
62868.13240709116,9.248069875298825,PPG_1,PPG_3,106493.0,106493.0,81.00384333691909,-2.2234888093238387,-0.1527366689866811
62868.14240500453,9.258067788672632,PPG_1,PPG_3,106490.0,106490.0,77.98497999629762,-0.25949074187203286,-0.01813849798822552
62868.15240291791,9.268065702053718,PPG_1,PPG_3,106494.0,106494.0,81.96611665567616,1.8578208404142347,0.126966668423335
62868.162400831294,9.278063615434805,PPG_1,PPG_3,106512.0,106512.0,99.9472533150547,3.99287165710613,0.273287553193014
62868.17239874467,9.288061528808612,PPG_1,PPG_3,106501.0,106501.0,88.92838997444778,6.021468372295842,0.4123128465896992
62868.18239665805,9.298059442189697,PPG_1,PPG_3,106497.0,106497.0,84.90952663382632,7.845904346710181,0.5373464448042662
62868.19239457143,9.308057355570782,PPG_1,PPG_3,106522.0,106522.0,109.89066329320485,9.404918878503548,0.644189984019994
62868.2023924848,9.31805526894459,PPG_1,PPG_3,106492.0,106492.0,79.87179995258339,10.677863687031133,0.7314283809661237
62868.212390398185,9.328053182325675,PPG_1,PPG_3,106499.0,106499.0,86.85293661197647,11.683144028526915,0.8003229983022762
62868.222388311566,9.33805109570676,PPG_1,PPG_3,106529.0,106529.0,116.83407327135501,12.471617340518687,0.8543592356255043
62868.23238622494,9.348049009080569,PPG_1,PPG_3,106467.0,106467.0,54.815209930733545,13.116164997209815,0.8985318532821635
62868.24238413832,9.358046922461654,PPG_1,PPG_3,106507.0,106507.0,94.79634659011208,13.698781024338425,0.9384601266066085
62868.2523820517,9.368044835842738,PPG_1,PPG_3,106516.0,106516.0,103.77748324950517,14.297237989359736,0.979474022825797
62868.262379965076,9.378042749216547,PPG_1,PPG_3,106478.0,106478.0,65.7586199088837,14.973587169011555,1.025826086020826
62868.27237787846,9.388040662597632,PPG_1,PPG_3,106514.0,106514.0,101.73975656826224,15.765267260689225,1.0800820927459032
62868.28237579184,9.398038575978717,PPG_1,PPG_3,106486.0,106486.0,73.72089322764077,16.678998996707566,1.1427026332084922
62868.29237370521,9.408036489352526,PPG_1,PPG_3,106503.0,106503.0,90.70202988703386,17.688487845687234,1.2118856710982857
62868.30237161859,9.41803440273361,PPG_1,PPG_3,106505.0,106505.0,92.6831665464124,18.736936763374317,1.283738749288473
62868.312369531974,9.428032316114695,PPG_1,PPG_3,106512.0,106512.0,99.66430320579093,19.74429274570244,1.3527756159803215
62868.32236744535,9.438030229488504,PPG_1,PPG_3,106512.0,106512.0,99.64543986518402,20.617828608352255,1.4126414230616762
62868.33236535873,9.448028142869587,PPG_1,PPG_3,106510.0,106510.0,97.62657652456255,21.26370892526959,1.4569053715765385
62868.34236327211,9.458026056250674,PPG_1,PPG_3,106510.0,106510.0,97.60771318394109,21.597402794898827,1.4797743271370534
62868.35236118548,9.468023969624484,PPG_1,PPG_3,106494.0,106494.0,81.58884984331962,21.55199981873546,1.476662736728309
62868.362359098865,9.478021883005567,PPG_1,PPG_3,106529.0,106529.0,116.56998650271271,21.08468442530499,1.4446363318771196
62868.372357012246,9.488019796386652,PPG_1,PPG_3,106513.0,106513.0,100.55112316209124,20.18165107138696,1.382748980864769
62868.38235492562,9.49801770976046,PPG_1,PPG_3,106482.0,106482.0,69.53225982146978,18.86049211420369,1.2922063361534049
62868.392352839,9.508015623141546,PPG_1,PPG_3,106533.0,106533.0,120.51339648084831,17.168849123986398,1.1762734051393609
62868.40235075238,9.51801353652263,PPG_1,PPG_3,106488.0,106488.0,75.4945331402414,15.179558129284425,1.0399418405070273
62868.412348665755,9.52801144989644,PPG_1,PPG_3,106507.0,106507.0,94.47566979961994,12.982951589450124,0.8894023733024864
62868.42234657914,9.538009363277524,PPG_1,PPG_3,106482.0,106482.0,69.45680645899847,10.676431481322686,0.7313302279831625
62868.43234449252,9.548007276658607,PPG_1,PPG_3,106478.0,106478.0,65.437943118377,8.352362615554599,0.5720554182005323
62868.44234240589,9.558005190032418,PPG_1,PPG_3,106472.0,106472.0,59.419079777770094,6.087136845721439,0.41681328707476245
62868.45234031927,9.568003103413504,PPG_1,PPG_3,106486.0,106486.0,73.40021643714863,3.934891711633939,0.26931402860331194
62868.46233823265,9.578001016794587,PPG_1,PPG_3,106489.0,106489.0,76.38135309652716,1.9280428359608004,0.13177917426082428
62868.472336146035,9.587998930175672,PPG_1,PPG_3,106518.0,106518.0,105.3624897559057,0.08365658832729486,0.005378329137657578
62868.48233405941,9.59799684354948,PPG_1,PPG_3,106468.0,106468.0,55.343626415298786,-1.5885987189499018,-0.10922591082170492
62868.49233197279,9.607994756930566,PPG_1,PPG_3,106474.0,106474.0,61.32476307467732,-3.0816949710994748,-0.21155188964750274
62868.50232988617,9.61799267031165,PPG_1,PPG_3,106480.0,106480.0,67.30589973405586,-4.391050689047268,-0.3012856260206763
62868.512327799544,9.62799058368546,PPG_1,PPG_3,106458.0,106458.0,45.28703639343439,-5.516391928435518,-0.3784083457834902
62868.522325712926,9.637988497066544,PPG_1,PPG_3,106478.0,106478.0,65.26817305282748,-6.46255996015203,-0.4432518345000982
62868.53232362631,9.64798641044763,PPG_1,PPG_3,106480.0,106480.0,67.24930971220601,-7.237831988647139,-0.49638335167979364
62868.54232153968,9.657984323821438,PPG_1,PPG_3,106487.0,106487.0,74.23044637158455,-7.850228585673608,-0.5383525690896593
62868.55231945306,9.667982237202525,PPG_1,PPG_3,106459.0,106459.0,46.211583030963084,-8.30397407458108,-0.5694489911879689
62868.56231736644,9.677980150583608,PPG_1,PPG_3,106500.0,106500.0,87.19271969035617,-8.598478564827278,-0.5896321911589351
62868.57231527982,9.687978063957416,PPG_1,PPG_3,106453.0,106453.0,40.173856349734706,-8.730777600692763,-0.5986990067263543
62868.5823131932,9.6979759773385,PPG_1,PPG_3,106473.0,106473.0,60.15499300911324,-8.701112632945426,-0.5966659851731813
