timestamp,PPG_1,PPG_2,PPG_3,time_from_segment_start_sec
63856.45548962639,161630.0,143593.0,16097.0,0.0
63856.465589428124,161616.0,143567.0,16103.0,0.010099801736942027
63856.47568922987,161595.0,143577.0,16073.0,0.02019960348116001
63856.48578903161,161602.0,143571.0,16076.0,0.030299405225377996
63856.49588883336,161622.0,143556.0,16081.0,0.04039920696959598
63856.505988635094,161592.0,143588.0,16063.0,0.05049900870653801
63856.51608843684,161602.0,143587.0,16064.0,0.06059881045075599
63856.52618823858,161609.0,143585.0,16092.0,0.07069861219497398
63856.536288040326,161592.0,143597.0,16100.0,0.08079841393919196
63856.54638784207,161583.0,143564.0,16072.0,0.09089821568340994
63856.55648764381,161604.0,143595.0,16084.0,0.10099801742035197
63856.56658744555,161641.0,143602.0,16111.0,0.11109781916456996
63856.576687247296,161618.0,143566.0,16107.0,0.12119762090878794
63856.58678704904,161614.0,143568.0,16089.0,0.13129742265300592
63856.596886850784,161650.0,143599.0,16102.0,0.1413972243972239
63856.60698665252,161633.0,143588.0,16108.0,0.15149702613416594
63856.617086454266,161615.0,143594.0,16109.0,0.16159682787838392
63856.62718625601,161609.0,143588.0,16085.0,0.1716966296226019
63856.637286057754,161664.0,143599.0,16140.0,0.1817964313668199
63856.6473858595,161640.0,143591.0,16106.0,0.19189623311103787
63856.657485661235,161654.0,143570.0,16117.0,0.2019960348479799
63856.66758546298,161639.0,143577.0,16094.0,0.21209583659219788
63856.67768526472,161609.0,143583.0,16105.0,0.22219563833641587
63856.68778506647,161639.0,143576.0,16101.0,0.23229544008063385
63856.697884868205,161619.0,143565.0,16102.0,0.24239524181757588
63856.70798466995,161651.0,143602.0,16098.0,0.25249504356179386
63856.71808447169,161648.0,143575.0,16122.0,0.26259484530601185
63856.72818427344,161631.0,143593.0,16107.0,0.27269464705022983
63856.73828407518,161621.0,143566.0,16085.0,0.2827944487944478
63856.74838387692,161661.0,143608.0,16120.0,0.29289425053138984
63856.75848367866,161618.0,143589.0,16148.0,0.30299405227560783
63856.76858348041,161610.0,143581.0,16119.0,0.3130938540198258
63856.77868328215,161667.0,143615.0,16126.0,0.3231936557640438
63856.78878308389,161643.0,143577.0,16106.0,0.3332934575009858
63856.79888288563,161650.0,143597.0,16137.0,0.3433932592452038
63856.80898268738,161659.0,143602.0,16121.0,0.3534930609894218
63856.81908248912,161654.0,143587.0,16121.0,0.3635928627336398
63856.829182290865,161627.0,143583.0,16099.0,0.37369266447785776
63856.8392820926,161691.0,143595.0,16144.0,0.3837924662147998
63856.849381894346,161673.0,143617.0,16114.0,0.39389226795901777
63856.85948169609,161650.0,143584.0,16112.0,0.40399206970323576
63856.869581497835,161670.0,143578.0,16127.0,0.41409187144745374
63856.87968129958,161704.0,143640.0,16159.0,0.4241916731916717
63856.889781101316,161667.0,143595.0,16125.0,0.43429147492861375
63856.89988090306,161644.0,143578.0,16129.0,0.44439127667283174
63856.909980704804,161691.0,143612.0,16154.0,0.4544910784170497
63856.92008050655,161686.0,143582.0,16150.0,0.4645908801612677
63856.93018030829,161693.0,143596.0,16131.0,0.4746906819054857
63856.94028011003,161647.0,143577.0,16102.0,0.4847904836424277
63856.950379911774,161700.0,143625.0,16122.0,0.4948902853866457
63856.96047971352,161680.0,143578.0,16142.0,0.5049900871308637
63856.97057951526,161689.0,143593.0,16131.0,0.5150898888750817
63856.980679317,161679.0,143574.0,16129.0,0.5251896906120237
63856.99077911874,161694.0,143613.0,16169.0,0.5352894923562417
63857.00087892049,161674.0,143587.0,16132.0,0.5453892941004597
63857.01097872223,161687.0,143586.0,16111.0,0.5554890958446776
63857.021078523976,161706.0,143593.0,16137.0,0.5655888975888956
63857.03117832571,161701.0,143609.0,16158.0,0.5756886993258377
63857.04127812746,161675.0,143564.0,16118.0,0.5857885010700556
63857.0513779292,161697.0,143611.0,16143.0,0.5958883028142736
63857.061477730946,161714.0,143621.0,16158.0,0.6059881045584916
63857.07157753268,161712.0,143620.0,16157.0,0.6160879062954336
63857.08167733443,161695.0,143600.0,16134.0,0.6261877080396516
63857.09177713617,161717.0,143599.0,16142.0,0.6362875097838696
63857.101876937915,161704.0,143587.0,16182.0,0.6463873115280876
63857.11197673966,161700.0,143581.0,16149.0,0.6564871132723056
63857.1220765414,161695.0,143605.0,16157.0,0.6665869150092476
63857.13217634314,161681.0,143585.0,16132.0,0.6766867167534656
63857.142276144885,161639.0,143529.0,16173.0,0.6867865184976836
63857.15237594663,161606.0,143542.0,16132.0,0.6968863202419016
63857.16247574837,161622.0,143529.0,16100.0,0.7069861219861195
63857.17257555011,161598.0,143564.0,16099.0,0.7170859237230616
63857.182675351854,161606.0,143558.0,16118.0,0.7271857254672796
63857.1927751536,161564.0,143515.0,16084.0,0.7372855272114975
63857.20287495534,161581.0,143566.0,16098.0,0.7473853289557155
63857.21297475708,161563.0,143527.0,16075.0,0.7574851306926575
63857.223074558824,161550.0,143523.0,16081.0,0.7675849324368755
63857.23317436057,161547.0,143518.0,16063.0,0.7776847341810935
63857.24327416231,161575.0,143551.0,16065.0,0.7877845359253115
63857.25337396406,161568.0,143532.0,16057.0,0.7978843376695295
63857.26347376579,161553.0,143523.0,16094.0,0.8079841394064715
63857.27357356754,161591.0,143548.0,16075.0,0.8180839411506895
63857.28367336928,161596.0,143535.0,16095.0,0.8281837428949075
63857.293773171026,161549.0,143539.0,16075.0,0.8382835446391255
63857.30387297277,161580.0,143531.0,16101.0,0.8483833463833435
63857.31397277451,161606.0,143576.0,16116.0,0.8584831481202855
63857.32407257625,161611.0,143532.0,16081.0,0.8685829498645035
63857.334172377996,161563.0,143536.0,16081.0,0.8786827516087214
63857.34427217974,161594.0,143544.0,16094.0,0.8887825533529394
63857.35437198148,161595.0,143564.0,16102.0,0.8988823550898815
63857.36447178322,161609.0,143545.0,16116.0,0.9089821568340994
63857.374571584965,161586.0,143546.0,16097.0,0.9190819585783174
63857.38467138671,161614.0,143561.0,16108.0,0.9291817603225354
63857.394771188454,161584.0,143553.0,16142.0,0.9392815620667534
63857.40487099019,161597.0,143560.0,16109.0,0.9493813638036954
63857.414970791935,161551.0,143559.0,16076.0,0.9594811655479134
63857.42507059368,161603.0,143551.0,16097.0,0.9695809672921314
63857.43517039542,161617.0,143552.0,16100.0,0.9796807690363494
63857.44527019717,161597.0,143549.0,16090.0,0.9897805707805674
63857.455369998905,161630.0,143561.0,16096.0,0.9998803725175094
63857.46546980065,161604.0,143550.0,16106.0,1.0099801742617274
63857.47556960239,161593.0,143554.0,16116.0,1.0200799760059454
63857.48566940414,161579.0,143540.0,16090.0,1.0301797777501633
63857.495769205874,161612.0,143558.0,16104.0,1.0402795794871054
63857.50586900762,161606.0,143547.0,16103.0,1.0503793812313234
63857.51596880936,161600.0,143549.0,16087.0,1.0604791829755413
63857.52606861111,161623.0,143554.0,16102.0,1.0705789847197593
63857.53616841285,161633.0,143568.0,16101.0,1.0806787864639773
63857.54626821459,161643.0,143525.0,16105.0,1.0907785882009193
63857.55636801633,161576.0,143532.0,16090.0,1.1008783899451373
63857.56646781808,161603.0,143550.0,16112.0,1.1109781916893553
63857.57656761982,161638.0,143577.0,16135.0,1.1210779934335733
63857.586667421565,161623.0,143565.0,16111.0,1.1311777951777913
63857.5967672233,161625.0,143562.0,16102.0,1.1412775969147333
63857.606867025046,161658.0,143583.0,16118.0,1.1513773986589513
63857.61696682679,161629.0,143543.0,16140.0,1.1614772004031693
63857.627066628535,161637.0,143562.0,16122.0,1.1715770021473872
63857.63716643027,161648.0,143562.0,16145.0,1.1816768038843293
63857.647266232016,161637.0,143589.0,16147.0,1.1917766056285473
63857.65736603376,161655.0,143566.0,16108.0,1.2018764073727652
63857.667465835504,161645.0,143573.0,16118.0,1.2119762091169832
63857.67756563725,161641.0,143579.0,16120.0,1.2220760108612012
63857.687665438985,161645.0,143589.0,16134.0,1.2321758125981432
63857.69776524073,161611.0,143560.0,16117.0,1.2422756143423612
63857.707865042474,161649.0,143573.0,16125.0,1.2523754160865792
63857.71796484422,161638.0,143544.0,16135.0,1.2624752178307972
63857.72806464596,161624.0,143556.0,16111.0,1.2725750195750152
63857.7381644477,161644.0,143552.0,16126.0,1.2826748213119572
63857.74826424944,161661.0,143564.0,16126.0,1.2927746230561752
63857.75836405119,161677.0,143562.0,16129.0,1.3028744248003932
63857.76846385293,161658.0,143580.0,16144.0,1.3129742265446112
63857.77856365467,161673.0,143594.0,16136.0,1.3230740282815532
63857.78866345641,161672.0,143570.0,16116.0,1.3331738300257712
63857.79876325816,161671.0,143580.0,16135.0,1.3432736317699892
63857.8088630599,161622.0,143534.0,16101.0,1.3533734335142071
63857.818962861646,161676.0,143547.0,16147.0,1.3634732352584251
63857.82906266338,161642.0,143541.0,16124.0,1.3735730369953671
63857.83916246513,161683.0,143567.0,16131.0,1.3836728387395851
63857.84926226687,161674.0,143562.0,16151.0,1.3937726404838031
63857.859362068615,161672.0,143568.0,16149.0,1.403872442228021
63857.86946187036,161664.0,143574.0,16138.0,1.413972243972239
63857.879561672096,161699.0,143581.0,16129.0,1.4240720457091811
63857.88966147384,161722.0,143588.0,16175.0,1.434171847453399
63857.899761275585,161675.0,143562.0,16151.0,1.444271649197617
63857.90986107733,161707.0,143589.0,16165.0,1.454371450941835
63857.919960879066,161701.0,143588.0,16142.0,1.464471252678777
63857.93006068081,161721.0,143615.0,16159.0,1.474571054422995
63857.940160482554,161676.0,143561.0,16130.0,1.484670856167213
63857.9502602843,161650.0,143530.0,16128.0,1.494770657911431
63857.96036008604,161677.0,143572.0,16139.0,1.504870459655649
63857.97045988778,161669.0,143578.0,16117.0,1.514970261392591
63857.980559689524,161663.0,143539.0,16119.0,1.525070063136809
63857.99065949127,161614.0,143538.0,16112.0,1.535169864881027
63858.00075929301,161609.0,143550.0,16118.0,1.545269666625245
63858.01085909476,161579.0,143527.0,16113.0,1.555369468369463
63858.02095889649,161607.0,143543.0,16122.0,1.565469270106405
63858.03105869824,161558.0,143512.0,16098.0,1.575569071850623
63858.04115849998,161566.0,143525.0,16084.0,1.585668873594841
63858.051258301726,161548.0,143487.0,16072.0,1.595768675339059
63858.06135810346,161539.0,143492.0,16079.0,1.605868477076001
63858.07145790521,161580.0,143514.0,16102.0,1.615968278820219
63858.08155770695,161563.0,143527.0,16104.0,1.626068080564437
63858.091657508696,161585.0,143507.0,16104.0,1.636167882308655
63858.10175731044,161576.0,143529.0,16098.0,1.646267684052873
63858.11185711218,161532.0,143526.0,16073.0,1.656367485789815
63858.12195691392,161563.0,143528.0,16100.0,1.666467287534033
63858.132056715665,161605.0,143542.0,16085.0,1.676567089278251
63858.14215651741,161600.0,143533.0,16113.0,1.686666891022469
63858.152256319154,161568.0,143531.0,16087.0,1.696766692766687
63858.16235612089,161583.0,143527.0,16084.0,1.706866494503629
63858.172455922635,161572.0,143556.0,16100.0,1.716966296247847
63858.18255572438,161593.0,143506.0,16099.0,1.727066097992065
63858.19265552612,161567.0,143516.0,16091.0,1.7371658997362829
63858.20275532786,161589.0,143538.0,16090.0,1.747265701473225
63858.212855129605,161563.0,143509.0,16105.0,1.757365503217443
63858.22295493135,161574.0,143508.0,16095.0,1.7674653049616609
63858.23305473309,161555.0,143551.0,16109.0,1.7775651067058789
63858.24315453484,161586.0,143532.0,16095.0,1.7876649084500968
63858.253254336574,161589.0,143523.0,16114.0,1.7977647101870389
63858.26335413832,161609.0,143554.0,16091.0,1.8078645119312569
63858.27345394006,161560.0,143525.0,16100.0,1.8179643136754748
63858.28355374181,161562.0,143513.0,16100.0,1.8280641154196928
63858.29365354355,161598.0,143530.0,16106.0,1.8381639171639108
63858.30375334529,161569.0,143523.0,16119.0,1.8482637189008528
63858.31385314703,161614.0,143552.0,16106.0,1.8583635206450708
63858.32395294878,161577.0,143507.0,16108.0,1.8684633223892888
63858.33405275052,161582.0,143527.0,16110.0,1.8785631241335068
63858.34415255226,161559.0,143495.0,16098.0,1.8886629258704488
63858.354252354,161595.0,143536.0,16103.0,1.8987627276146668
63858.364352155746,161580.0,143500.0,16088.0,1.9088625293588848
63858.37445195749,161591.0,143531.0,16111.0,1.9189623311031028
63858.384551759234,161590.0,143511.0,16094.0,1.9290621328473208
63858.39465156097,161577.0,143509.0,16099.0,1.9391619345842628
63858.404751362716,161564.0,143499.0,16088.0,1.9492617363284808
63858.41485116446,161597.0,143528.0,16114.0,1.9593615380726987
63858.424950966204,161613.0,143559.0,16095.0,1.9694613398169167
63858.43505076795,161614.0,143537.0,16106.0,1.9795611415611347
63858.445150569685,161602.0,143519.0,16105.0,1.9896609432980767
63858.45525037143,161607.0,143534.0,16115.0,1.9997607450422947
63858.465350173174,161585.0,143511.0,16116.0,2.0098605467865127
63858.47544997492,161593.0,143514.0,16099.0,2.0199603485307307
63858.485549776655,161611.0,143536.0,16109.0,2.0300601502676727
63858.4956495784,161600.0,143542.0,16130.0,2.0401599520118907
63858.50574938014,161600.0,143558.0,16137.0,2.0502597537561087
63858.51584918189,161604.0,143519.0,16109.0,2.0603595555003267
63858.52594898363,161604.0,143570.0,16137.0,2.0704593572445447
63858.53604878537,161622.0,143556.0,16127.0,2.0805591589814867
63858.54614858711,161651.0,143546.0,16138.0,2.0906589607257047
63858.55624838886,161639.0,143550.0,16089.0,2.1007587624699227
63858.5663481906,161624.0,143510.0,16121.0,2.1108585642141406
63858.576447992345,161632.0,143545.0,16131.0,2.1209583659583586
63858.58654779408,161635.0,143535.0,16133.0,2.1310581676953007
63858.59664759583,161602.0,143539.0,16133.0,2.1411579694395186
63858.60674739757,161661.0,143566.0,16159.0,2.1512577711837366
63858.616847199315,161631.0,143528.0,16132.0,2.1613575729279546
63858.62694700105,161648.0,143525.0,16148.0,2.1714573746648966
63858.637046802796,161642.0,143529.0,16140.0,2.1815571764091146
63858.64714660454,161623.0,143533.0,16135.0,2.1916569781533326
63858.657246406285,161639.0,143558.0,16142.0,2.2017567798975506
63858.66734620803,161678.0,143572.0,16134.0,2.2118565816417686
63858.677446009766,161681.0,143571.0,16155.0,2.2219563833787106
63858.68754581151,161669.0,143583.0,16141.0,2.2320561851229286
63858.697645613254,161647.0,143562.0,16127.0,2.2421559868671466
63858.707745415,161678.0,143546.0,16149.0,2.2522557886113646
63858.71784521674,161683.0,143566.0,16157.0,2.2623555903555825
63858.72794501848,161635.0,143557.0,16125.0,2.2724553920925246
63858.738044820224,161674.0,143547.0,16135.0,2.2825551938367425
63858.74814462197,161669.0,143591.0,16180.0,2.2926549955809605
63858.75824442371,161624.0,143526.0,16141.0,2.3027547973251785
63858.76834422545,161679.0,143575.0,16151.0,2.3128545990621205
63858.77844402719,161682.0,143581.0,16124.0,2.3229544008063385
63858.78854382894,161641.0,143538.0,16149.0,2.3330542025505565
63858.79864363068,161620.0,143513.0,16112.0,2.3431540042947745
63858.808743432426,161587.0,143503.0,16114.0,2.3532538060389925
63858.81884323416,161566.0,143541.0,16126.0,2.3633536077759345
63858.82894303591,161563.0,143512.0,16109.0,2.3734534095201525
63858.83904283765,161545.0,143506.0,16090.0,2.3835532112643705
63858.849142639396,161558.0,143505.0,16071.0,2.3936530130085885
63858.85924244114,161569.0,143507.0,16119.0,2.4037528147528064
63858.86934224288,161545.0,143492.0,16098.0,2.4138526164897485
63858.87944204462,161503.0,143521.0,16065.0,2.4239524182339665
63858.889541846365,161518.0,143467.0,16062.0,2.4340522199781844
63858.89964164811,161537.0,143502.0,16112.0,2.4441520217224024
63858.90974144985,161528.0,143494.0,16081.0,2.4542518234593445
63858.91984125159,161520.0,143476.0,16087.0,2.4643516252035624
63858.929941053335,161564.0,143505.0,16116.0,2.4744514269477804
63858.94004085508,161515.0,143473.0,16117.0,2.4845512286919984
63858.95014065682,161545.0,143503.0,16087.0,2.4946510304362164
63858.96024045856,161558.0,143500.0,16092.0,2.5047508321731584
63858.970340260305,161524.0,143484.0,16079.0,2.5148506339173764
63858.98044006205,161552.0,143495.0,16100.0,2.5249504356615944
63858.99053986379,161561.0,143513.0,16101.0,2.5350502374058124
63859.00063966554,161556.0,143499.0,16119.0,2.5451500391500304
63859.010739467274,161506.0,143490.0,16095.0,2.5552498408869724
63859.02083926902,161578.0,143496.0,16091.0,2.5653496426311904
63859.03093907076,161575.0,143528.0,16099.0,2.5754494443754083
63859.04103887251,161594.0,143509.0,16139.0,2.5855492461196263
63859.051138674244,161552.0,143482.0,16120.0,2.5956490478565684
63859.06123847599,161572.0,143520.0,16115.0,2.6057488496007863
63859.07133827773,161580.0,143518.0,16112.0,2.6158486513450043
63859.081438079476,161594.0,143509.0,16118.0,2.6259484530892223
63859.09153788122,161582.0,143508.0,16137.0,2.6360482548334403
63859.10163768296,161604.0,143514.0,16132.0,2.6461480565703823
63859.1117374847,161562.0,143520.0,16116.0,2.6562478583146003
63859.121837286446,161588.0,143514.0,16106.0,2.6663476600588183
63859.13193708819,161527.0,143498.0,16093.0,2.6764474618030363
63859.142036889934,161587.0,143523.0,16095.0,2.6865472635472543
63859.15213669167,161566.0,143495.0,16121.0,2.6966470652841963
63859.162236493416,161568.0,143526.0,16112.0,2.7067468670284143
63859.17233629516,161535.0,143500.0,16103.0,2.7168466687726323
63859.182436096904,161538.0,143533.0,16127.0,2.7269464705168502
63859.19253589864,161551.0,143510.0,16088.0,2.7370462722537923
63859.202635700385,161567.0,143511.0,16115.0,2.7471460739980103
63859.21273550213,161567.0,143515.0,16086.0,2.7572458757422282
63859.22283530387,161585.0,143536.0,16122.0,2.767345677486446
63859.23293510562,161544.0,143496.0,16097.0,2.777445479230664
63859.243034907355,161578.0,143495.0,16117.0,2.7875452809676062
63859.2531347091,161550.0,143526.0,16121.0,2.797645082711824
63859.26323451084,161582.0,143536.0,16130.0,2.807744884456042
63859.27333431259,161580.0,143511.0,16111.0,2.81784468620026
63859.28343411433,161584.0,143517.0,16116.0,2.827944487944478
63859.29353391607,161568.0,143521.0,16128.0,2.83804428968142
63859.30363371781,161547.0,143484.0,16139.0,2.848144091425638
63859.31373351956,161566.0,143511.0,16111.0,2.858243893169856
63859.3238333213,161593.0,143534.0,16129.0,2.868343694914074
63859.33393312304,161631.0,143530.0,16152.0,2.878443496651016
63859.34403292478,161577.0,143500.0,16137.0,2.888543298395234
63859.35413272653,161602.0,143532.0,16153.0,2.898643100139452
63859.36423252827,161605.0,143530.0,16138.0,2.90874290188367
63859.374332330015,161593.0,143559.0,16148.0,2.918842703627888
63859.38443213175,161608.0,143498.0,16118.0,2.92894250536483
63859.394531933496,161597.0,143530.0,16124.0,2.939042307109048
63859.40463173524,161614.0,143529.0,16131.0,2.949142108853266
63859.414731536985,161582.0,143473.0,16113.0,2.959241910597484
63859.42483133873,161584.0,143489.0,16127.0,2.969341712341702
63859.434931140466,161624.0,143535.0,16138.0,2.979441514078644
63859.44503094221,161614.0,143526.0,16127.0,2.989541315822862
63859.455130743954,161604.0,143516.0,16134.0,2.99964111756708
63859.4652305457,161628.0,143532.0,16134.0,3.009740919311298
63859.475330347435,161611.0,143507.0,16148.0,3.01984072104824
63859.48543014918,161612.0,143525.0,16136.0,3.029940522792458
63859.495529950924,161611.0,143504.0,16109.0,3.040040324536676
63859.50562975267,161646.0,143555.0,16151.0,3.050140126280894
63859.51572955441,161631.0,143546.0,16177.0,3.060239928025112
63859.52582935615,161621.0,143519.0,16134.0,3.070339729762054
63859.53592915789,161618.0,143522.0,16125.0,3.080439531506272
63859.54602895964,161659.0,143559.0,16168.0,3.09053933325049
63859.55612876138,161612.0,143508.0,16140.0,3.100639134994708
63859.566228563126,161622.0,143537.0,16146.0,3.110738936738926
63859.57632836486,161626.0,143528.0,16127.0,3.120838738475868
63859.58642816661,161638.0,143541.0,16156.0,3.130938540220086
63859.59652796835,161625.0,143532.0,16157.0,3.141038341964304
63859.606627770096,161587.0,143518.0,16124.0,3.151138143708522
63859.61672757183,161561.0,143535.0,16117.0,3.161237945445464
63859.62682737358,161557.0,143473.0,16142.0,3.171337747189682
63859.63692717532,161512.0,143477.0,16126.0,3.1814375489339
63859.647026977065,161509.0,143493.0,16102.0,3.191537350678118
63859.65712677881,161503.0,143495.0,16102.0,3.201637152422336
63859.66722658055,161525.0,143498.0,16100.0,3.211736954159278
63859.67732638229,161473.0,143505.0,16087.0,3.221836755903496
63859.687426184035,161542.0,143477.0,16121.0,3.231936557647714
63859.69752598578,161485.0,143494.0,16086.0,3.242036359391932
63859.70762578752,161471.0,143469.0,16075.0,3.25213616113615
63859.71772558926,161484.0,143459.0,16088.0,3.262235962873092
63859.727825391004,161453.0,143463.0,16108.0,3.27233576461731
63859.73792519275,161490.0,143486.0,16086.0,3.282435566361528
63859.74802499449,161509.0,143474.0,16100.0,3.292535368105746
63859.75812479623,161502.0,143515.0,16109.0,3.302635169842688
63859.768224597974,161502.0,143459.0,16108.0,3.312734971586906
63859.77832439972,161509.0,143487.0,16098.0,3.322834773331124
63859.78842420146,161521.0,143460.0,16099.0,3.332934575075342
63859.79852400321,161487.0,143455.0,16088.0,3.34303437681956
63859.80862380494,161505.0,143468.0,16085.0,3.353134178556502
63859.81872360669,161501.0,143476.0,16098.0,3.36323398030072
63859.82882340843,161514.0,143490.0,16096.0,3.373333782044938
63859.838923210176,161542.0,143520.0,16130.0,3.383433583789156
63859.84902301192,161498.0,143467.0,16080.0,3.393533385533374
63859.85912281366,161516.0,143503.0,16110.0,3.403633187270316
63859.8692226154,161544.0,143515.0,16089.0,3.413732989014534
63859.879322417146,161522.0,143499.0,16128.0,3.423832790758752
63859.88942221889,161525.0,143500.0,16104.0,3.43393259250297
63859.89952202063,161514.0,143484.0,16095.0,3.444032394239912
63859.90962182237,161496.0,143520.0,16109.0,3.45413219598413
63859.919721624115,161519.0,143494.0,16096.0,3.464231997728348
63859.92982142586,161513.0,143477.0,16079.0,3.4743317994725658
63859.939921227604,161497.0,143495.0,16105.0,3.4844316012167837
63859.95002102934,161490.0,143489.0,16090.0,3.4945314029537258
63859.960120831085,161467.0,143448.0,16100.0,3.5046312046979438
63859.97022063283,161529.0,143495.0,16129.0,3.5147310064421617
63859.98032043457,161511.0,143504.0,16105.0,3.5248308081863797
63859.99042023632,161499.0,143486.0,16098.0,3.5349306099305977
63860.000520038055,161507.0,143465.0,16109.0,3.5450304116675397
63860.0106198398,161545.0,143511.0,16131.0,3.5551302134117577
63860.02071964154,161528.0,143496.0,16109.0,3.5652300151559757
63860.03081944329,161555.0,143516.0,16134.0,3.5753298169001937
63860.040919245024,161507.0,143481.0,16087.0,3.5854296186371357
63860.05101904677,161563.0,143513.0,16134.0,3.5955294203813537
63860.06111884851,161528.0,143491.0,16119.0,3.6056292221255717
63860.07121865026,161515.0,143467.0,16108.0,3.6157290238697897
63860.081318452,161527.0,143488.0,16116.0,3.6258288256140077
63860.09141825374,161505.0,143493.0,16130.0,3.6359286273509497
63860.10151805548,161526.0,143478.0,16090.0,3.6460284290951677
63860.11161785723,161506.0,143496.0,16131.0,3.6561282308393857
63860.12171765897,161544.0,143504.0,16109.0,3.6662280325836036
63860.131817460715,161560.0,143479.0,16126.0,3.6763278343278216
63860.14191726245,161527.0,143509.0,16103.0,3.6864276360647636
63860.152017064196,161545.0,143481.0,16122.0,3.6965274378089816
63860.16211686594,161567.0,143514.0,16131.0,3.7066272395531996
63860.172216667685,161553.0,143471.0,16120.0,3.7167270412974176
63860.18231646942,161563.0,143501.0,16143.0,3.7268268430343596
63860.192416271166,161567.0,143505.0,16127.0,3.7369266447785776
63860.20251607291,161567.0,143520.0,16125.0,3.7470264465227956
63860.212615874654,161526.0,143478.0,16113.0,3.7571262482670136
63860.2227156764,161546.0,143491.0,16101.0,3.7672260500112316
63860.232815478135,161556.0,143494.0,16120.0,3.7773258517481736
63860.24291527988,161548.0,143522.0,16150.0,3.7874256534923916
63860.253015081624,161542.0,143485.0,16110.0,3.7975254552366096
63860.26311488337,161547.0,143538.0,16127.0,3.8076252569808275
63860.27321468511,161567.0,143522.0,16125.0,3.8177250587250455
63860.28331448685,161599.0,143536.0,16147.0,3.8278248604619876
63860.29341428859,161599.0,143543.0,16116.0,3.8379246622062055
63860.30351409034,161573.0,143535.0,16162.0,3.8480244639504235
63860.31361389208,161587.0,143529.0,16144.0,3.8581242656946415
63860.32371369382,161563.0,143540.0,16153.0,3.8682240674315835
63860.33381349556,161571.0,143527.0,16112.0,3.8783238691758015
63860.34391329731,161621.0,143547.0,16164.0,3.8884236709200195
63860.35401309905,161577.0,143507.0,16159.0,3.8985234726642375
63860.364112900796,161565.0,143504.0,16159.0,3.9086232744084555
63860.37421270253,161610.0,143513.0,16134.0,3.9187230761453975
63860.38431250428,161566.0,143517.0,16140.0,3.9288228778896155
63860.39441230602,161604.0,143527.0,16142.0,3.9389226796338335
63860.404512107765,161576.0,143533.0,16139.0,3.9490224813780515
63860.41461190951,161636.0,143537.0,16166.0,3.9591222831222694
63860.424711711246,161593.0,143509.0,16156.0,3.9692220848592115
63860.43481151299,161571.0,143510.0,16142.0,3.9793218866034294
63860.444911314735,161559.0,143483.0,16112.0,3.9894216883476474
63860.45501111648,161533.0,143505.0,16143.0,3.9995214900918654
63860.465110918216,161515.0,143480.0,16097.0,4.009621291828807
63860.47521071996,161511.0,143476.0,16112.0,4.019721093573025
63860.485310521704,161497.0,143488.0,16090.0,4.029820895317243
63860.49541032345,161458.0,143452.0,16115.0,4.039920697061461
63860.50551012519,161433.0,143443.0,16072.0,4.050020498805679
63860.51560992693,161471.0,143463.0,16093.0,4.060120300542621
63860.525709728674,161487.0,143501.0,16092.0,4.070220102286839
63860.53580953042,161482.0,143492.0,16112.0,4.080319904031057
63860.54590933216,161440.0,143423.0,16060.0,4.090419705775275
63860.55600913391,161467.0,143464.0,16085.0,4.100519507519493
63860.56610893564,161465.0,143486.0,16097.0,4.110619309256435
63860.57620873739,161453.0,143442.0,16071.0,4.120719111000653
63860.58630853913,161471.0,143465.0,16066.0,4.130818912744871
63860.596408340876,161478.0,143464.0,16107.0,4.140918714489089
63860.60650814261,161473.0,143484.0,16096.0,4.151018516226031
63860.61660794436,161456.0,143475.0,16066.0,4.161118317970249
63860.6267077461,161461.0,143490.0,16087.0,4.171218119714467
63860.636807547846,161505.0,143482.0,16122.0,4.181317921458685
63860.64690734959,161487.0,143498.0,16103.0,4.191417723202903
63860.65700715133,161476.0,143440.0,16094.0,4.201517524939845
63860.66710695307,161487.0,143465.0,16104.0,4.211617326684063
63860.677206754815,161507.0,143528.0,16125.0,4.221717128428281
63860.68730655656,161500.0,143491.0,16111.0,4.231816930172499
63860.697406358304,161477.0,143480.0,16102.0,4.241916731916717
63860.70750616004,161518.0,143509.0,16120.0,4.252016533653659
63860.717605961785,161524.0,143499.0,16080.0,4.262116335397877
63860.72770576353,161498.0,143490.0,16097.0,4.272216137142095
63860.73780556527,161484.0,143497.0,16098.0,4.282315938886313
63860.74790536701,161519.0,143499.0,16126.0,4.292415740623255
63860.758005168755,161507.0,143436.0,16110.0,4.302515542367473
63860.7681049705,161492.0,143465.0,16109.0,4.312615344111691
63860.77820477224,161521.0,143494.0,16133.0,4.322715145855909
63860.78830457399,161484.0,143458.0,16110.0,4.332814947600127
63860.798404375724,161487.0,143454.0,16094.0,4.342914749337069
63860.80850417747,161503.0,143492.0,16100.0,4.353014551081287
63860.81860397921,161510.0,143509.0,16071.0,4.363114352825505
63860.82870378096,161490.0,143463.0,16099.0,4.373214154569723
63860.838803582694,161490.0,143450.0,16087.0,4.383313956306665
63860.84890338444,161501.0,143479.0,16103.0,4.393413758050883
63860.85900318618,161503.0,143506.0,16104.0,4.403513559795101
63860.86910298793,161488.0,143501.0,16103.0,4.413613361539319
63860.87920278967,161520.0,143480.0,16087.0,4.423713163283537
63860.88930259141,161517.0,143471.0,16123.0,4.433812965020479
63860.89940239315,161489.0,143497.0,16123.0,4.443912766764697
63860.909502194896,161496.0,143484.0,16107.0,4.454012568508915
63860.91960199664,161513.0,143478.0,16103.0,4.464112370253133
63860.929701798384,161509.0,143493.0,16125.0,4.474212171997351
63860.93980160012,161521.0,143497.0,16111.0,4.484311973734293
63860.949901401866,161503.0,143472.0,16112.0,4.494411775478511
63860.96000120361,161541.0,143498.0,16115.0,4.504511577222729
63860.970101005354,161519.0,143489.0,16126.0,4.514611378966947
63860.9802008071,161518.0,143503.0,16118.0,4.524711180711165
63860.990300608835,161508.0,143506.0,16099.0,4.534810982448107
63861.00040041058,161544.0,143484.0,16131.0,4.544910784192325
63861.010500212324,161534.0,143504.0,16121.0,4.555010585936543
63861.02060001407,161504.0,143503.0,16133.0,4.565110387680761
63861.030699815805,161551.0,143514.0,16144.0,4.575210189417703
63861.04079961755,161553.0,143510.0,16141.0,4.585309991161921
63861.05089941929,161547.0,143506.0,16115.0,4.595409792906139
63861.06099922104,161535.0,143516.0,16124.0,4.605509594650357
63861.07109902278,161575.0,143527.0,16153.0,4.615609396394575
63861.08119882452,161529.0,143487.0,16146.0,4.625709198131517
63861.09129862626,161521.0,143513.0,16100.0,4.635808999875735
63861.10139842801,161573.0,143485.0,16134.0,4.645908801619953
63861.11149822975,161549.0,143501.0,16141.0,4.656008603364171
63861.12159803149,161519.0,143508.0,16124.0,4.666108405101113
63861.13169783323,161544.0,143512.0,16140.0,4.676208206845331
63861.14179763498,161561.0,143513.0,16136.0,4.686308008589549
63861.15189743672,161556.0,143555.0,16120.0,4.696407810333767
63861.161997238465,161532.0,143486.0,16111.0,4.706507612077985
63861.1720970402,161538.0,143517.0,16155.0,4.716607413814927
63861.182196841946,161561.0,143519.0,16144.0,4.726707215559145
63861.19229664369,161565.0,143518.0,16165.0,4.736807017303363
63861.202396445435,161577.0,143499.0,16139.0,4.746906819047581
63861.21249624718,161556.0,143538.0,16142.0,4.757006620791799
63861.222596048916,161586.0,143520.0,16131.0,4.767106422528741
63861.23269585066,161562.0,143502.0,16107.0,4.777206224272959
63861.242795652404,161604.0,143488.0,16171.0,4.787306026017177
63861.25289545415,161583.0,143491.0,16139.0,4.797405827761395
63861.26299525589,161587.0,143527.0,16136.0,4.807505629505613
63861.27309505763,161604.0,143524.0,16155.0,4.817605431242555
63861.283194859374,161574.0,143523.0,16134.0,4.827705232986773
63861.29329466112,161575.0,143535.0,16157.0,4.837805034730991
63861.30339446286,161531.0,143493.0,16131.0,4.847904836475209
63861.3134942646,161516.0,143494.0,16103.0,4.858004638212151
63861.32359406634,161467.0,143492.0,16084.0,4.868104439956369
63861.33369386809,161471.0,143458.0,16092.0,4.878204241700587
63861.34379366983,161469.0,143471.0,16100.0,4.888304043444805
63861.353893471576,161436.0,143470.0,16083.0,4.898403845189023
63861.36399327331,161454.0,143465.0,16089.0,4.908503646925965
63861.37409307506,161446.0,143463.0,16075.0,4.918603448670183
63861.3841928768,161460.0,143466.0,16099.0,4.928703250414401
63861.394292678546,161443.0,143432.0,16086.0,4.938803052158619
63861.40439248028,161454.0,143478.0,16102.0,4.948902853895561
63861.41449228203,161468.0,143441.0,16084.0,4.959002655639779
63861.42459208377,161439.0,143443.0,16094.0,4.969102457383997
63861.434691885515,161473.0,143455.0,16117.0,4.979202259128215
63861.44479168726,161434.0,143478.0,16095.0,4.989302060872433
63861.454891489,161443.0,143461.0,16090.0,4.999401862609375
63861.46499129074,161477.0,143479.0,16101.0,5.009501664353593
63861.475091092485,161475.0,143483.0,16110.0,5.019601466097811
63861.48519089423,161493.0,143469.0,16102.0,5.029701267842029
63861.49529069597,161501.0,143476.0,16118.0,5.039801069586247
63861.50539049771,161483.0,143484.0,16107.0,5.049900871323189
63861.515490299455,161492.0,143463.0,16119.0,5.060000673067407
63861.5255901012,161497.0,143515.0,16126.0,5.070100474811625
63861.53568990294,161468.0,143503.0,16118.0,5.080200276555843
63861.54578970469,161487.0,143492.0,16123.0,5.090300078300061
63861.555889506424,161448.0,143510.0,16095.0,5.100399880037003
63861.56598930817,161514.0,143510.0,16097.0,5.110499681781221
63861.57608910991,161461.0,143471.0,16099.0,5.120599483525439
63861.58618891166,161517.0,143474.0,16138.0,5.130699285269657
63861.596288713394,161486.0,143507.0,16111.0,5.140799087006599
63861.60638851514,161464.0,143511.0,16095.0,5.150898888750817
63861.61648831688,161505.0,143498.0,16128.0,5.160998690495035
63861.62658811863,161489.0,143477.0,16098.0,5.171098492239253
63861.63668792037,161500.0,143512.0,16100.0,5.181198293983471
63861.64678772211,161477.0,143510.0,16107.0,5.191298095720413
63861.65688752385,161472.0,143491.0,16096.0,5.201397897464631
63861.666987325596,161477.0,143523.0,16148.0,5.211497699208849
63861.67708712734,161489.0,143492.0,16104.0,5.221597500953067
63861.68718692908,161493.0,143491.0,16110.0,5.231697302690009
63861.69728673082,161487.0,143484.0,16082.0,5.241797104434227
63861.707386532566,161502.0,143503.0,16121.0,5.251896906178445
63861.71748633431,161486.0,143477.0,16119.0,5.261996707922663
63861.727586136054,161497.0,143495.0,16122.0,5.272096509666881
63861.73768593779,161481.0,143474.0,16116.0,5.282196311403823
63861.747785739535,161499.0,143483.0,16114.0,5.292296113148041
63861.75788554128,161513.0,143500.0,16117.0,5.302395914892259
63861.76798534302,161503.0,143484.0,16117.0,5.312495716636477
63861.77808514477,161513.0,143478.0,16126.0,5.322595518380695
63861.788184946505,161490.0,143483.0,16130.0,5.332695320117637
63861.79828474825,161521.0,143502.0,16123.0,5.342795121861855
63861.80838454999,161533.0,143478.0,16127.0,5.3528949236060726
63861.81848435174,161500.0,143481.0,16102.0,5.3629947253502905
63861.828584153474,161488.0,143463.0,16141.0,5.373094527087233
63861.83868395522,161517.0,143504.0,16127.0,5.3831943288314505
63861.84878375696,161502.0,143488.0,16134.0,5.3932941305756685
63861.85888355871,161546.0,143515.0,16141.0,5.4033939323198865
63861.86898336045,161507.0,143475.0,16120.0,5.4134937340641045
63861.87908316219,161522.0,143511.0,16126.0,5.4235935358010465
63861.88918296393,161535.0,143512.0,16133.0,5.4336933375452645
63861.89928276568,161551.0,143519.0,16136.0,5.4437931392894825
63861.90938256742,161501.0,143495.0,16103.0,5.4538929410337005
63861.919482369165,161542.0,143499.0,16126.0,5.4639927427779185
63861.9295821709,161522.0,143499.0,16128.0,5.4740925445148605
63861.939681972646,161551.0,143530.0,16168.0,5.4841923462590785
63861.94978177439,161542.0,143529.0,16127.0,5.4942921480032965
63861.959881576135,161531.0,143506.0,16143.0,5.5043919497475144
63861.96998137787,161514.0,143523.0,16142.0,5.5144917514844565
63861.980081179616,161526.0,143518.0,16132.0,5.5245915532286745
63861.99018098136,161550.0,143531.0,16109.0,5.534691354972892
63862.000280783104,161576.0,143515.0,16145.0,5.54479115671711
63862.01038058485,161571.0,143551.0,16136.0,5.554890958461328
63862.020480386585,161587.0,143546.0,16153.0,5.56499076019827
63862.03058018833,161543.0,143550.0,16138.0,5.575090561942488
63862.040679990074,161556.0,143530.0,16136.0,5.585190363686706
63862.05077979182,161544.0,143496.0,16148.0,5.595290165430924
63862.06087959356,161560.0,143510.0,16134.0,5.605389967175142
63862.0709793953,161586.0,143533.0,16154.0,5.615489768912084
63862.08107919704,161556.0,143512.0,16148.0,5.625589570656302
63862.09117899879,161547.0,143512.0,16127.0,5.63568937240052
63862.10127880053,161532.0,143500.0,16152.0,5.645789174144738
63862.11137860227,161568.0,143534.0,16153.0,5.65588897588168
63862.12147840401,161556.0,143528.0,16119.0,5.665988777625898
63862.13157820576,161508.0,143503.0,16121.0,5.676088579370116
63862.1416780075,161497.0,143479.0,16120.0,5.686188381114334
63862.151777809246,161514.0,143513.0,16120.0,5.696288182858552
63862.16187761098,161484.0,143467.0,16071.0,5.706387984595494
63862.17197741273,161467.0,143478.0,16086.0,5.716487786339712
63862.18207721447,161496.0,143482.0,16100.0,5.72658758808393
63862.192177016215,161485.0,143463.0,16122.0,5.736687389828148
63862.20227681796,161455.0,143475.0,16078.0,5.746787191572366
63862.2123766197,161468.0,143485.0,16095.0,5.756886993309308
63862.22247642144,161475.0,143509.0,16064.0,5.766986795053526
63862.232576223185,161473.0,143503.0,16125.0,5.777086596797744
63862.24267602493,161464.0,143475.0,16084.0,5.787186398541962
63862.252775826666,161476.0,143499.0,16098.0,5.797286200278904
63862.26287562841,161491.0,143505.0,16099.0,5.807386002023122
63862.272975430154,161469.0,143470.0,16077.0,5.81748580376734
63862.2830752319,161505.0,143511.0,16090.0,5.827585605511558
63862.29317503364,161495.0,143492.0,16102.0,5.837685407255776
63862.30327483538,161489.0,143512.0,16106.0,5.847785208992718
63862.313374637124,161491.0,143498.0,16093.0,5.857885010736936
63862.32347443887,161488.0,143506.0,16134.0,5.867984812481154
63862.33357424061,161512.0,143497.0,16108.0,5.878084614225372
63862.34367404236,161500.0,143513.0,16142.0,5.88818441596959
63862.353773844094,161541.0,143515.0,16110.0,5.898284217706532
63862.36387364584,161518.0,143526.0,16136.0,5.90838401945075
63862.37397344758,161511.0,143512.0,16115.0,5.918483821194968
63862.384073249326,161471.0,143493.0,16113.0,5.928583622939186
63862.39417305106,161498.0,143508.0,16108.0,5.938683424676128
63862.40427285281,161548.0,143512.0,16149.0,5.948783226420346
63862.41437265455,161512.0,143514.0,16123.0,5.958883028164564
63862.424472456296,161492.0,143479.0,16123.0,5.968982829908782
63862.43457225804,161519.0,143518.0,16145.0,5.979082631653
63862.44467205978,161476.0,143493.0,16135.0,5.989182433389942
63862.45477186152,161505.0,143498.0,16108.0,5.99928223513416
63862.464871663266,161482.0,143495.0,16136.0,6.009382036878378
63862.47497146501,161533.0,143496.0,16124.0,6.019481838622596
63862.485071266754,161521.0,143497.0,16116.0,6.029581640366814
63862.49517106849,161477.0,143482.0,16080.0,6.039681442103756
63862.505270870235,161520.0,143473.0,16119.0,6.049781243847974
63862.51537067198,161523.0,143528.0,16151.0,6.059881045592192
63862.52547047372,161493.0,143498.0,16101.0,6.06998084733641
63862.53557027546,161535.0,143522.0,16117.0,6.080080649073352
63862.545670077205,161518.0,143517.0,16118.0,6.09018045081757
63862.55576987895,161523.0,143513.0,16134.0,6.100280252561788
63862.56586968069,161495.0,143497.0,16104.0,6.110380054306006
63862.57596948244,161542.0,143528.0,16104.0,6.120479856050224
63862.586069284174,161517.0,143521.0,16130.0,6.130579657787166
63862.59616908592,161527.0,143521.0,16129.0,6.140679459531384
63862.60626888766,161527.0,143505.0,16115.0,6.150779261275602
63862.61636868941,161527.0,143537.0,16152.0,6.16087906301982
63862.62646849115,161506.0,143506.0,16104.0,6.170978864764038
63862.63656829289,161509.0,143505.0,16104.0,6.18107866650098
63862.64666809463,161512.0,143503.0,16148.0,6.191178468245198
63862.65676789638,161548.0,143535.0,16154.0,6.201278269989416
63862.66686769812,161557.0,143523.0,16131.0,6.211378071733634
63862.67696749986,161506.0,143529.0,16125.0,6.221477873470576
63862.6870673016,161510.0,143547.0,16138.0,6.231577675214794
63862.697167103346,161582.0,143535.0,16153.0,6.241677476959012
63862.70726690509,161567.0,143545.0,16136.0,6.25177727870323
63862.717366706835,161534.0,143524.0,16132.0,6.261877080447448
63862.72746650857,161589.0,143543.0,16150.0,6.27197688218439
63862.737566310316,161517.0,143515.0,16126.0,6.282076683928608
63862.74766611206,161551.0,143534.0,16151.0,6.292176485672826
63862.757765913804,161531.0,143569.0,16142.0,6.302276287417044
63862.76786571555,161578.0,143549.0,16169.0,6.312376089161262
63862.777965517285,161555.0,143500.0,16146.0,6.322475890898204
63862.78806531903,161561.0,143521.0,16143.0,6.332575692642422
63862.798165120774,161568.0,143536.0,16136.0,6.34267549438664
63862.80826492252,161593.0,143562.0,16153.0,6.352775296130858
63862.818364724255,161557.0,143530.0,16133.0,6.3628750978678
63862.828464526,161570.0,143530.0,16147.0,6.372974899612018
63862.83856432774,161574.0,143524.0,16169.0,6.383074701356236
63862.84866412949,161572.0,143551.0,16165.0,6.393174503100454
63862.85876393123,161548.0,143493.0,16134.0,6.403274304844672
63862.86886373297,161522.0,143518.0,16130.0,6.413374106581614
63862.87896353471,161526.0,143527.0,16118.0,6.423473908325832
63862.88906333646,161468.0,143475.0,16111.0,6.43357371007005
63862.8991631382,161463.0,143482.0,16106.0,6.443673511814268
63862.909262939946,161457.0,143494.0,16109.0,6.453773313558486
63862.91936274168,161472.0,143482.0,16099.0,6.463873115295428
63862.92946254343,161422.0,143486.0,16092.0,6.473972917039646
63862.93956234517,161451.0,143498.0,16075.0,6.484072718783864
63862.949662146915,161450.0,143474.0,16112.0,6.494172520528082
63862.95976194865,161441.0,143462.0,16113.0,6.504272322265024
63862.9698617504,161443.0,143475.0,16075.0,6.514372124009242
63862.97996155214,161426.0,143483.0,16083.0,6.52447192575346
63862.990061353885,161493.0,143491.0,16120.0,6.534571727497678
63863.00016115563,161460.0,143516.0,16105.0,6.544671529241896
63863.010260957366,161465.0,143472.0,16115.0,6.554771330978838
63863.02036075911,161439.0,143472.0,16086.0,6.564871132723056
63863.030460560854,161491.0,143529.0,16129.0,6.574970934467274
63863.0405603626,161471.0,143506.0,16109.0,6.585070736211492
63863.05066016434,161480.0,143476.0,16118.0,6.59517053795571
63863.06075996608,161481.0,143499.0,16116.0,6.605270339692652
63863.070859767824,161469.0,143500.0,16087.0,6.61537014143687
63863.08095956957,161478.0,143509.0,16106.0,6.625469943181088
63863.09105937131,161468.0,143462.0,16107.0,6.635569744925306
63863.10115917305,161486.0,143471.0,16124.0,6.645669546662248
63863.11125897479,161480.0,143491.0,16087.0,6.655769348406466
63863.12135877654,161496.0,143504.0,16111.0,6.665869150150684
63863.13145857828,161480.0,143497.0,16127.0,6.675968951894902
63863.141558380026,161491.0,143489.0,16138.0,6.68606875363912
63863.15165818176,161475.0,143463.0,16105.0,6.696168555376062
63863.16175798351,161489.0,143519.0,16123.0,6.70626835712028
63863.17185778525,161502.0,143520.0,16105.0,6.716368158864498
63863.181957586996,161474.0,143470.0,16118.0,6.726467960608716
63863.19205738874,161471.0,143488.0,16108.0,6.736567762352934
63863.20215719048,161477.0,143502.0,16113.0,6.746667564089876
63863.21225699222,161471.0,143512.0,16116.0,6.756767365834094
63863.222356793965,161452.0,143502.0,16106.0,6.766867167578312
63863.23245659571,161476.0,143503.0,16092.0,6.77696696932253
63863.24255639745,161475.0,143500.0,16117.0,6.787066771059472
63863.25265619919,161460.0,143522.0,16146.0,6.79716657280369
63863.262756000935,161453.0,143481.0,16097.0,6.807266374547908
63863.27285580268,161497.0,143525.0,16130.0,6.817366176292126
63863.28295560442,161491.0,143507.0,16119.0,6.827465978036344
63863.29305540616,161466.0,143471.0,16126.0,6.837565779773286
63863.303155207905,161473.0,143492.0,16111.0,6.847665581517504
63863.31325500965,161516.0,143502.0,16113.0,6.857765383261722
63863.32335481139,161486.0,143497.0,16121.0,6.86786518500594
63863.33345461314,161502.0,143524.0,16133.0,6.8779649867501575
63863.343554414874,161462.0,143505.0,16098.0,6.8880647884871
63863.35365421662,161490.0,143538.0,16146.0,6.898164590231318
63863.36375401836,161497.0,143506.0,16123.0,6.9082643919755355
63863.37385382011,161479.0,143483.0,16130.0,6.9183641937197535
63863.383953621844,161514.0,143518.0,16128.0,6.928463995456696
63863.39405342359,161513.0,143520.0,16138.0,6.9385637972009135
63863.40415322533,161511.0,143506.0,16124.0,6.9486635989451315
63863.41425302708,161493.0,143499.0,16148.0,6.9587634006893495
63863.42435282882,161528.0,143542.0,16158.0,6.9688632024335675
63863.43445263056,161504.0,143487.0,16133.0,6.9789630041705095
63863.4445524323,161485.0,143517.0,16105.0,6.9890628059147275
63863.454652234046,161508.0,143475.0,16122.0,6.9991626076589455
63863.46475203579,161527.0,143515.0,16115.0,7.0092624094031635
63863.474851837535,161469.0,143511.0,16115.0,7.0193622111473815
63863.48495163927,161489.0,143496.0,16121.0,7.0294620128843235
63863.495051441016,161516.0,143520.0,16130.0,7.0395618146285415
63863.50515124276,161542.0,143527.0,16138.0,7.0496616163727595
63863.515251044504,161502.0,143507.0,16117.0,7.059761418116977
63863.52535084624,161511.0,143514.0,16105.0,7.0698612198539195
63863.535450647985,161525.0,143518.0,16141.0,7.0799610215981374
63863.54555044973,161514.0,143544.0,16165.0,7.090060823342355
63863.555650251474,161509.0,143489.0,16123.0,7.100160625086573
63863.56575005322,161499.0,143535.0,16130.0,7.110260426830791
63863.575849854955,161511.0,143510.0,16137.0,7.120360228567733
63863.5859496567,161501.0,143505.0,16123.0,7.130460030311951
63863.59604945844,161526.0,143523.0,16118.0,7.140559832056169
63863.60614926019,161497.0,143504.0,16135.0,7.150659633800387
63863.61624906193,161458.0,143492.0,16116.0,7.160759435544605
63863.62634886367,161447.0,143499.0,16124.0,7.170859237281547
63863.63644866541,161411.0,143476.0,16081.0,7.180959039025765
63863.64654846716,161441.0,143486.0,16104.0,7.191058840769983
63863.6566482689,161412.0,143458.0,16086.0,7.201158642514201
63863.66674807064,161374.0,143439.0,16093.0,7.211258444251143
63863.67684787238,161391.0,143448.0,16089.0,7.221358245995361
63863.68694767413,161409.0,143483.0,16102.0,7.231458047739579
63863.69704747587,161411.0,143450.0,16112.0,7.241557849483797
63863.707147277615,161351.0,143461.0,16059.0,7.251657651228015
63863.71724707935,161395.0,143471.0,16086.0,7.261757452964957
63863.727346881096,161404.0,143473.0,16110.0,7.271857254709175
63863.73744668284,161413.0,143473.0,16099.0,7.281957056453393
63863.747546484585,161378.0,143437.0,16085.0,7.292056858197611
63863.75764628633,161433.0,143483.0,16107.0,7.302156659941829
63863.767746088066,161401.0,143454.0,16119.0,7.312256461678771
63863.77784588981,161426.0,143473.0,16097.0,7.322356263422989
63863.787945691554,161421.0,143459.0,16110.0,7.332456065167207
63863.7980454933,161413.0,143482.0,16118.0,7.342555866911425
63863.808145295036,161414.0,143464.0,16098.0,7.352655668648367
63863.81824509678,161426.0,143478.0,16099.0,7.362755470392585
63863.828344898524,161422.0,143503.0,16111.0,7.372855272136803
63863.83844470027,161428.0,143499.0,16119.0,7.382955073881021
63863.84854450201,161412.0,143454.0,16103.0,7.393054875625239
63863.85864430375,161428.0,143480.0,16087.0,7.403154677362181
63863.86874410549,161393.0,143494.0,16100.0,7.413254479106399
63863.87884390724,161408.0,143462.0,16085.0,7.423354280850617
63863.88894370898,161411.0,143470.0,16100.0,7.433454082594835
63863.899043510726,161418.0,143478.0,16136.0,7.443553884339053
63863.90914331246,161416.0,143489.0,16105.0,7.453653686075995
63863.91924311421,161399.0,143468.0,16116.0,7.463753487820213
63863.92934291595,161400.0,143468.0,16085.0,7.473853289564431
63863.939442717696,161419.0,143478.0,16122.0,7.483953091308649
63863.94954251943,161415.0,143499.0,16114.0,7.494052893045591
63863.95964232118,161426.0,143461.0,16098.0,7.504152694789809
63863.96974212292,161403.0,143423.0,16094.0,7.514252496534027
63863.979841924665,161442.0,143480.0,16125.0,7.524352298278245
63863.98994172641,161413.0,143484.0,16098.0,7.534452100022463
63864.00004152815,161390.0,143465.0,16099.0,7.544551901759405
63864.01014132989,161443.0,143489.0,16115.0,7.554651703503623
63864.020241131635,161427.0,143510.0,16127.0,7.564751505247841
63864.03034093338,161417.0,143482.0,16110.0,7.574851306992059
63864.04044073512,161421.0,143455.0,16100.0,7.584951108736277
63864.05054053686,161452.0,143500.0,16093.0,7.595050910473219
63864.060640338605,161452.0,143493.0,16141.0,7.605150712217437
63864.07074014035,161438.0,143488.0,16110.0,7.615250513961655
63864.08083994209,161435.0,143473.0,16129.0,7.625350315705873
63864.09093974383,161455.0,143497.0,16134.0,7.635450117442815
63864.101039545574,161438.0,143508.0,16124.0,7.645549919187033
63864.11113934732,161431.0,143470.0,16111.0,7.655649720931251
63864.12123914906,161451.0,143515.0,16111.0,7.665749522675469
63864.13133895081,161468.0,143513.0,16141.0,7.675849324419687
63864.141438752544,161429.0,143463.0,16128.0,7.685949126156629
63864.15153855429,161455.0,143485.0,16108.0,7.696048927900847
63864.16163835603,161439.0,143489.0,16125.0,7.706148729645065
63864.17173815778,161481.0,143502.0,16147.0,7.716248531389283
63864.18183795952,161425.0,143458.0,16128.0,7.726348333133501
63864.19193776126,161458.0,143504.0,16126.0,7.736448134870443
63864.202037563,161448.0,143501.0,16153.0,7.746547936614661
63864.212137364746,161467.0,143485.0,16104.0,7.756647738358879
63864.22223716649,161437.0,143487.0,16102.0,7.766747540103097
63864.23233696823,161476.0,143493.0,16122.0,7.776847341840039
63864.24243676997,161489.0,143474.0,16144.0,7.786947143584257
63864.252536571716,161448.0,143476.0,16138.0,7.797046945328475
63864.26263637346,161453.0,143457.0,16122.0,7.807146747072693
63864.272736175204,161466.0,143495.0,16121.0,7.817246548816911
63864.28283597694,161456.0,143508.0,16142.0,7.827346350553853
63864.292935778685,161440.0,143487.0,16123.0,7.837446152298071
63864.30303558043,161480.0,143524.0,16154.0,7.847545954042289
63864.313135382174,161484.0,143501.0,16138.0,7.857645755786507
63864.32323518392,161473.0,143480.0,16139.0,7.867745557530725
63864.333334985655,161468.0,143489.0,16123.0,7.877845359267667
63864.3434347874,161504.0,143507.0,16115.0,7.887945161011885
63864.35353458914,161478.0,143499.0,16151.0,7.898044962756103
63864.36363439089,161455.0,143487.0,16121.0,7.908144764500321
63864.373734192624,161450.0,143482.0,16116.0,7.918244566237263
63864.38383399437,161448.0,143510.0,16135.0,7.928344367981481
63864.39393379611,161407.0,143471.0,16095.0,7.938444169725699
63864.40403359786,161428.0,143432.0,16108.0,7.948543971469917
63864.4141333996,161393.0,143470.0,16130.0,7.958643773214135
63864.42423320134,161408.0,143474.0,16113.0,7.968743574951077
63864.43433300308,161347.0,143420.0,16085.0,7.978843376695295
63864.44443280483,161374.0,143450.0,16096.0,7.988943178439513
63864.45453260657,161343.0,143448.0,16082.0,7.999042980183731
63864.464632408315,161376.0,143455.0,16099.0,8.009142781927949
63864.47473221005,161358.0,143444.0,16069.0,8.01924258366489
63864.484832011796,161366.0,143449.0,16086.0,8.029342385409109
63864.49493181354,161395.0,143457.0,16104.0,8.039442187153327
63864.505031615285,161327.0,143427.0,16102.0,8.049541988897545
63864.51513141702,161359.0,143460.0,16100.0,8.059641790634487
63864.525231218766,161375.0,143450.0,16081.0,8.069741592378705
63864.53533102051,161389.0,143468.0,16102.0,8.079841394122923
63864.545430822254,161352.0,143476.0,16097.0,8.08994119586714
63864.555530624,161340.0,143450.0,16071.0,8.100040997611359
63864.565630425735,161373.0,143449.0,16089.0,8.1101407993483
63864.57573022748,161387.0,143483.0,16114.0,8.120240601092519
63864.585830029224,161364.0,143446.0,16064.0,8.130340402836737
63864.59592983097,161397.0,143483.0,16113.0,8.140440204580955
63864.60602963271,161378.0,143454.0,16088.0,8.150540006325173
63864.61612943445,161363.0,143437.0,16083.0,8.160639808062115
63864.62622923619,161361.0,143426.0,16063.0,8.170739609806333
63864.63632903794,161387.0,143481.0,16089.0,8.18083941155055
63864.64642883968,161376.0,143460.0,16093.0,8.190939213294769
63864.65652864142,161358.0,143443.0,16138.0,8.20103901503171
63864.66662844316,161366.0,143440.0,16101.0,8.211138816775929
63864.67672824491,161392.0,143466.0,16112.0,8.221238618520147
63864.68682804665,161383.0,143452.0,16096.0,8.231338420264365
63864.696927848396,161365.0,143440.0,16074.0,8.241438222008583
63864.70702765013,161394.0,143493.0,16089.0,8.251538023745525
63864.71712745188,161403.0,143483.0,16112.0,8.261637825489743
63864.72722725362,161382.0,143456.0,16098.0,8.27173762723396
63864.737327055365,161411.0,143496.0,16106.0,8.281837428978179
63864.74742685711,161372.0,143482.0,16103.0,8.291937230722397
63864.75752665885,161410.0,143488.0,16110.0,8.302037032459339
63864.76762646059,161369.0,143435.0,16105.0,8.312136834203557
63864.777726262335,161354.0,143426.0,16093.0,8.322236635947775
63864.78782606408,161361.0,143431.0,16077.0,8.332336437691993
63864.797925865816,161374.0,143443.0,16081.0,8.342436239428935
63864.80802566756,161402.0,143479.0,16080.0,8.352536041173153
63864.818125469305,161395.0,143470.0,16105.0,8.36263584291737
63864.82822527105,161428.0,143471.0,16122.0,8.372735644661589
63864.83832507279,161397.0,143464.0,16124.0,8.382835446405807
63864.84842487453,161393.0,143483.0,16088.0,8.392935248142749
63864.858524676274,161428.0,143463.0,16103.0,8.403035049886967
63864.86862447802,161427.0,143490.0,16087.0,8.413134851631185
63864.87872427976,161407.0,143493.0,16102.0,8.423234653375403
63864.88882408151,161389.0,143487.0,16092.0,8.43333445511962
63864.898923883244,161382.0,143469.0,16125.0,8.443434256856563
63864.90902368499,161389.0,143507.0,16119.0,8.45353405860078
63864.91912348673,161435.0,143473.0,16113.0,8.463633860344999
63864.929223288476,161427.0,143484.0,16094.0,8.473733662089217
63864.93932309021,161442.0,143485.0,16128.0,8.483833463826159
63864.94942289196,161435.0,143452.0,16114.0,8.493933265570377
63864.9595226937,161458.0,143474.0,16146.0,8.504033067314595
63864.969622495446,161428.0,143480.0,16105.0,8.514132869058813
63864.97972229719,161450.0,143495.0,16126.0,8.52423267080303
63864.98982209893,161477.0,143489.0,16134.0,8.534332472539973
63864.99992190067,161469.0,143511.0,16109.0,8.54443227428419
63865.010021702416,161474.0,143484.0,16127.0,8.554532076028408
63865.02012150416,161456.0,143494.0,16128.0,8.564631877772626
63865.030221305904,161438.0,143482.0,16093.0,8.574731679516844
63865.04032110764,161430.0,143501.0,16107.0,8.584831481253786
63865.050420909385,161480.0,143501.0,16119.0,8.594931282998004
63865.06052071113,161473.0,143511.0,16134.0,8.605031084742222
63865.07062051287,161473.0,143515.0,16132.0,8.61513088648644
63865.08072031461,161501.0,143525.0,16149.0,8.625230688223382
63865.090820116355,161501.0,143521.0,16108.0,8.6353304899676
63865.1009199181,161474.0,143492.0,16127.0,8.645430291711818
63865.11101971984,161463.0,143518.0,16121.0,8.655530093456036
63865.12111952159,161483.0,143500.0,16132.0,8.665629895200254
63865.131219323324,161491.0,143531.0,16156.0,8.675729696937196
63865.14131912507,161495.0,143505.0,16134.0,8.685829498681414
63865.15141892681,161474.0,143504.0,16117.0,8.695929300425632
63865.16151872856,161474.0,143516.0,16108.0,8.70602910216985
63865.1716185303,161480.0,143509.0,16140.0,8.716128903914068
63865.18171833204,161446.0,143482.0,16124.0,8.72622870565101
63865.19181813378,161407.0,143481.0,16134.0,8.736328507395228
63865.20191793553,161402.0,143499.0,16118.0,8.746428309139446
63865.21201773727,161385.0,143440.0,16102.0,8.756528110883664
63865.22211753901,161391.0,143468.0,16097.0,8.766627912620606
63865.23221734075,161381.0,143499.0,16107.0,8.776727714364824
63865.242317142496,161393.0,143474.0,16105.0,8.786827516109042
63865.25241694424,161363.0,143480.0,16110.0,8.79692731785326
63865.262516745985,161357.0,143467.0,16078.0,8.807027119597478
63865.27261654772,161331.0,143453.0,16086.0,8.81712692133442
63865.282716349466,161393.0,143467.0,16101.0,8.827226723078638
63865.29281615121,161359.0,143432.0,16101.0,8.837326524822856
63865.302915952954,161379.0,143469.0,16074.0,8.847426326567074
63865.3130157547,161343.0,143462.0,16106.0,8.857526128311292
63865.323115556435,161403.0,143444.0,16102.0,8.867625930048234
63865.33321535818,161403.0,143472.0,16116.0,8.877725731792452
63865.343315159924,161395.0,143469.0,16085.0,8.88782553353667
63865.35341496167,161375.0,143478.0,16097.0,8.897925335280888
63865.363514763405,161406.0,143468.0,16089.0,8.90802513701783
63865.37361456515,161353.0,143434.0,16080.0,8.918124938762048
63865.38371436689,161398.0,143493.0,16081.0,8.928224740506266
63865.39381416864,161398.0,143473.0,16095.0,8.938324542250484
63865.40391397038,161377.0,143473.0,16076.0,8.948424343994702
63865.41401377212,161390.0,143470.0,16095.0,8.958524145731644
63865.42411357386,161395.0,143466.0,16084.0,8.968623947475862
63865.43421337561,161393.0,143474.0,16086.0,8.97872374922008
63865.44431317735,161404.0,143461.0,16091.0,8.988823550964298
63865.45441297909,161393.0,143467.0,16070.0,8.99892335270124
63865.46451278083,161417.0,143508.0,16130.0,9.009023154445458
63865.47461258258,161404.0,143471.0,16099.0,9.019122956189676
63865.48471238432,161374.0,143479.0,16101.0,9.029222757933894
63865.494812186065,161416.0,143506.0,16114.0,9.039322559678112
63865.5049119878,161434.0,143492.0,16113.0,9.049422361415054
63865.51501178955,161399.0,143479.0,16099.0,9.059522163159272
63865.52511159129,161387.0,143486.0,16098.0,9.06962196490349
63865.535211393035,161374.0,143473.0,16073.0,9.079721766647708
63865.54531119478,161370.0,143468.0,16118.0,9.089821568391926
63865.555410996516,161403.0,143483.0,16101.0,9.099921370128868
63865.56551079826,161393.0,143489.0,16141.0,9.110021171873086
63865.575610600004,161416.0,143495.0,16121.0,9.120120973617304
63865.58571040175,161376.0,143456.0,16102.0,9.130220775361522
63865.59581020349,161393.0,143475.0,16106.0,9.14032057710574
63865.60591000523,161402.0,143446.0,16108.0,9.150420378842682
63865.616009806974,161394.0,143471.0,16106.0,9.1605201805869
63865.62610960872,161384.0,143474.0,16087.0,9.170619982331118
63865.63620941046,161404.0,143478.0,16110.0,9.180719784075336
63865.6463092122,161405.0,143477.0,16107.0,9.190819585812278
63865.65640901394,161419.0,143465.0,16128.0,9.200919387556496
63865.66650881569,161417.0,143467.0,16106.0,9.211019189300714
63865.67660861743,161424.0,143494.0,16118.0,9.221118991044932
63865.686708419176,161448.0,143504.0,16102.0,9.23121879278915
63865.69680822091,161412.0,143469.0,16103.0,9.241318594526092
63865.70690802266,161433.0,143488.0,16110.0,9.25141839627031
63865.7170078244,161427.0,143488.0,16115.0,9.261518198014528
63865.727107626146,161455.0,143512.0,16104.0,9.271617999758746
63865.73720742788,161442.0,143472.0,16113.0,9.281717801495688
63865.74730722963,161439.0,143500.0,16103.0,9.291817603239906
63865.75740703137,161437.0,143492.0,16122.0,9.301917404984124
63865.767506833115,161437.0,143494.0,16121.0,9.312017206728342
63865.77760663486,161438.0,143489.0,16119.0,9.32211700847256
63865.7877064366,161421.0,143514.0,16119.0,9.332216810209502
63865.79780623834,161425.0,143497.0,16118.0,9.34231661195372
63865.807906040085,161443.0,143506.0,16131.0,9.352416413697938
63865.81800584183,161462.0,143507.0,16106.0,9.362516215442156
63865.82810564357,161468.0,143519.0,16147.0,9.372616017186374
63865.83820544531,161440.0,143503.0,16114.0,9.382715818923316
63865.848305247055,161465.0,143503.0,16121.0,9.392815620667534
63865.8584050488,161457.0,143529.0,16137.0,9.402915422411752
63865.86850485054,161472.0,143499.0,16137.0,9.41301522415597
63865.87860465229,161453.0,143488.0,16123.0,9.423115025900188
63865.888704454024,161469.0,143508.0,16135.0,9.43321482763713
63865.89880425577,161471.0,143531.0,16144.0,9.443314629381348
63865.90890405751,161451.0,143487.0,16137.0,9.453414431125566
63865.91900385926,161454.0,143534.0,16135.0,9.463514232869784
63865.929103660994,161467.0,143523.0,16139.0,9.473614034606726
63865.93920346274,161450.0,143499.0,16124.0,9.483713836350944
63865.94930326448,161445.0,143481.0,16143.0,9.493813638095162
63865.95940306623,161455.0,143484.0,16121.0,9.50391343983938
63865.96950286797,161458.0,143516.0,16128.0,9.514013241583598
63865.97960266971,161395.0,143495.0,16108.0,9.52411304332054
63865.98970247145,161413.0,143450.0,16083.0,9.534212845064758
63865.999802273196,161401.0,143490.0,16105.0,9.544312646808976
63866.00990207494,161379.0,143472.0,16098.0,9.554412448553194
63866.02000187668,161386.0,143425.0,16088.0,9.564512250290136
63866.03010167842,161350.0,143434.0,16071.0,9.574612052034354
63866.040201480166,161345.0,143433.0,16096.0,9.584711853778572
63866.05030128191,161366.0,143466.0,16086.0,9.59481165552279
63866.060401083654,161354.0,143450.0,16089.0,9.604911457267008
63866.07050088539,161373.0,143460.0,16079.0,9.61501125900395
63866.080600687135,161355.0,143431.0,16110.0,9.625111060748168
63866.09070048888,161354.0,143460.0,16079.0,9.635210862492386
63866.100800290624,161374.0,143424.0,16061.0,9.645310664236604
63866.11090009237,161398.0,143485.0,16066.0,9.655410465980822
63866.120999894105,161360.0,143448.0,16075.0,9.665510267717764
63866.13109969585,161381.0,143464.0,16091.0,9.675610069461982
63866.14119949759,161412.0,143476.0,16116.0,9.6857098712062
63866.15129929934,161406.0,143512.0,16107.0,9.695809672950418
63866.16139910108,161364.0,143487.0,16086.0,9.705909474694636
63866.17149890282,161390.0,143486.0,16098.0,9.716009276431578
63866.18159870456,161395.0,143471.0,16075.0,9.726109078175796
63866.19169850631,161413.0,143489.0,16118.0,9.736208879920014
63866.20179830805,161389.0,143464.0,16097.0,9.746308681664232
63866.21189810979,161407.0,143483.0,16094.0,9.756408483401174
63866.22199791153,161385.0,143500.0,16102.0,9.766508285145392
63866.23209771328,161400.0,143470.0,16130.0,9.77660808688961
63866.24219751502,161385.0,143481.0,16124.0,9.786707888633828
63866.252297316765,161389.0,143493.0,16108.0,9.796807690378046
63866.2623971185,161385.0,143475.0,16097.0,9.806907492114988
63866.272496920246,161384.0,143464.0,16116.0,9.817007293859206
63866.28259672199,161366.0,143475.0,16077.0,9.827107095603424
63866.292696523735,161409.0,143483.0,16126.0,9.837206897347642
63866.30279632547,161391.0,143494.0,16096.0,9.847306699084584
63866.312896127216,161390.0,143465.0,16104.0,9.857406500828802
63866.32299592896,161397.0,143473.0,16106.0,9.86750630257302
63866.333095730704,161420.0,143480.0,16108.0,9.877606104317238
63866.34319553245,161400.0,143483.0,16099.0,9.887705906061456
63866.353295334186,161374.0,143462.0,16087.0,9.897805707798398
63866.36339513593,161396.0,143474.0,16097.0,9.907905509542616
63866.373494937674,161414.0,143490.0,16129.0,9.918005311286834
63866.38359473942,161402.0,143482.0,16110.0,9.928105113031052
63866.39369454116,161403.0,143461.0,16074.0,9.93820491477527
63866.4037943429,161430.0,143490.0,16095.0,9.948304716512212
63866.41389414464,161393.0,143473.0,16090.0,9.95840451825643
63866.42399394639,161413.0,143486.0,16106.0,9.968504320000648
63866.43409374813,161417.0,143468.0,16108.0,9.978604121744866
63866.44419354987,161432.0,143484.0,16128.0,9.988703923481808
63866.45429335161,161408.0,143487.0,16095.0,9.998803725226026
63866.46439315336,161434.0,143500.0,16110.0,10.008903526970244
63866.4744929551,161413.0,143479.0,16092.0,10.019003328714462
63866.484592756846,161443.0,143508.0,16136.0,10.02910313045868
63866.49469255858,161411.0,143498.0,16110.0,10.039202932195622
63866.50479236033,161452.0,143502.0,16119.0,10.04930273393984
63866.51489216207,161406.0,143515.0,16114.0,10.059402535684058
63866.524991963815,161404.0,143505.0,16105.0,10.069502337428275
63866.53509176556,161441.0,143470.0,16098.0,10.079602139172493
63866.5451915673,161450.0,143497.0,16122.0,10.089701940909436
63866.55529136904,161437.0,143501.0,16135.0,10.099801742653653
63866.565391170785,161437.0,143505.0,16121.0,10.109901544397871
63866.57549097253,161414.0,143500.0,16109.0,10.12000134614209
63866.585590774266,161450.0,143500.0,16123.0,10.130101147879031
63866.59569057601,161479.0,143495.0,16145.0,10.14020094962325
63866.605790377755,161449.0,143480.0,16123.0,10.150300751367467
63866.6158901795,161463.0,143498.0,16118.0,10.160400553111685
63866.62598998124,161469.0,143501.0,16126.0,10.170500354855903
63866.63608978298,161461.0,143492.0,16160.0,10.180600156592845
63866.646189584724,161438.0,143494.0,16125.0,10.190699958337063
63866.65628938647,161488.0,143532.0,16148.0,10.200799760081281
63866.66638918821,161461.0,143508.0,16132.0,10.2108995618255
63866.67648898996,161497.0,143532.0,16130.0,10.220999363569717
63866.686588791694,161419.0,143498.0,16105.0,10.23109916530666
63866.69668859344,161472.0,143519.0,16141.0,10.241198967050877
63866.70678839518,161439.0,143500.0,16140.0,10.251298768795095
63866.71688819693,161420.0,143493.0,16133.0,10.261398570539313
63866.72698799866,161394.0,143465.0,16093.0,10.271498372276255
63866.73708780041,161390.0,143470.0,16126.0,10.281598174020473
63866.74718760215,161374.0,143469.0,16114.0,10.291697975764691
63866.757287403896,161368.0,143478.0,16089.0,10.30179777750891
63866.76738720564,161390.0,143459.0,16087.0,10.311897579253127
63866.77748700738,161349.0,143458.0,16107.0,10.32199738099007
63866.78758680912,161336.0,143434.0,16061.0,10.332097182734287
63866.797686610866,161340.0,143457.0,16079.0,10.342196984478505
63866.80778641261,161320.0,143483.0,16087.0,10.352296786222723
63866.817886214354,161376.0,143464.0,16080.0,10.362396587966941
63866.82798601609,161379.0,143478.0,16078.0,10.372496389703883
63866.838085817835,161364.0,143471.0,16084.0,10.382596191448101
63866.84818561958,161381.0,143471.0,16105.0,10.39269599319232
63866.858285421324,161351.0,143448.0,16074.0,10.402795794936537
63866.86838522306,161341.0,143492.0,16079.0,10.41289559667348
63866.878485024805,161381.0,143476.0,16090.0,10.422995398417697
63866.88858482655,161401.0,143468.0,16106.0,10.433095200161915
63866.89868462829,161365.0,143459.0,16077.0,10.443195001906133
63866.90878443004,161375.0,143443.0,16086.0,10.453294803650351
63866.918884231774,161397.0,143489.0,16110.0,10.463394605387293
63866.92898403352,161397.0,143499.0,16116.0,10.473494407131511
63866.93908383526,161369.0,143516.0,16101.0,10.48359420887573
63866.94918363701,161401.0,143489.0,16103.0,10.493694010619947
63866.95928343875,161396.0,143486.0,16103.0,10.503793812364165
63866.96938324049,161392.0,143461.0,16118.0,10.513893614101107
63866.97948304223,161376.0,143455.0,16094.0,10.523993415845325
63866.98958284398,161414.0,143513.0,16107.0,10.534093217589543
63866.99968264572,161400.0,143476.0,16104.0,10.544193019333761
63867.00978244746,161392.0,143463.0,16127.0,10.554292821070703
63867.0198822492,161373.0,143472.0,16093.0,10.564392622814921
63867.029982050946,161417.0,143504.0,16124.0,10.57449242455914
63867.04008185269,161379.0,143453.0,16084.0,10.584592226303357
63867.050181654435,161378.0,143454.0,16075.0,10.594692028047575
63867.06028145617,161410.0,143520.0,16118.0,10.604791829784517
63867.070381257916,161411.0,143481.0,16114.0,10.614891631528735
63867.08048105966,161391.0,143473.0,16101.0,10.624991433272953
63867.090580861404,161383.0,143473.0,16086.0,10.635091235017171
63867.10068066315,161377.0,143499.0,16112.0,10.64519103676139
63867.110780464885,161380.0,143470.0,16090.0,10.655290838498331
63867.12088026663,161396.0,143490.0,16109.0,10.66539064024255
63867.130980068374,161399.0,143478.0,16097.0,10.675490441986767
63867.14107987012,161392.0,143471.0,16121.0,10.685590243730985
63867.151179671855,161377.0,143449.0,16098.0,10.695690045467927
63867.1612794736,161420.0,143477.0,16103.0,10.705789847212145
63867.17137927534,161412.0,143533.0,16111.0,10.715889648956363
63867.18147907709,161430.0,143499.0,16137.0,10.725989450700581
63867.19157887883,161387.0,143474.0,16116.0,10.736089252444799
63867.20167868057,161415.0,143496.0,16111.0,10.746189054181741
63867.21177848231,161417.0,143472.0,16116.0,10.756288855925959
63867.22187828406,161403.0,143479.0,16121.0,10.766388657670177
63867.2319780858,161412.0,143480.0,16091.0,10.776488459414395
63867.242077887546,161456.0,143488.0,16129.0,10.786588261158613
63867.25217768928,161428.0,143501.0,16125.0,10.796688062895555
63867.26227749103,161429.0,143495.0,16089.0,10.806787864639773
63867.27237729277,161423.0,143484.0,16108.0,10.816887666383991
63867.282477094515,161462.0,143518.0,16117.0,10.826987468128209
63867.29257689625,161436.0,143504.0,16133.0,10.837087269865151
63867.302676698,161407.0,143474.0,16135.0,10.847187071609369
63867.31277649974,161430.0,143517.0,16137.0,10.857286873353587
63867.322876301485,161441.0,143509.0,16140.0,10.867386675097805
63867.33297610323,161444.0,143505.0,16118.0,10.877486476842023
63867.343075904966,161433.0,143468.0,16110.0,10.887586278578965
63867.35317570671,161461.0,143501.0,16105.0,10.897686080323183
63867.363275508455,161446.0,143490.0,16153.0,10.907785882067401
63867.3733753102,161452.0,143492.0,16128.0,10.917885683811619
63867.38347511194,161448.0,143504.0,16115.0,10.927985485555837
63867.39357491368,161472.0,143516.0,16145.0,10.938085287292779
63867.403674715424,161485.0,143515.0,16140.0,10.948185089036997
63867.41377451717,161467.0,143503.0,16141.0,10.958284890781215
63867.42387431891,161499.0,143535.0,16136.0,10.968384692525433
63867.43397412065,161483.0,143514.0,16145.0,10.978484494262375
63867.444073922394,161428.0,143476.0,16115.0,10.988584296006593
63867.45417372414,161447.0,143492.0,16118.0,10.998684097750811
63867.46427352588,161402.0,143485.0,16134.0,11.008783899495029
63867.47437332763,161436.0,143482.0,16127.0,11.018883701239247
63867.48447312936,161408.0,143457.0,16114.0,11.028983502976189
63867.49457293111,161390.0,143481.0,16098.0,11.039083304720407
63867.50467273285,161364.0,143424.0,16090.0,11.049183106464625
63867.514772534596,161360.0,143453.0,16085.0,11.059282908208843
63867.52487233634,161334.0,143439.0,16060.0,11.06938270995306
63867.53497213808,161342.0,143451.0,16079.0,11.079482511690003
63867.54507193982,161347.0,143447.0,16088.0,11.08958231343422
63867.555171741566,161328.0,143440.0,16090.0,11.099682115178439
63867.56527154331,161365.0,143482.0,16081.0,11.109781916922657
63867.57537134505,161370.0,143460.0,16091.0,11.119881718659599
63867.58547114679,161367.0,143481.0,16100.0,11.129981520403817
63867.595570948535,161351.0,143433.0,16073.0,11.140081322148035
63867.60567075028,161353.0,143469.0,16087.0,11.150181123892253
63867.61577055202,161366.0,143461.0,16084.0,11.16028092563647
63867.62587035376,161383.0,143459.0,16091.0,11.170380727373413
63867.635970155505,161331.0,143455.0,16068.0,11.18048052911763
63867.64606995725,161373.0,143489.0,16110.0,11.190580330861849
63867.65616975899,161360.0,143458.0,16109.0,11.200680132606067
63867.66626956074,161368.0,143471.0,16084.0,11.210779934350285
63867.676369362474,161369.0,143462.0,16092.0,11.220879736087227
63867.68646916422,161371.0,143489.0,16108.0,11.230979537831445
63867.69656896596,161385.0,143475.0,16100.0,11.241079339575663
63867.70666876771,161357.0,143463.0,16083.0,11.25117914131988
63867.716768569444,161387.0,143478.0,16076.0,11.261278943056823
63867.72686837119,161391.0,143481.0,16105.0,11.27137874480104
63867.73696817293,161365.0,143456.0,16093.0,11.281478546545259
63867.74706797468,161375.0,143478.0,16099.0,11.291578348289477
63867.75716777642,161378.0,143454.0,16112.0,11.301678150033695
63867.76726757816,161360.0,143473.0,16092.0,11.311777951770637
63867.7773673799,161353.0,143469.0,16089.0,11.321877753514855
63867.787467181646,161380.0,143465.0,16089.0,11.331977555259073
63867.79756698339,161346.0,143454.0,16093.0,11.34207735700329
63867.807666785135,161362.0,143490.0,16116.0,11.352177158747509
63867.81776658687,161341.0,143445.0,16081.0,11.36227696048445
63867.827866388616,161375.0,143468.0,16096.0,11.372376762228669
63867.83796619036,161369.0,143434.0,16144.0,11.382476563972887
63867.848065992104,161353.0,143438.0,16096.0,11.392576365717105
63867.85816579384,161377.0,143434.0,16097.0,11.402676167454047
63867.868265595585,161377.0,143468.0,16103.0,11.412775969198265
63867.87836539733,161352.0,143469.0,16085.0,11.422875770942483
63867.888465199074,161390.0,143464.0,16130.0,11.4329755726867
63867.89856500082,161369.0,143463.0,16091.0,11.443075374430919
63867.908664802555,161393.0,143459.0,16102.0,11.45317517616786
63867.9187646043,161397.0,143465.0,16114.0,11.463274977912079
63867.92886440604,161403.0,143495.0,16130.0,11.473374779656297
63867.93896420779,161384.0,143470.0,16080.0,11.483474581400515
63867.94906400953,161395.0,143471.0,16110.0,11.493574383144733
63867.95916381127,161384.0,143464.0,16105.0,11.503674184881675
63867.96926361301,161409.0,143499.0,16131.0,11.513773986625893
63867.97936341476,161407.0,143529.0,16130.0,11.52387378837011
63867.9894632165,161395.0,143476.0,16111.0,11.533973590114329
63867.99956301824,161416.0,143474.0,16136.0,11.54407339185127
63868.00966281998,161426.0,143463.0,16124.0,11.554173193595489
63868.01976262173,161434.0,143478.0,16112.0,11.564272995339707
63868.02986242347,161415.0,143470.0,16107.0,11.574372797083925
63868.039962225215,161380.0,143467.0,16095.0,11.584472598828143
63868.05006202695,161413.0,143486.0,16082.0,11.594572400565085
63868.0601618287,161413.0,143474.0,16108.0,11.604672202309303
63868.07026163044,161426.0,143477.0,16118.0,11.61477200405352
63868.080361432185,161428.0,143506.0,16109.0,11.624871805797738
63868.09046123393,161430.0,143487.0,16144.0,11.634971607541956
63868.100561035666,161456.0,143510.0,16097.0,11.645071409278898
63868.11066083741,161429.0,143486.0,16151.0,11.655171211023116
63868.120760639154,161412.0,143490.0,16123.0,11.665271012767334
63868.1308604409,161406.0,143473.0,16106.0,11.675370814511552
63868.140960242636,161412.0,143508.0,16122.0,11.685470616248494
63868.15106004438,161457.0,143496.0,16132.0,11.695570417992712
63868.161159846124,161441.0,143522.0,16125.0,11.70567021973693
63868.17125964787,161418.0,143469.0,16126.0,11.715770021481148
63868.18135944961,161477.0,143497.0,16154.0,11.725869823225366
63868.19145925135,161471.0,143494.0,16144.0,11.735969624962308
63868.201559053094,161453.0,143479.0,16121.0,11.746069426706526
63868.21165885484,161436.0,143526.0,16131.0,11.756169228450744
63868.22175865658,161442.0,143464.0,16125.0,11.766269030194962
63868.231858458326,161442.0,143489.0,16121.0,11.77636883193918
63868.24195826006,161476.0,143481.0,16147.0,11.786468633676122
63868.25205806181,161431.0,143448.0,16139.0,11.79656843542034
63868.26215786355,161446.0,143461.0,16136.0,11.806668237164558
63868.272257665296,161408.0,143502.0,16124.0,11.816768038908776
63868.28235746703,161410.0,143466.0,16116.0,11.826867840645718
63868.29245726878,161397.0,143451.0,16141.0,11.836967642389936
63868.30255707052,161386.0,143449.0,16076.0,11.847067444134154
63868.312656872266,161329.0,143467.0,16070.0,11.857167245878372
63868.32275667401,161350.0,143441.0,16086.0,11.86726704762259
63868.33285647575,161362.0,143477.0,16057.0,11.877366849359532
63868.34295627749,161332.0,143427.0,16061.0,11.88746665110375
63868.353056079235,161340.0,143444.0,16070.0,11.897566452847968
63868.36315588098,161336.0,143443.0,16080.0,11.907666254592186
63868.37325568272,161336.0,143425.0,16078.0,11.917766056336404
63868.38335548446,161329.0,143413.0,16084.0,11.927865858073346
63868.393455286205,161326.0,143431.0,16080.0,11.937965659817564
63868.40355508795,161329.0,143440.0,16079.0,11.948065461561782
63868.41365488969,161323.0,143472.0,16078.0,11.958165263306
63868.42375469143,161323.0,143447.0,16065.0,11.968265065042942
63868.433854493174,161339.0,143475.0,16097.0,11.97836486678716
63868.44395429492,161352.0,143448.0,16088.0,11.988464668531378
63868.45405409666,161324.0,143435.0,16084.0,11.998564470275596
63868.46415389841,161353.0,143470.0,16060.0,12.008664272019814
63868.474253700144,161364.0,143462.0,16093.0,12.018764073756756
63868.48435350189,161350.0,143459.0,16086.0,12.028863875500974
63868.49445330363,161326.0,143457.0,16096.0,12.038963677245192
63868.50455310538,161344.0,143446.0,16091.0,12.04906347898941
63868.51465290712,161343.0,143447.0,16095.0,12.059163280733628
63868.52475270886,161359.0,143452.0,16096.0,12.06926308247057
63868.5348525106,161342.0,143449.0,16087.0,12.079362884214788
63868.544952312346,161378.0,143459.0,16108.0,12.089462685959006
63868.55505211409,161339.0,143443.0,16106.0,12.099562487703224
63868.56515191583,161362.0,143455.0,16077.0,12.109662289440166
63868.57525171757,161352.0,143445.0,16116.0,12.119762091184384
63868.585351519316,161349.0,143472.0,16113.0,12.129861892928602
63868.59545132106,161350.0,143430.0,16086.0,12.13996169467282
63868.605551122804,161357.0,143460.0,16109.0,12.150061496417038
63868.61565092454,161361.0,143440.0,16112.0,12.16016129815398
63868.625750726285,161386.0,143474.0,16116.0,12.170261099898198
63868.63585052803,161354.0,143446.0,16076.0,12.180360901642416
63868.645950329774,161392.0,143482.0,16127.0,12.190460703386634
63868.65605013152,161362.0,143470.0,16091.0,12.200560505130852
63868.666149933255,161359.0,143448.0,16087.0,12.210660306867794
63868.676249735,161363.0,143437.0,16084.0,12.220760108612012
63868.68634953674,161403.0,143495.0,16086.0,12.23085991035623
63868.69644933849,161373.0,143459.0,16093.0,12.240959712100448
63868.706549140225,161365.0,143482.0,16090.0,12.25105951383739
63868.71664894197,161384.0,143484.0,16113.0,12.261159315581608
63868.72674874371,161406.0,143439.0,16117.0,12.271259117325826
63868.73684854546,161391.0,143469.0,16089.0,12.281358919070044
63868.7469483472,161392.0,143461.0,16092.0,12.291458720814262
63868.75704814894,161415.0,143487.0,16118.0,12.301558522551204
63868.76714795068,161409.0,143492.0,16096.0,12.311658324295422
63868.77724775243,161361.0,143456.0,16093.0,12.32175812603964
63868.78734755417,161375.0,143465.0,16090.0,12.331857927783858
63868.797447355915,161424.0,143481.0,16119.0,12.341957729528076
63868.80754715765,161417.0,143482.0,16106.0,12.352057531265018
63868.8176469594,161403.0,143474.0,16112.0,12.362157333009236
63868.82774676114,161409.0,143496.0,16096.0,12.372257134753454
63868.837846562885,161442.0,143493.0,16124.0,12.382356936497672
63868.84794636462,161395.0,143444.0,16121.0,12.392456738234614
63868.858046166366,161414.0,143475.0,16106.0,12.402556539978832
63868.86814596811,161388.0,143485.0,16132.0,12.41265634172305
63868.878245769854,161445.0,143490.0,16136.0,12.422756143467268
63868.8883455716,161426.0,143475.0,16119.0,12.432855945211486
63868.898445373336,161428.0,143490.0,16117.0,12.442955746948428
63868.90854517508,161391.0,143449.0,16130.0,12.453055548692646
63868.918644976824,161425.0,143475.0,16123.0,12.463155350436864
63868.92874477857,161416.0,143489.0,16114.0,12.473255152181082
63868.93884458031,161435.0,143494.0,16116.0,12.4833549539253
63868.94894438205,161481.0,143487.0,16131.0,12.493454755662242
63868.95904418379,161442.0,143465.0,16129.0,12.50355455740646
63868.96914398554,161454.0,143466.0,16111.0,12.513654359150678
63868.97924378728,161448.0,143499.0,16119.0,12.523754160894896
63868.98934358902,161479.0,143513.0,16133.0,12.533853962631838
63868.99944339076,161456.0,143469.0,16109.0,12.543953764376056
63869.00954319251,161490.0,143512.0,16162.0,12.554053566120274
63869.01964299425,161465.0,143498.0,16132.0,12.564153367864492
63869.029742795996,161481.0,143524.0,16111.0,12.57425316960871
63869.03984259773,161471.0,143499.0,16114.0,12.584352971345652
63869.04994239948,161472.0,143510.0,16108.0,12.59445277308987
63869.06004220122,161443.0,143509.0,16131.0,12.604552574834088
63869.070142002965,161437.0,143482.0,16122.0,12.614652376578306
63869.08024180471,161427.0,143484.0,16109.0,12.624752178322524
63869.09034160645,161399.0,143493.0,16109.0,12.634851980059466
63869.10044140819,161388.0,143477.0,16084.0,12.644951781803684
63869.110541209935,161388.0,143448.0,16100.0,12.655051583547902
63869.12064101168,161390.0,143489.0,16070.0,12.66515138529212
63869.130740813416,161385.0,143475.0,16104.0,12.675251187029062
63869.14084061516,161328.0,143417.0,16056.0,12.68535098877328
63869.150940416905,161342.0,143453.0,16084.0,12.695450790517498
63869.16104021865,161334.0,143472.0,16076.0,12.705550592261716
63869.17114002039,161376.0,143447.0,16107.0,12.715650394005934
63869.18123982213,161309.0,143407.0,16039.0,12.725750195742876
63869.191339623874,161344.0,143459.0,16073.0,12.735849997487094
63869.20143942562,161334.0,143454.0,16099.0,12.745949799231312
63869.21153922736,161338.0,143432.0,16083.0,12.75604960097553
63869.22163902911,161325.0,143457.0,16084.0,12.766149402719748
63869.231738830844,161365.0,143462.0,16091.0,12.77624920445669
63869.24183863259,161397.0,143468.0,16120.0,12.786349006200908
63869.25193843433,161365.0,143427.0,16085.0,12.796448807945126
63869.26203823608,161372.0,143439.0,16080.0,12.806548609689344
63869.27213803781,161367.0,143459.0,16088.0,12.816648411426286
63869.28223783956,161356.0,143479.0,16091.0,12.826748213170504
63869.2923376413,161384.0,143448.0,16071.0,12.836848014914722
63869.302437443046,161400.0,143492.0,16100.0,12.84694781665894
63869.31253724479,161396.0,143463.0,16115.0,12.857047618403158
63869.32263704653,161357.0,143428.0,16096.0,12.8671474201401
63869.33273684827,161374.0,143430.0,16085.0,12.877247221884318
63869.342836650016,161408.0,143492.0,16097.0,12.887347023628536
63869.35293645176,161383.0,143469.0,16097.0,12.897446825372754
63869.363036253504,161378.0,143447.0,16096.0,12.907546627116972
63869.37313605524,161388.0,143464.0,16085.0,12.917646428853914
63869.383235856985,161409.0,143496.0,16099.0,12.927746230598132
63869.39333565873,161382.0,143479.0,16094.0,12.93784603234235
63869.403435460474,161363.0,143434.0,16082.0,12.947945834086568
63869.41353526221,161403.0,143485.0,16066.0,12.95804563582351
63869.423635063955,161357.0,143460.0,16066.0,12.968145437567728
63869.4337348657,161380.0,143474.0,16095.0,12.978245239311946
63869.44383466744,161413.0,143486.0,16110.0,12.988345041056164
63869.45393446919,161389.0,143474.0,16098.0,12.998444842800382
63869.464034270924,161374.0,143463.0,16092.0,13.008544644537324
63869.47413407267,161382.0,143469.0,16091.0,13.018644446281542
63869.48423387441,161374.0,143478.0,16077.0,13.02874424802576
63869.49433367616,161412.0,143475.0,16119.0,13.038844049769978
63869.5044334779,161382.0,143463.0,16104.0,13.048943851514196
63869.51453327964,161390.0,143472.0,16086.0,13.059043653251138
63869.52463308138,161386.0,143490.0,16100.0,13.069143454995356
63869.53473288313,161423.0,143499.0,16122.0,13.079243256739574
63869.54483268487,161406.0,143479.0,16066.0,13.089343058483792
63869.55493248661,161417.0,143478.0,16117.0,13.099442860220734
63869.56503228835,161415.0,143497.0,16098.0,13.109542661964952
63869.575132090096,161407.0,143467.0,16148.0,13.11964246370917
63869.58523189184,161388.0,143475.0,16079.0,13.129742265453388
63869.595331693585,161445.0,143471.0,16120.0,13.139842067197606
63869.60543149532,161406.0,143509.0,16101.0,13.149941868934548
63869.615531297066,161431.0,143470.0,16115.0,13.160041670678766
63869.62563109881,161422.0,143470.0,16094.0,13.170141472422983
63869.635730900554,161413.0,143451.0,16094.0,13.180241274167201
63869.6458307023,161442.0,143486.0,16112.0,13.19034107591142
63869.655930504035,161429.0,143470.0,16093.0,13.200440877648361
63869.66603030578,161439.0,143495.0,16103.0,13.21054067939258
63869.676130107524,161455.0,143512.0,16131.0,13.220640481136797
63869.68622990927,161437.0,143494.0,16107.0,13.230740282881015
63869.696329711005,161439.0,143494.0,16090.0,13.240840084617957
63869.70642951275,161439.0,143491.0,16077.0,13.250939886362175
63869.71652931449,161465.0,143478.0,16140.0,13.261039688106393
63869.72662911624,161442.0,143488.0,16114.0,13.271139489850611
63869.73672891798,161425.0,143494.0,16103.0,13.28123929159483
63869.74682871972,161477.0,143513.0,16132.0,13.291339093331771
63869.75692852146,161441.0,143474.0,16092.0,13.30143889507599
63869.76702832321,161462.0,143490.0,16114.0,13.311538696820207
63869.77712812495,161469.0,143490.0,16109.0,13.321638498564425
63869.78722792669,161490.0,143499.0,16120.0,13.331738300301367
63869.79732772843,161452.0,143478.0,16109.0,13.341838102045585
63869.80742753018,161476.0,143509.0,16113.0,13.351937903789803
63869.81752733192,161430.0,143500.0,16120.0,13.362037705534021
63869.827627133665,161447.0,143514.0,16108.0,13.37213750727824
63869.8377269354,161427.0,143488.0,16117.0,13.382237309015181
63869.84782673715,161445.0,143504.0,16098.0,13.3923371107594
63869.85792653889,161426.0,143474.0,16117.0,13.402436912503617
63869.868026340635,161431.0,143494.0,16114.0,13.412536714247835
63869.87812614238,161384.0,143449.0,16078.0,13.422636515992053
63869.888225944116,161378.0,143462.0,16079.0,13.432736317728995
63869.89832574586,161378.0,143440.0,16078.0,13.442836119473213
63869.908425547605,161365.0,143437.0,16098.0,13.452935921217431
63869.91852534935,161331.0,143424.0,16054.0,13.46303572296165
63869.92862515109,161357.0,143452.0,16072.0,13.473135524705867
63869.93872495283,161374.0,143456.0,16055.0,13.48323532644281
63869.948824754574,161360.0,143433.0,16060.0,13.493335128187027
63869.95892455632,161348.0,143453.0,16063.0,13.503434929931245
63869.96902435806,161364.0,143453.0,16071.0,13.513534731675463
63869.9791241598,161372.0,143500.0,16101.0,13.523634533412405
63869.989223961544,161341.0,143463.0,16054.0,13.533734335156623
63869.99932376329,161368.0,143442.0,16048.0,13.543834136900841
63870.00942356503,161375.0,143466.0,16104.0,13.55393393864506
63870.01952336678,161362.0,143478.0,16078.0,13.564033740389277
63870.02962316851,161358.0,143472.0,16070.0,13.57413354212622
63870.03972297026,161369.0,143491.0,16102.0,13.584233343870437
63870.049822772,161368.0,143470.0,16077.0,13.594333145614655
63870.059922573746,161387.0,143481.0,16084.0,13.604432947358873
63870.07002237548,161377.0,143447.0,16071.0,13.614532749095815
63870.08012217723,161420.0,143489.0,16087.0,13.624632550840033
63870.09022197897,161386.0,143445.0,16088.0,13.634732352584251
63870.100321780716,161398.0,143478.0,16090.0,13.64483215432847
63870.11042158246,161402.0,143472.0,16096.0,13.654931956072687
63870.1205213842,161437.0,143482.0,16102.0,13.66503175780963
63870.13062118594,161387.0,143454.0,16080.0,13.675131559553847
63870.140720987685,161387.0,143462.0,16087.0,13.685231361298065
63870.15082078943,161376.0,143475.0,16120.0,13.695331163042283
63870.16092059117,161406.0,143502.0,16113.0,13.705430964786501
63870.17102039291,161389.0,143469.0,16079.0,13.715530766523443
63870.181120194655,161389.0,143470.0,16085.0,13.725630568267661
63870.1912199964,161390.0,143465.0,16093.0,13.73573037001188
63870.20131979814,161384.0,143446.0,16085.0,13.745830171756097
63870.21141959989,161372.0,143444.0,16066.0,13.755929973500315
63870.221519401624,161396.0,143466.0,16086.0,13.766029775237257
63870.23161920337,161405.0,143482.0,16067.0,13.776129576981475
63870.24171900511,161402.0,143459.0,16097.0,13.786229378725693
63870.25181880686,161378.0,143466.0,16080.0,13.796329180469911
63870.261918608594,161382.0,143468.0,16089.0,13.806428982206853
63870.27201841034,161408.0,143494.0,16112.0,13.816528783951071
63870.28211821208,161379.0,143469.0,16081.0,13.826628585695289
63870.29221801383,161412.0,143480.0,16075.0,13.836728387439507
63870.30231781557,161400.0,143482.0,16098.0,13.846828189183725
63870.31241761731,161418.0,143488.0,16118.0,13.856927990920667
63870.32251741905,161387.0,143454.0,16086.0,13.867027792664885
63870.332617220796,161442.0,143491.0,16118.0,13.877127594409103
63870.34271702254,161415.0,143484.0,16090.0,13.887227396153321
63870.35281682428,161457.0,143481.0,16106.0,13.897327197890263
63870.36291662602,161425.0,143478.0,16072.0,13.907426999634481
63870.373016427766,161469.0,143494.0,16127.0,13.917526801378699
63870.38311622951,161442.0,143509.0,16103.0,13.927626603122917
63870.393216031254,161420.0,143496.0,16110.0,13.937726404867135
63870.40331583299,161391.0,143477.0,16082.0,13.947826206604077
63870.413415634735,161462.0,143493.0,16123.0,13.957926008348295
63870.42351543648,161455.0,143489.0,16112.0,13.968025810092513
63870.433615238224,161415.0,143466.0,16108.0,13.978125611836731
63870.44371503997,161467.0,143499.0,16124.0,13.988225413580949
63870.453814841705,161428.0,143460.0,16123.0,13.998325215317891
63870.46391464345,161452.0,143488.0,16103.0,14.008425017062109
63870.47401444519,161453.0,143470.0,16128.0,14.018524818806327
63870.48411424694,161457.0,143500.0,16099.0,14.028624620550545
63870.49421404868,161482.0,143504.0,16129.0,14.038724422294763
63870.50431385042,161458.0,143499.0,16105.0,14.048824224031705
63870.51441365216,161457.0,143456.0,16127.0,14.058924025775923
63870.52451345391,161467.0,143516.0,16093.0,14.069023827520141
63870.53461325565,161434.0,143478.0,16088.0,14.079123629264359
63870.54471305739,161457.0,143483.0,16100.0,14.089223431001301
63870.55481285913,161444.0,143497.0,16108.0,14.099323232745519
63870.56491266088,161448.0,143481.0,16084.0,14.109423034489737
63870.57501246262,161409.0,143453.0,16096.0,14.119522836233955
63870.585112264365,161423.0,143478.0,16076.0,14.129622637978173
63870.5952120661,161395.0,143470.0,16097.0,14.139722439715115
63870.60531186785,161375.0,143474.0,16094.0,14.149822241459333
63870.61541166959,161345.0,143430.0,16065.0,14.15992204320355
63870.625511471335,161330.0,143460.0,16066.0,14.170021844947769
63870.63561127307,161360.0,143444.0,16062.0,14.18012164668471
63870.645711074816,161351.0,143416.0,16069.0,14.190221448428929
63870.65581087656,161364.0,143447.0,16039.0,14.200321250173147
63870.665910678304,161352.0,143443.0,16068.0,14.210421051917365
63870.67601048005,161350.0,143434.0,16068.0,14.220520853661583
63870.686110281786,161344.0,143456.0,16085.0,14.230620655398525
63870.69621008353,161334.0,143443.0,16042.0,14.240720457142743
63870.706309885274,161367.0,143464.0,16085.0,14.25082025888696
63870.71640968702,161366.0,143454.0,16066.0,14.260920060631179
63870.72650948876,161366.0,143427.0,16076.0,14.271019862375397
63870.7366092905,161362.0,143417.0,16066.0,14.281119664112339
63870.746709092244,161403.0,143484.0,16089.0,14.291219465856557
63870.75680889399,161366.0,143456.0,16071.0,14.301319267600775
63870.76690869573,161362.0,143469.0,16071.0,14.311419069344993
63870.77700849747,161378.0,143465.0,16073.0,14.321518871081935
63870.78710829921,161381.0,143438.0,16086.0,14.331618672826153
63870.79720810096,161375.0,143455.0,16080.0,14.34171847457037
63870.8073079027,161367.0,143450.0,16062.0,14.351818276314589
63870.817407704446,161416.0,143484.0,16091.0,14.361918078058807
63870.82750750618,161411.0,143490.0,16104.0,14.372017879795749
63870.83760730793,161382.0,143475.0,16082.0,14.382117681539967
63870.84770710967,161413.0,143465.0,16097.0,14.392217483284185
63870.857806911416,161404.0,143473.0,16106.0,14.402317285028403
63870.86790671316,161365.0,143444.0,16060.0,14.41241708677262
63870.8780065149,161391.0,143453.0,16090.0,14.422516888509563
63870.88810631664,161399.0,143487.0,16079.0,14.43261669025378
63870.898206118385,161398.0,143485.0,16098.0,14.442716491997999
63870.90830592013,161354.0,143449.0,16080.0,14.452816293742217
63870.918405721866,161352.0,143462.0,16052.0,14.462916095479159
63870.92850552361,161358.0,143447.0,16108.0,14.473015897223377
63870.938605325355,161400.0,143459.0,16088.0,14.483115698967595
63870.9487051271,161410.0,143480.0,16064.0,14.493215500711813
63870.95880492884,161378.0,143444.0,16108.0,14.50331530245603
63870.96890473058,161379.0,143484.0,16076.0,14.513415104192973
63870.979004532324,161372.0,143439.0,16085.0,14.52351490593719
63870.98910433407,161376.0,143458.0,16076.0,14.533614707681409
63870.99920413581,161401.0,143469.0,16097.0,14.543714509425627
63871.00930393756,161399.0,143479.0,16094.0,14.553814311169845
63871.019403739294,161374.0,143444.0,16073.0,14.563914112906787
63871.02950354104,161370.0,143438.0,16081.0,14.574013914651005
63871.03960334278,161382.0,143479.0,16107.0,14.584113716395223
63871.04970314453,161410.0,143432.0,16103.0,14.59421351813944
63871.05980294626,161366.0,143451.0,16059.0,14.604313319876383
63871.06990274801,161398.0,143487.0,16115.0,14.6144131216206
63871.08000254975,161390.0,143494.0,16095.0,14.624512923364819
63871.090102351496,161433.0,143458.0,16087.0,14.634612725109037
63871.10020215324,161406.0,143425.0,16090.0,14.644712526853255
63871.11030195498,161430.0,143480.0,16069.0,14.654812328590197
63871.12040175672,161420.0,143472.0,16130.0,14.664912130334415
63871.130501558466,161422.0,143480.0,16099.0,14.675011932078633
63871.14060136021,161406.0,143460.0,16087.0,14.68511173382285
63871.150701161954,161440.0,143444.0,16118.0,14.695211535567068
63871.16080096369,161434.0,143477.0,16095.0,14.70531133730401
63871.170900765435,161419.0,143469.0,16099.0,14.715411139048229
63871.18100056718,161429.0,143489.0,16096.0,14.725510940792446
63871.191100368924,161439.0,143503.0,16124.0,14.735610742536664
63871.20120017066,161404.0,143466.0,16105.0,14.745710544273607
63871.211299972405,161437.0,143479.0,16099.0,14.755810346017824
63871.22139977415,161432.0,143493.0,16090.0,14.765910147762042
63871.23149957589,161448.0,143483.0,16085.0,14.77600994950626
63871.24159937764,161469.0,143460.0,16130.0,14.786109751250478
63871.251699179375,161441.0,143476.0,16105.0,14.79620955298742
63871.26179898112,161445.0,143506.0,16130.0,14.806309354731638
63871.27189878286,161422.0,143470.0,16115.0,14.816409156475856
63871.28199858461,161454.0,143490.0,16093.0,14.826508958220074
63871.29209838635,161440.0,143475.0,16107.0,14.836608759964292
63871.30219818809,161412.0,143486.0,16086.0,14.846708561701234
63871.31229798983,161361.0,143451.0,16066.0,14.856808363445452
63871.32239779158,161376.0,143433.0,16069.0,14.86690816518967
63871.33249759332,161367.0,143441.0,16085.0,14.877007966933888
63871.34259739506,161353.0,143426.0,16048.0,14.88710776867083
63871.3526971968,161309.0,143427.0,16051.0,14.897207570415048
63871.36279699855,161308.0,143418.0,16044.0,14.907307372159266
63871.37289680029,161325.0,143424.0,16048.0,14.917407173903484
63871.382996602035,161298.0,143381.0,16072.0,14.927506975647702
63871.39309640377,161339.0,143438.0,16072.0,14.937606777384644
63871.403196205516,161305.0,143417.0,16035.0,14.947706579128862
63871.41329600726,161317.0,143418.0,16086.0,14.95780638087308
63871.423395809004,161313.0,143391.0,16052.0,14.967906182617298
63871.43349561075,161318.0,143419.0,16049.0,14.978005984361516
63871.443595412486,161294.0,143410.0,16046.0,14.988105786098458
63871.45369521423,161307.0,143420.0,16028.0,14.998205587842676
63871.463795015974,161325.0,143415.0,16067.0,15.008305389586894
63871.47389481772,161348.0,143459.0,16072.0,15.018405191331112
63871.483994619455,161316.0,143390.0,16077.0,15.028504993068054
63871.4940944212,161349.0,143452.0,16054.0,15.038604794812272
63871.50419422294,161326.0,143420.0,16062.0,15.04870459655649
63871.51429402469,161328.0,143412.0,16060.0,15.058804398300708
63871.52439382643,161316.0,143429.0,16058.0,15.068904200044926
63871.53449362817,161353.0,143418.0,16082.0,15.079004001781868
63871.54459342991,161339.0,143412.0,16062.0,15.089103803526086
63871.55469323166,161322.0,143440.0,16051.0,15.099203605270304
63871.5647930334,161344.0,143419.0,16081.0,15.109303407014522
63871.574892835146,161357.0,143446.0,16096.0,15.11940320875874
63871.58499263688,161373.0,143466.0,16076.0,15.129503010495682
63871.59509243863,161362.0,143413.0,16083.0,15.1396028122399
63871.60519224037,161320.0,143461.0,16067.0,15.149702613984118
63871.615292042115,161342.0,143410.0,16060.0,15.159802415728336
63871.62539184385,161334.0,143420.0,16068.0,15.169902217465278
63871.6354916456,161316.0,143423.0,16081.0,15.180002019209496
63871.64559144734,161362.0,143420.0,16085.0,15.190101820953714
63871.655691249085,161332.0,143435.0,16092.0,15.200201622697932
63871.66579105083,161333.0,143419.0,16068.0,15.21030142444215
63871.675890852566,161315.0,143455.0,16067.0,15.220401226179092
63871.68599065431,161315.0,143426.0,16056.0,15.23050102792331
63871.696090456055,161305.0,143397.0,16073.0,15.240600829667528
63871.7061902578,161340.0,143419.0,16067.0,15.250700631411746
63871.71629005954,161313.0,143364.0,16050.0,15.260800433155964
63871.72638986128,161346.0,143402.0,16089.0,15.270900234892906
63871.736489663024,161322.0,143421.0,16050.0,15.281000036637124
63871.74658946477,161340.0,143428.0,16069.0,15.291099838381342
63871.75668926651,161389.0,143432.0,16100.0,15.30119964012556
63871.76678906825,161377.0,143439.0,16071.0,15.311299441862502
63871.776888869994,161341.0,143417.0,16087.0,15.32139924360672
63871.78698867174,161351.0,143440.0,16073.0,15.331499045350938
63871.79708847348,161356.0,143430.0,16085.0,15.341598847095156
63871.80718827523,161358.0,143419.0,16064.0,15.351698648839374
63871.81728807696,161381.0,143444.0,16084.0,15.361798450576316
63871.82738787871,161378.0,143442.0,16079.0,15.371898252320534
63871.83748768045,161379.0,143439.0,16087.0,15.381998054064752
63871.847587482196,161372.0,143457.0,16073.0,15.39209785580897
63871.85768728394,161351.0,143422.0,16082.0,15.402197657553188
63871.86778708568,161364.0,143445.0,16108.0,15.41229745929013
63871.87788688742,161377.0,143458.0,16085.0,15.422397261034348
63871.887986689166,161361.0,143454.0,16081.0,15.432497062778566
63871.89808649091,161389.0,143463.0,16107.0,15.442596864522784
63871.90818629265,161376.0,143437.0,16088.0,15.452696666259726
63871.91828609439,161379.0,143463.0,16082.0,15.462796468003944
63871.928385896135,161384.0,143435.0,16066.0,15.472896269748162
63871.93848569788,161410.0,143445.0,16105.0,15.48299607149238
63871.948585499624,161359.0,143412.0,16093.0,15.493095873236598
63871.95868530136,161396.0,143448.0,16082.0,15.50319567497354
63871.968785103105,161400.0,143429.0,16107.0,15.513295476717758
63871.97888490485,161364.0,143415.0,16100.0,15.523395278461976
63871.98898470659,161385.0,143426.0,16075.0,15.533495080206194
63871.99908450834,161393.0,143435.0,16094.0,15.543594881950412
63872.009184310074,161398.0,143437.0,16116.0,15.553694683687354
63872.01928411182,161387.0,143431.0,16114.0,15.563794485431572
63872.02938391356,161376.0,143433.0,16076.0,15.57389428717579
63872.03948371531,161411.0,143439.0,16094.0,15.583994088920008
63872.049583517044,161433.0,143451.0,16110.0,15.59409389065695
63872.05968331879,161399.0,143406.0,16105.0,15.604193692401168
63872.06978312053,161386.0,143412.0,16098.0,15.614293494145386
63872.07988292228,161388.0,143440.0,16102.0,15.624393295889604
63872.08998272402,161362.0,143426.0,16073.0,15.634493097633822
63872.10008252576,161318.0,143424.0,16064.0,15.644592899370764
63872.1101823275,161330.0,143417.0,16072.0,15.654692701114982
63872.120282129246,161306.0,143405.0,16079.0,15.6647925028592
63872.13038193099,161302.0,143372.0,16055.0,15.674892304603418
63872.140481732735,161249.0,143371.0,16040.0,15.684992106347636
63872.15058153447,161305.0,143411.0,16010.0,15.695091908084578
63872.160681336216,161290.0,143386.0,16048.0,15.705191709828796
63872.17078113796,161241.0,143408.0,16039.0,15.715291511573014
63872.180880939704,161256.0,143353.0,16032.0,15.725391313317232
63872.19098074144,161297.0,143391.0,16064.0,15.735491115054174
63872.201080543186,161272.0,143386.0,16044.0,15.745590916798392
63872.21118034493,161261.0,143377.0,16028.0,15.75569071854261
63872.221280146674,161270.0,143383.0,16015.0,15.765790520286828
63872.23137994842,161292.0,143404.0,16076.0,15.775890322031046
63872.241479750155,161291.0,143400.0,16042.0,15.785990123767988
63872.2515795519,161260.0,143429.0,16035.0,15.796089925512206
63872.26167935364,161250.0,143421.0,16049.0,15.806189727256424
63872.27177915539,161233.0,143394.0,16043.0,15.816289529000642
63872.28187895713,161247.0,143377.0,16058.0,15.82638933074486
63872.29197875887,161226.0,143358.0,16045.0,15.836489132481802
63872.30207856061,161243.0,143378.0,16051.0,15.84658893422602
63872.31217836236,161185.0,143326.0,16077.0,15.856688735970238
63872.3222781641,161216.0,143346.0,16059.0,15.866788537714456
63872.33237796584,161189.0,143344.0,16077.0,15.876888339451398
63872.34247776758,161236.0,143360.0,16056.0,15.886988141195616
63872.35257756933,161208.0,143307.0,16078.0,15.897087942939834
63872.36267737107,161227.0,143350.0,16055.0,15.907187744684052
63872.372777172815,161205.0,143314.0,16056.0,15.91728754642827
63872.38287697455,161243.0,143348.0,16049.0,15.927387348165212
63872.3929767763,161245.0,143333.0,16072.0,15.93748714990943
63872.40307657804,161259.0,143344.0,16051.0,15.947586951653648
63872.413176379785,161241.0,143364.0,16050.0,15.957686753397866
63872.42327618153,161269.0,143339.0,16038.0,15.967786555142084
63872.433375983266,161274.0,143349.0,16055.0,15.977886356879026
63872.44347578501,161307.0,143403.0,16069.0,15.987986158623244
63872.453575586755,161291.0,143368.0,16057.0,15.998085960367462
63872.4636753885,161287.0,143373.0,16072.0,16.00818576211168
63872.473775190236,161326.0,143389.0,16074.0,16.01828556384862
63872.48387499198,161316.0,143362.0,16061.0,16.02838536559284
63872.493974793724,161301.0,143383.0,16069.0,16.038485167337058
63872.50407459547,161276.0,143351.0,16055.0,16.048584969081276
63872.51417439721,161326.0,143414.0,16054.0,16.058684770825494
63872.52427419895,161352.0,143387.0,16090.0,16.068784572562436
63872.534374000694,161319.0,143390.0,16068.0,16.078884374306654
63872.54447380244,161312.0,143377.0,16052.0,16.08898417605087
63872.55457360418,161285.0,143403.0,16080.0,16.09908397779509
63872.56467340593,161348.0,143394.0,16080.0,16.109183779539308
63872.57477320766,161343.0,143407.0,16080.0,16.11928358127625
63872.58487300941,161332.0,143400.0,16059.0,16.129383383020468
63872.59497281115,161346.0,143426.0,16094.0,16.139483184764686
63872.605072612896,161306.0,143373.0,16062.0,16.149582986508904
63872.61517241463,161347.0,143405.0,16078.0,16.159682788245846
63872.62527221638,161304.0,143402.0,16070.0,16.169782589990064
63872.63537201812,161377.0,143438.0,16097.0,16.17988239173428
63872.645471819866,161326.0,143389.0,16096.0,16.1899821934785
63872.65557162161,161358.0,143398.0,16075.0,16.200081995222718
63872.66567142335,161332.0,143416.0,16088.0,16.21018179695966
63872.67577122509,161338.0,143382.0,16097.0,16.220281598703878
63872.685871026835,161332.0,143407.0,16064.0,16.230381400448096
63872.69597082858,161361.0,143417.0,16087.0,16.240481202192314
63872.706070630324,161365.0,143407.0,16086.0,16.25058100393653
63872.71617043206,161371.0,143405.0,16093.0,16.260680805673474
63872.726270233805,161350.0,143377.0,16084.0,16.27078060741769
63872.73637003555,161365.0,143412.0,16086.0,16.28088040916191
63872.74646983729,161388.0,143441.0,16100.0,16.290980210906127
63872.75656963903,161366.0,143400.0,16077.0,16.30108001264307
63872.766669440774,161401.0,143443.0,16114.0,16.311179814387287
63872.77676924252,161371.0,143412.0,16098.0,16.321279616131505
63872.78686904426,161368.0,143375.0,16137.0,16.331379417875723
63872.79696884601,161379.0,143452.0,16096.0,16.34147921961994
63872.807068647744,161375.0,143413.0,16068.0,16.351579021356883
63872.81716844949,161361.0,143413.0,16125.0,16.3616788231011
63872.82726825123,161352.0,143416.0,16099.0,16.37177862484532
63872.83736805298,161364.0,143405.0,16082.0,16.381878426589537
63872.84746785472,161367.0,143429.0,16123.0,16.391978228333755
63872.85756765646,161351.0,143403.0,16092.0,16.402078030070697
63872.8676674582,161370.0,143400.0,16089.0,16.412177831814915
63872.877767259946,161364.0,143415.0,16080.0,16.422277633559133
63872.88786706169,161339.0,143403.0,16092.0,16.43237743530335
63872.89796686343,161305.0,143354.0,16056.0,16.442477237040293
63872.90806666517,161296.0,143370.0,16065.0,16.45257703878451
63872.918166466916,161250.0,143380.0,16082.0,16.46267684052873
63872.92826626866,161268.0,143343.0,16066.0,16.472776642272947
63872.938366070404,161211.0,143320.0,16032.0,16.482876444017165
63872.94846587214,161238.0,143335.0,16047.0,16.492976245754107
63872.958565673885,161226.0,143333.0,16043.0,16.503076047498325
63872.96866547563,161244.0,143358.0,16052.0,16.513175849242543
63872.978765277374,161225.0,143347.0,16022.0,16.52327565098676
63872.98886507912,161256.0,143349.0,16048.0,16.53337545273098
63872.998964880855,161271.0,143361.0,16058.0,16.54347525446792
63873.0090646826,161235.0,143330.0,16054.0,16.55357505621214
63873.01916448434,161257.0,143335.0,16023.0,16.563674857956357
63873.02926428609,161254.0,143359.0,16038.0,16.573774659700575
63873.039364087825,161288.0,143387.0,16063.0,16.583874461437517
63873.04946388957,161260.0,143333.0,16046.0,16.593974263181735
63873.05956369131,161259.0,143369.0,16041.0,16.604074064925953
63873.06966349306,161287.0,143367.0,16047.0,16.61417386667017
63873.0797632948,161303.0,143396.0,16046.0,16.62427366841439
63873.08986309654,161297.0,143347.0,16048.0,16.63437347015133
63873.09996289828,161308.0,143413.0,16085.0,16.64447327189555
63873.11006270003,161297.0,143377.0,16059.0,16.654573073639767
63873.12016250177,161302.0,143392.0,16067.0,16.664672875383985
63873.130262303515,161291.0,143366.0,16050.0,16.674772677128203
63873.14036210525,161327.0,143413.0,16074.0,16.684872478865145
63873.150461907,161296.0,143391.0,16056.0,16.694972280609363
63873.16056170874,161304.0,143394.0,16049.0,16.70507208235358
63873.170661510485,161319.0,143388.0,16031.0,16.7151718840978
63873.18076131222,161292.0,143373.0,16081.0,16.72527168583474
63873.190861113966,161324.0,143364.0,16053.0,16.73537148757896
63873.20096091571,161268.0,143379.0,16050.0,16.745471289323177
63873.211060717455,161279.0,143405.0,16062.0,16.755571091067395
63873.2211605192,161331.0,143397.0,16078.0,16.765670892811613
63873.231260320936,161306.0,143384.0,16050.0,16.775770694548555
63873.24136012268,161314.0,143374.0,16071.0,16.785870496292773
63873.251459924424,161279.0,143357.0,16050.0,16.79597029803699
63873.26155972617,161332.0,143414.0,16054.0,16.80607009978121
63873.27165952791,161301.0,143393.0,16046.0,16.816169901525427
63873.28175932965,161294.0,143363.0,16081.0,16.82626970326237
63873.291859131394,161312.0,143383.0,16045.0,16.836369505006587
63873.30195893314,161329.0,143407.0,16090.0,16.846469306750805
63873.31205873488,161301.0,143379.0,16059.0,16.856569108495023
63873.32215853662,161252.0,143352.0,16046.0,16.866668910231965
63873.33225833836,161304.0,143395.0,16080.0,16.876768711976183
63873.34235814011,161273.0,143358.0,16058.0,16.8868685137204
63873.35245794185,161335.0,143393.0,16094.0,16.89696831546462
63873.362557743596,161299.0,143398.0,16066.0,16.907068117208837
63873.37265754533,161329.0,143407.0,16070.0,16.91716791894578
63873.38275734708,161296.0,143355.0,16053.0,16.927267720689997
63873.39285714882,161307.0,143391.0,16047.0,16.937367522434215
63873.402956950566,161322.0,143385.0,16068.0,16.947467324178433
63873.41305675231,161324.0,143361.0,16095.0,16.95756712592265
63873.42315655405,161332.0,143405.0,16080.0,16.967666927659593
63873.43325635579,161339.0,143388.0,16102.0,16.97776672940381
63873.443356157535,161335.0,143401.0,16087.0,16.98786653114803
63873.45345595928,161355.0,143405.0,16058.0,16.997966332892247
63873.463555761016,161335.0,143400.0,16058.0,17.00806613462919
63873.47365556276,161362.0,143408.0,16110.0,17.018165936373407
63873.483755364505,161340.0,143400.0,16079.0,17.028265738117625
63873.49385516625,161342.0,143420.0,16100.0,17.038365539861843
63873.50395496799,161336.0,143408.0,16072.0,17.04846534160606
63873.51405476973,161372.0,143418.0,16110.0,17.058565143343003
63873.524154571474,161350.0,143391.0,16069.0,17.06866494508722
63873.53425437322,161339.0,143391.0,16064.0,17.07876474683144
63873.54435417496,161358.0,143431.0,16114.0,17.088864548575657
63873.55445397671,161341.0,143394.0,16064.0,17.098964350319875
63873.564553778444,161370.0,143407.0,16087.0,17.109064152056817
63873.57465358019,161344.0,143398.0,16096.0,17.119163953801035
63873.58475338193,161395.0,143425.0,16117.0,17.129263755545253
63873.59485318368,161340.0,143418.0,16110.0,17.13936355728947
63873.60495298541,161374.0,143404.0,16094.0,17.149463359026413
63873.61505278716,161352.0,143395.0,16066.0,17.15956316077063
63873.6251525889,161386.0,143432.0,16077.0,17.16966296251485
63873.635252390646,161356.0,143409.0,16064.0,17.179762764259067
63873.64535219239,161389.0,143418.0,16091.0,17.189862566003285
63873.65545199413,161368.0,143414.0,16100.0,17.199962367740227
63873.66555179587,161384.0,143389.0,16111.0,17.210062169484445
63873.675651597616,161331.0,143388.0,16060.0,17.220161971228663
63873.68575139936,161343.0,143393.0,16080.0,17.23026177297288
63873.695851201104,161321.0,143380.0,16050.0,17.2403615747171
63873.70595100284,161332.0,143399.0,16098.0,17.25046137645404
63873.716050804585,161277.0,143353.0,16040.0,17.26056117819826
63873.72615060633,161284.0,143383.0,16045.0,17.270660979942477
63873.736250408074,161280.0,143380.0,16046.0,17.280760781686695
63873.74635020981,161258.0,143359.0,16035.0,17.290860583423637
63873.756450011555,161276.0,143375.0,16023.0,17.300960385167855
63873.7665498133,161265.0,143368.0,16062.0,17.311060186912073
63873.77664961504,161253.0,143371.0,16045.0,17.32115998865629
63873.78674941679,161227.0,143343.0,16056.0,17.33125979040051
63873.796849218525,161227.0,143365.0,16036.0,17.34135959213745
63873.80694902027,161284.0,143368.0,16059.0,17.35145939388167
63873.81704882201,161270.0,143380.0,16049.0,17.361559195625887
63873.82714862376,161249.0,143342.0,16044.0,17.371658997370105
63873.837248425494,161287.0,143397.0,16074.0,17.381758799107047
63873.84734822724,161262.0,143342.0,16031.0,17.391858600851265
63873.85744802898,161237.0,143365.0,16028.0,17.401958402595483
63873.86754783073,161272.0,143372.0,16042.0,17.4120582043397
63873.87764763247,161280.0,143393.0,16057.0,17.42215800608392
63873.88774743421,161286.0,143365.0,16071.0,17.43225780782086
63873.89784723595,161283.0,143380.0,16059.0,17.44235760956508
63873.9079470377,161292.0,143366.0,16040.0,17.452457411309297
63873.91804683944,161312.0,143399.0,16068.0,17.462557213053515
63873.928146641185,161277.0,143379.0,16062.0,17.472657014797733
63873.93824644292,161289.0,143386.0,16064.0,17.482756816534675
63873.948346244666,161291.0,143370.0,16058.0,17.492856618278893
63873.95844604641,161282.0,143360.0,16067.0,17.50295642002311
63873.968545848154,161268.0,143361.0,16044.0,17.51305622176733
63873.9786456499,161267.0,143367.0,16062.0,17.523156023511547
63873.988745451636,161275.0,143344.0,16050.0,17.53325582524849
63873.99884525338,161261.0,143369.0,16070.0,17.543355626992707
63874.008945055124,161231.0,143327.0,16040.0,17.553455428736925
63874.01904485687,161239.0,143346.0,16043.0,17.563555230481143
63874.029144658605,161219.0,143355.0,16057.0,17.573655032218085
63874.03924446035,161221.0,143334.0,16033.0,17.583754833962303
63874.049344262094,161261.0,143361.0,16060.0,17.59385463570652
63874.05944406384,161245.0,143352.0,16063.0,17.60395443745074
63874.06954386558,161238.0,143365.0,16066.0,17.614054239194957
63874.07964366732,161230.0,143342.0,16050.0,17.6241540409319
63874.08974346906,161241.0,143352.0,16034.0,17.634253842676117
63874.09984327081,161267.0,143364.0,16065.0,17.644353644420335
63874.10994307255,161288.0,143363.0,16052.0,17.654453446164553
63874.12004287429,161252.0,143331.0,16056.0,17.664553247901495
63874.13014267603,161321.0,143384.0,16074.0,17.674653049645713
63874.14024247778,161298.0,143380.0,16073.0,17.68475285138993
63874.15034227952,161282.0,143373.0,16056.0,17.69485265313415
63874.160442081266,161300.0,143406.0,16087.0,17.704952454878367
63874.170541883,161317.0,143382.0,16071.0,17.71505225661531
63874.18064168475,161313.0,143389.0,16083.0,17.725152058359527
63874.19074148649,161340.0,143386.0,16075.0,17.735251860103745
63874.200841288235,161317.0,143385.0,16062.0,17.745351661847963
63874.21094108998,161344.0,143417.0,16063.0,17.75545146359218
63874.221040891716,161341.0,143407.0,16107.0,17.765551265329123
63874.23114069346,161355.0,143412.0,16088.0,17.77565106707334
63874.241240495205,161370.0,143421.0,16106.0,17.78575086881756
63874.25134029695,161362.0,143420.0,16111.0,17.795850670561776
63874.26144009869,161327.0,143412.0,16084.0,17.805950472305994
63874.27153990043,161334.0,143399.0,16083.0,17.816050274042937
63874.281639702174,161373.0,143417.0,16073.0,17.826150075787154
63874.29173950392,161369.0,143440.0,16107.0,17.836249877531372
63874.30183930566,161350.0,143395.0,16095.0,17.84634967927559
63874.3119391074,161374.0,143426.0,16078.0,17.856449481012532
63874.322038909144,161366.0,143460.0,16087.0,17.86654928275675
63874.33213871089,161358.0,143440.0,16089.0,17.87664908450097
63874.34223851263,161404.0,143448.0,16089.0,17.886748886245186
63874.35233831438,161395.0,143428.0,16094.0,17.896848687989404
63874.36243811611,161386.0,143421.0,16111.0,17.906948489726346
63874.37253791786,161371.0,143410.0,16108.0,17.917048291470564
63874.3826377196,161387.0,143433.0,16079.0,17.927148093214782
63874.392737521346,161404.0,143438.0,16123.0,17.937247894959
63874.40283732308,161436.0,143446.0,16127.0,17.947347696695942
63874.41293712483,161387.0,143422.0,16108.0,17.95744749844016
63874.42303692657,161385.0,143436.0,16085.0,17.96754730018438
63874.433136728316,161402.0,143441.0,16096.0,17.977647101928596
63874.44323653006,161370.0,143427.0,16096.0,17.987746903672814
63874.4533363318,161365.0,143416.0,16064.0,17.997846705409756
63874.46343613354,161402.0,143415.0,16101.0,18.007946507153974
63874.473535935285,161343.0,143403.0,16080.0,18.018046308898192
63874.48363573703,161319.0,143387.0,16074.0,18.02814611064241
63874.493735538774,161285.0,143359.0,16047.0,18.03824591238663
63874.50383534051,161268.0,143378.0,16041.0,18.04834571412357
63874.513935142255,161274.0,143368.0,16043.0,18.05844551586779
63874.524034944,161230.0,143337.0,16024.0,18.068545317612006
63874.53413474574,161284.0,143389.0,16056.0,18.078645119356224
63874.54423454749,161242.0,143318.0,16042.0,18.088744921100442
63874.554334349225,161254.0,143372.0,16038.0,18.098844722837384
63874.56443415097,161243.0,143363.0,16009.0,18.108944524581602
63874.57453395271,161250.0,143363.0,16044.0,18.11904432632582
63874.58463375446,161277.0,143382.0,16055.0,18.12914412807004
63874.594733556194,161258.0,143364.0,16042.0,18.13924392980698
63874.60483335794,161225.0,143360.0,16019.0,18.1493437315512
63874.61493315968,161265.0,143364.0,16029.0,18.159443533295416
63874.62503296143,161293.0,143377.0,16042.0,18.169543335039634
63874.63513276317,161253.0,143368.0,16049.0,18.179643136783852
63874.64523256491,161266.0,143345.0,16053.0,18.189742938520794
63874.65533236665,161238.0,143353.0,16063.0,18.199842740265012
63874.6654321684,161268.0,143381.0,16055.0,18.20994254200923
63874.67553197014,161255.0,143371.0,16035.0,18.220042343753448
63874.68563177188,161244.0,143362.0,16063.0,18.23014214549039
63874.69573157362,161273.0,143363.0,16040.0,18.24024194723461
63874.705831375366,161267.0,143335.0,16065.0,18.250341748978826
63874.71593117711,161286.0,143377.0,16049.0,18.260441550723044
63874.726030978854,161289.0,143380.0,16061.0,18.270541352467262
63874.73613078059,161244.0,143371.0,16062.0,18.280641154204204
63874.746230582336,161249.0,143398.0,16052.0,18.290740955948422
63874.75633038408,161301.0,143367.0,16069.0,18.30084075769264
63874.766430185824,161291.0,143404.0,16055.0,18.310940559436858
63874.77652998757,161270.0,143370.0,16047.0,18.321040361181076
63874.786629789305,161259.0,143346.0,16031.0,18.331140162918018
63874.79672959105,161319.0,143403.0,16082.0,18.341239964662236
63874.80682939279,161274.0,143374.0,16068.0,18.351339766406454
63874.81692919454,161280.0,143356.0,16055.0,18.361439568150672
63874.82702899628,161274.0,143391.0,16059.0,18.37153936989489
63874.83712879802,161263.0,143401.0,16066.0,18.381639171631832
63874.84722859976,161278.0,143386.0,16060.0,18.39173897337605
63874.85732840151,161280.0,143352.0,16047.0,18.401838775120268
63874.86742820325,161280.0,143394.0,16071.0,18.411938576864486
63874.87752800499,161324.0,143391.0,16082.0,18.422038378601428
63874.88762780673,161292.0,143382.0,16057.0,18.432138180345646
63874.89772760848,161327.0,143400.0,16042.0,18.442237982089864
63874.90782741022,161279.0,143372.0,16044.0,18.452337783834082
63874.917927211965,161287.0,143384.0,16060.0,18.4624375855783
63874.9280270137,161303.0,143386.0,16064.0,18.472537387315242
63874.93812681545,161304.0,143379.0,16050.0,18.48263718905946
63874.94822661719,161282.0,143360.0,16048.0,18.492736990803678
63874.958326418935,161306.0,143383.0,16071.0,18.502836792547896
63874.96842622067,161306.0,143395.0,16058.0,18.512936594284838
63874.978526022416,161320.0,143420.0,16068.0,18.523036396029056
63874.98862582416,161319.0,143412.0,16081.0,18.533136197773274
63874.998725625905,161367.0,143417.0,16084.0,18.543235999517492
63875.00882542765,161341.0,143405.0,16081.0,18.55333580126171
63875.018925229386,161330.0,143409.0,16062.0,18.563435602998652
63875.02902503113,161341.0,143425.0,16046.0,18.57353540474287
63875.039124832874,161366.0,143430.0,16100.0,18.583635206487088
63875.04922463462,161362.0,143408.0,16083.0,18.593735008231306
63875.05932443636,161367.0,143419.0,16078.0,18.603834809975524
63875.0694242381,161370.0,143392.0,16106.0,18.613934611712466
63875.079524039844,161354.0,143425.0,16086.0,18.624034413456684
63875.08962384159,161369.0,143419.0,16086.0,18.634134215200902
63875.09972364333,161343.0,143416.0,16107.0,18.64423401694512
63875.10982344508,161362.0,143408.0,16065.0,18.654333818689338
63875.11992324681,161354.0,143409.0,16085.0,18.66443362042628
63875.13002304856,161383.0,143432.0,16089.0,18.674533422170498
63875.1401228503,161379.0,143418.0,16085.0,18.684633223914716
63875.150222652046,161386.0,143443.0,16112.0,18.694733025658934
63875.16032245378,161412.0,143458.0,16126.0,18.704832827395876
63875.17042225553,161385.0,143445.0,16082.0,18.714932629140094
63875.18052205727,161386.0,143424.0,16104.0,18.725032430884312
63875.190621859016,161365.0,143414.0,16103.0,18.73513223262853
63875.20072166076,161353.0,143412.0,16070.0,18.745232034372748
63875.2108214625,161412.0,143421.0,16112.0,18.75533183610969
63875.22092126424,161350.0,143411.0,16080.0,18.765431637853908
63875.231021065985,161339.0,143400.0,16088.0,18.775531439598126
63875.24112086773,161311.0,143362.0,16062.0,18.785631241342344
63875.25122066947,161287.0,143364.0,16043.0,18.795731043079286
63875.26132047121,161280.0,143380.0,16049.0,18.805830844823504
63875.271420272955,161269.0,143342.0,16041.0,18.815930646567722
63875.2815200747,161247.0,143368.0,16033.0,18.82603044831194
63875.29161987644,161271.0,143373.0,16064.0,18.836130250056158
63875.30171967818,161252.0,143362.0,16034.0,18.8462300517931
63875.311819479924,161242.0,143358.0,16015.0,18.856329853537318
63875.32191928167,161266.0,143370.0,16015.0,18.866429655281536
63875.33201908341,161232.0,143389.0,16029.0,18.876529457025754
63875.34211888516,161247.0,143355.0,16052.0,18.886629258769972
63875.352218686894,161225.0,143359.0,16030.0,18.896729060506914
63875.36231848864,161234.0,143345.0,16046.0,18.906828862251132
63875.37241829038,161269.0,143357.0,16043.0,18.91692866399535
63875.38251809213,161261.0,143381.0,16040.0,18.927028465739568
63875.39261789387,161252.0,143392.0,16036.0,18.937128267483786
63875.40271769561,161275.0,143399.0,16062.0,18.947228069220728
63875.41281749735,161267.0,143364.0,16051.0,18.957327870964946
63875.422917299096,161297.0,143384.0,16051.0,18.967427672709164
63875.43301710084,161283.0,143386.0,16060.0,18.97752747445338
63875.44311690258,161258.0,143372.0,16037.0,18.987627276190324
63875.45321670432,161267.0,143379.0,16066.0,18.99772707793454
63875.463316506066,161315.0,143369.0,16072.0,19.00782687967876
63875.47341630781,161287.0,143389.0,16085.0,19.017926681422978
63875.483516109554,161288.0,143390.0,16059.0,19.028026483167196
63875.49361591129,161263.0,143379.0,16039.0,19.038126284904138
63875.503715713035,161295.0,143384.0,16053.0,19.048226086648356
63875.51381551478,161316.0,143394.0,16085.0,19.058325888392574
63875.523915316524,161280.0,143353.0,16060.0,19.06842569013679
63875.53401511826,161302.0,143373.0,16061.0,19.078525491873734
63875.544114920005,161285.0,143385.0,16059.0,19.08862529361795
63875.55421472175,161314.0,143376.0,16077.0,19.09872509536217
63875.56431452349,161301.0,143420.0,16079.0,19.108824897106388
63875.57441432524,161283.0,143381.0,16063.0,19.118924698850606
63875.584514126975,161293.0,143390.0,16054.0,19.129024500587548
63875.59461392872,161257.0,143349.0,16057.0,19.139124302331766
63875.60471373046,161263.0,143361.0,16049.0,19.149224104075984
63875.61481353221,161300.0,143394.0,16039.0,19.1593239058202
63875.62491333395,161304.0,143388.0,16043.0,19.16942370756442
63875.63501313569,161306.0,143412.0,16069.0,19.17952350930136
63875.64511293743,161309.0,143399.0,16065.0,19.18962331104558
63875.65521273918,161294.0,143429.0,16083.0,19.199723112789798
63875.66531254092,161300.0,143396.0,16063.0,19.209822914534016
63875.675412342665,161340.0,143382.0,16065.0,19.219922716278234
63875.6855121444,161288.0,143410.0,16063.0,19.230022518015176
63875.69561194615,161365.0,143433.0,16097.0,19.240122319759394
63875.70571174789,161298.0,143381.0,16054.0,19.25022212150361
63875.715811549635,161345.0,143405.0,16087.0,19.26032192324783
63875.72591135137,161357.0,143454.0,16103.0,19.27042172498477
63875.736011153116,161318.0,143427.0,16064.0,19.28052152672899
63875.74611095486,161328.0,143389.0,16069.0,19.290621328473208
63875.756210756605,161339.0,143406.0,16077.0,19.300721130217426
63875.76631055835,161351.0,143428.0,16107.0,19.310820931961644
