timestamp,PPG_1,PPG_2,PPG_3,time_from_segment_start_sec
62858.88241683868,172392.0,142759.0,13899.0,0.0
62858.89252600278,172376.0,142748.0,13881.0,0.010109164104505908
62858.902635166894,172398.0,142756.0,13892.0,0.020218328216287773
62858.912744331,172366.0,142736.0,13883.0,0.03032749232079368
62858.9228534951,172388.0,142736.0,13880.0,0.04043665642529959
62858.932962659215,172396.0,142767.0,13917.0,0.050545820537081454
62858.94307182332,172391.0,142749.0,13876.0,0.06065498464158736
62858.953180987424,172349.0,142699.0,13909.0,0.07076414874609327
62858.963290151536,172385.0,142751.0,13892.0,0.08087331285787513
62858.97339931564,172394.0,142729.0,13892.0,0.09098247696238104
62858.983508479745,172369.0,142752.0,13893.0,0.10109164106688695
62858.99361764385,172399.0,142727.0,13891.0,0.11120080517139286
62859.00372680796,172393.0,142751.0,13885.0,0.12130996928317472
62859.013835972066,172414.0,142764.0,13895.0,0.13141913338768063
62859.02394513617,172391.0,142748.0,13911.0,0.14152829749218654
62859.03405430028,172391.0,142744.0,13900.0,0.1516374616039684
62859.04416346439,172357.0,142756.0,13892.0,0.1617466257084743
62859.05427262849,172392.0,142762.0,13898.0,0.17185578981298022
62859.0643817926,172410.0,142772.0,13919.0,0.18196495392476209
62859.07449095671,172395.0,142754.0,13897.0,0.192074118029268
62859.08460012081,172368.0,142738.0,13859.0,0.2021832821337739
62859.094709284924,172413.0,142756.0,13908.0,0.21229244624555577
62859.10481844903,172369.0,142724.0,13872.0,0.22240161035006167
62859.11492761313,172388.0,142756.0,13899.0,0.23251077445456758
62859.125036777245,172395.0,142749.0,13891.0,0.24261993856634945
62859.13514594135,172411.0,142746.0,13904.0,0.25272910267085535
62859.14525510545,172415.0,142743.0,13903.0,0.26283826677536126
62859.155364269565,172404.0,142758.0,13901.0,0.2729474308871431
62859.16547343367,172401.0,142758.0,13888.0,0.28305659499164904
62859.175582597774,172427.0,142762.0,13903.0,0.29316575909615494
62859.185691761886,172381.0,142736.0,13911.0,0.3032749232079368
62859.19580092599,172400.0,142749.0,13894.0,0.3133840873124427
62859.205910090095,172378.0,142754.0,13896.0,0.3234932514169486
62859.21601925421,172420.0,142746.0,13951.0,0.3336024155287305
62859.22612841831,172397.0,142761.0,13885.0,0.3437115796332364
62859.236237582416,172395.0,142746.0,13896.0,0.3538207437377423
62859.24634674653,172362.0,142719.0,13887.0,0.36392990784952417
62859.25645591063,172424.0,142760.0,13889.0,0.3740390719540301
62859.26656507474,172404.0,142769.0,13927.0,0.384148236058536
62859.27667423885,172407.0,142753.0,13909.0,0.39425740017031785
62859.28678340295,172369.0,142747.0,13886.0,0.40436656427482376
62859.29689256706,172383.0,142786.0,13898.0,0.41447572837932967
62859.30700173116,172392.0,142761.0,13885.0,0.4245848924838356
62859.317110895274,172406.0,142765.0,13901.0,0.43469405659561744
62859.32722005938,172390.0,142736.0,13897.0,0.44480322070012335
62859.33732922348,172439.0,142762.0,13925.0,0.45491238480462926
62859.347438387595,172433.0,142769.0,13903.0,0.4650215489164111
62859.3575475517,172417.0,142732.0,13904.0,0.47513071302091703
62859.3676567158,172397.0,142720.0,13929.0,0.48523987712542294
62859.377765879915,172393.0,142758.0,13897.0,0.4953490412372048
62859.38787504402,172409.0,142764.0,13898.0,0.5054582053417107
62859.397984208124,172410.0,142754.0,13889.0,0.5155673694462166
62859.408093372236,172401.0,142756.0,13905.0,0.5256765335579985
62859.41820253634,172418.0,142747.0,13875.0,0.5357856976625044
62859.428311700445,172430.0,142773.0,13923.0,0.5458948617670103
62859.43842086456,172408.0,142752.0,13906.0,0.5560040258787922
62859.44853002866,172401.0,142753.0,13909.0,0.5661131899832981
62859.458639192766,172387.0,142757.0,13892.0,0.576222354087804
62859.46874835688,172433.0,142751.0,13923.0,0.5863315181995858
62859.47885752098,172422.0,142733.0,13910.0,0.5964406823040918
62859.48896668509,172381.0,142722.0,13870.0,0.6065498464085977
62859.4990758492,172350.0,142724.0,13866.0,0.6166590105203795
62859.5091850133,172420.0,142760.0,13879.0,0.6267681746248854
62859.51929417741,172392.0,142733.0,13878.0,0.6368773387293913
62859.52940334152,172390.0,142734.0,13884.0,0.6469865028411732
62859.539512505624,172382.0,142751.0,13914.0,0.6570956669456791
62859.54962166973,172373.0,142766.0,13906.0,0.667204831050185
62859.55973083384,172400.0,142744.0,13916.0,0.6773139951619669
62859.569839997945,172378.0,142753.0,13879.0,0.6874231592664728
62859.57994916205,172359.0,142727.0,13890.0,0.6975323233709787
62859.59005832616,172405.0,142744.0,13904.0,0.7076414874827606
62859.600167490265,172402.0,142765.0,13904.0,0.7177506515872665
62859.61027665437,172382.0,142744.0,13878.0,0.7278598156917724
62859.620385818474,172347.0,142737.0,13886.0,0.7379689797962783
62859.630494982586,172387.0,142767.0,13910.0,0.7480781439080602
62859.64060414669,172389.0,142732.0,13903.0,0.7581873080125661
62859.650713310795,172385.0,142740.0,13894.0,0.768296472117072
62859.66082247491,172405.0,142741.0,13875.0,0.7784056362288538
62859.67093163901,172382.0,142751.0,13872.0,0.7885148003333597
62859.681040803116,172409.0,142775.0,13918.0,0.7986239644378657
62859.69114996723,172403.0,142757.0,13891.0,0.8087331285496475
62859.70125913133,172349.0,142763.0,13906.0,0.8188422926541534
62859.71136829544,172400.0,142771.0,13917.0,0.8289514567586593
62859.72147745955,172353.0,142739.0,13886.0,0.8390606208704412
62859.73158662365,172390.0,142751.0,13894.0,0.8491697849749471
62859.74169578776,172356.0,142721.0,13896.0,0.859278949079453
62859.75180495187,172386.0,142732.0,13885.0,0.8693881131912349
62859.761914115974,172402.0,142764.0,13893.0,0.8794972772957408
62859.77202328008,172380.0,142741.0,13918.0,0.8896064414002467
62859.78213244419,172377.0,142734.0,13898.0,0.8997156055120286
62859.792241608295,172381.0,142738.0,13888.0,0.9098247696165345
62859.8023507724,172412.0,142769.0,13906.0,0.9199339337210404
62859.81245993651,172428.0,142759.0,13909.0,0.9300430978328222
62859.822569100616,172391.0,142771.0,13889.0,0.9401522619373281
62859.83267826472,172416.0,142766.0,13871.0,0.9502614260418341
62859.84278742883,172408.0,142769.0,13903.0,0.9603705901536159
62859.852896592936,172368.0,142742.0,13908.0,0.9704797542581218
62859.86300575704,172396.0,142749.0,13896.0,0.9805889183626277
62859.87311492115,172379.0,142742.0,13889.0,0.9906980824744096
62859.88322408526,172400.0,142785.0,13902.0,1.0008072465789155
62859.89333324936,172425.0,142763.0,13926.0,1.0109164106834214
62859.90344241347,172392.0,142746.0,13895.0,1.0210255747952033
62859.91355157758,172364.0,142733.0,13885.0,1.0311347388997092
62859.92366074168,172418.0,142760.0,13899.0,1.041243903004215
62859.93376990579,172390.0,142731.0,13909.0,1.051353067108721
62859.9438790699,172399.0,142758.0,13896.0,1.0614622312205029
62859.953988234,172376.0,142757.0,13890.0,1.0715713953250088
62859.96409739811,172390.0,142766.0,13895.0,1.0816805594295147
62859.97420656222,172422.0,142779.0,13915.0,1.0917897235412966
62859.984315726324,172408.0,142757.0,13896.0,1.1018988876458025
62859.99442489043,172381.0,142731.0,13900.0,1.1120080517503084
62860.00453405454,172404.0,142751.0,13897.0,1.1221172158620902
62860.014643218645,172426.0,142790.0,13911.0,1.1322263799665961
62860.02475238275,172384.0,142743.0,13873.0,1.142335544071102
62860.03486154686,172362.0,142743.0,13903.0,1.152444708182884
62860.044970710966,172408.0,142772.0,13916.0,1.1625538722873898
62860.05507987507,172405.0,142781.0,13916.0,1.1726630363918957
62860.06518903918,172406.0,142758.0,13905.0,1.1827722005036776
62860.07529820329,172404.0,142748.0,13890.0,1.1928813646081835
62860.08540736739,172374.0,142738.0,13895.0,1.2029905287126894
62860.0955165315,172392.0,142763.0,13928.0,1.2130996928244713
62860.10562569561,172397.0,142763.0,13892.0,1.2232088569289772
62860.11573485971,172373.0,142741.0,13891.0,1.233318021033483
62860.12584402382,172395.0,142771.0,13903.0,1.243427185145265
62860.13595318793,172437.0,142750.0,13911.0,1.2535363492497709
62860.14606235203,172403.0,142757.0,13899.0,1.2636455133542768
62860.156171516144,172370.0,142730.0,13860.0,1.2737546774660586
62860.16628068025,172373.0,142731.0,13892.0,1.2838638415705645
62860.17638984435,172408.0,142772.0,13870.0,1.2939730056750705
62860.186499008465,172401.0,142751.0,13942.0,1.3040821697868523
62860.19660817257,172402.0,142768.0,13901.0,1.3141913338913582
62860.206717336674,172388.0,142718.0,13884.0,1.3243004979958641
62860.216826500786,172374.0,142753.0,13902.0,1.334409662107646
62860.22693566489,172388.0,142760.0,13888.0,1.344518826212152
62860.237044828995,172415.0,142747.0,13907.0,1.3546279903166578
62860.2471539931,172423.0,142770.0,13897.0,1.3647371544211637
62860.25726315721,172442.0,142766.0,13901.0,1.3748463185329456
62860.267372321316,172428.0,142760.0,13910.0,1.3849554826374515
62860.27748148542,172419.0,142761.0,13897.0,1.3950646467419574
62860.28759064953,172398.0,142737.0,13918.0,1.4051738108537393
62860.29769981364,172389.0,142743.0,13902.0,1.4152829749582452
62860.30780897774,172412.0,142770.0,13908.0,1.425392139062751
62860.31791814185,172408.0,142752.0,13898.0,1.435501303174533
62860.32802730596,172428.0,142745.0,13881.0,1.4456104672790389
62860.33813647006,172422.0,142761.0,13870.0,1.4557196313835448
62860.34824563417,172378.0,142746.0,13870.0,1.4658287954953266
62860.35835479828,172390.0,142743.0,13880.0,1.4759379595998325
62860.36846396238,172369.0,142728.0,13877.0,1.4860471237043384
62860.378573126494,172350.0,142740.0,13861.0,1.4961562878161203
62860.3886822906,172409.0,142776.0,13908.0,1.5062654519206262
62860.3987914547,172379.0,142753.0,13879.0,1.5163746160251321
62860.408900618815,172376.0,142726.0,13883.0,1.526483780136914
62860.41900978292,172353.0,142725.0,13856.0,1.53659294424142
62860.429118947024,172386.0,142756.0,13899.0,1.5467021083459258
62860.439228111136,172366.0,142740.0,13891.0,1.5568112724577077
62860.44933727524,172357.0,142739.0,13908.0,1.5669204365622136
62860.459446439345,172372.0,142757.0,13887.0,1.5770296006667195
62860.46955560346,172396.0,142769.0,13922.0,1.5871387647785014
62860.47966476756,172374.0,142744.0,13893.0,1.5972479288830073
62860.489773931666,172413.0,142724.0,13903.0,1.6073570929875132
62860.49988309578,172370.0,142719.0,13876.0,1.617466257099295
62860.50999225988,172411.0,142776.0,13904.0,1.627575421203801
62860.52010142399,172376.0,142751.0,13898.0,1.6376845853083069
62860.5302105881,172388.0,142764.0,13882.0,1.6477937494200887
62860.5403197522,172343.0,142762.0,13883.0,1.6579029135245946
62860.55042891631,172356.0,142756.0,13876.0,1.6680120776291005
62860.56053808041,172387.0,142758.0,13901.0,1.6781212417336064
62860.57064724452,172347.0,142739.0,13879.0,1.6882304058453883
62860.58075640863,172356.0,142718.0,13874.0,1.6983395699498942
62860.59086557273,172376.0,142743.0,13877.0,1.7084487340544001
62860.600974736844,172382.0,142747.0,13881.0,1.718557898166182
62860.61108390095,172387.0,142722.0,13891.0,1.728667062270688
62860.62119306505,172361.0,142731.0,13905.0,1.7387762263751938
62860.631302229165,172349.0,142736.0,13874.0,1.7488853904869757
62860.64141139327,172369.0,142739.0,13870.0,1.7589945545914816
62860.651520557374,172365.0,142737.0,13892.0,1.7691037186959875
62860.661629721486,172388.0,142747.0,13875.0,1.7792128828077693
62860.67173888559,172371.0,142722.0,13880.0,1.7893220469122753
62860.681848049695,172368.0,142738.0,13874.0,1.7994312110167812
62860.69195721381,172386.0,142722.0,13896.0,1.809540375128563
62860.70206637791,172367.0,142719.0,13906.0,1.819649539233069
62860.712175542016,172377.0,142748.0,13888.0,1.8297587033375748
62860.72228470613,172358.0,142731.0,13893.0,1.8398678674493567
62860.73239387023,172386.0,142745.0,13892.0,1.8499770315538626
62860.74250303434,172375.0,142720.0,13879.0,1.8600861956583685
62860.75261219845,172386.0,142748.0,13867.0,1.8701953597701504
62860.76272136255,172372.0,142730.0,13910.0,1.8803045238746563
62860.77283052666,172378.0,142757.0,13889.0,1.8904136879791622
62860.78293969077,172385.0,142779.0,13909.0,1.900522852090944
62860.79304885487,172342.0,142726.0,13874.0,1.91063201619545
62860.80315801898,172401.0,142751.0,13924.0,1.9207411802999559
62860.81326718309,172378.0,142747.0,13891.0,1.9308503444117378
62860.823376347194,172346.0,142704.0,13882.0,1.9409595085162437
62860.8334855113,172348.0,142738.0,13878.0,1.9510686726207496
62860.84359467541,172361.0,142751.0,13902.0,1.9611778367325314
62860.853703839515,172388.0,142749.0,13901.0,1.9712870008370373
62860.86381300362,172366.0,142747.0,13880.0,1.9813961649415432
62860.873922167724,172373.0,142739.0,13893.0,1.9915053290460492
62860.884031331836,172364.0,142728.0,13870.0,2.001614493157831
62860.89414049594,172380.0,142747.0,13892.0,2.011723657262337
62860.904249660045,172395.0,142725.0,13891.0,2.021832821366843
62860.91435882416,172392.0,142757.0,13878.0,2.0319419854786247
62860.92446798826,172370.0,142725.0,13884.0,2.0420511495831306
62860.934577152366,172392.0,142752.0,13911.0,2.0521603136876365
62860.94468631648,172392.0,142768.0,13907.0,2.0622694777994184
62860.95479548058,172345.0,142740.0,13873.0,2.0723786419039243
62860.96490464469,172406.0,142751.0,13903.0,2.08248780600843
62860.9750138088,172371.0,142744.0,13889.0,2.092596970120212
62860.9851229729,172357.0,142742.0,13902.0,2.102706134224718
62860.99523213701,172417.0,142786.0,13911.0,2.112815298329224
62861.00534130112,172406.0,142725.0,13929.0,2.1229244624410057
62861.015450465224,172391.0,142750.0,13884.0,2.1330336265455117
62861.02555962933,172358.0,142722.0,13898.0,2.1431427906500176
62861.03566879344,172401.0,142776.0,13908.0,2.1532519547617994
62861.045777957544,172377.0,142758.0,13914.0,2.1633611188663053
62861.05588712165,172349.0,142752.0,13877.0,2.1734702829708112
62861.06599628576,172386.0,142732.0,13895.0,2.183579447082593
62861.076105449865,172369.0,142731.0,13893.0,2.193688611187099
62861.08621461397,172374.0,142746.0,13883.0,2.203797775291605
62861.09632377808,172378.0,142754.0,13880.0,2.213906939403387
62861.106432942186,172381.0,142740.0,13895.0,2.2240161035078927
62861.11654210629,172353.0,142723.0,13894.0,2.2341252676123986
62861.1266512704,172364.0,142730.0,13905.0,2.2442344317241805
62861.13676043451,172395.0,142758.0,13913.0,2.2543435958286864
62861.14686959861,172382.0,142738.0,13879.0,2.2644527599331923
62861.15697876272,172361.0,142734.0,13861.0,2.274561924044974
62861.16708792683,172381.0,142741.0,13893.0,2.28467108814948
62861.17719709093,172359.0,142719.0,13860.0,2.294780252253986
62861.18730625504,172365.0,142744.0,13871.0,2.304889416358492
62861.19741541915,172371.0,142777.0,13863.0,2.3149985804702737
62861.20752458325,172385.0,142764.0,13903.0,2.3251077445747796
62861.21763374736,172333.0,142743.0,13869.0,2.3352169086792856
62861.22774291147,172323.0,142758.0,13901.0,2.3453260727910674
62861.237852075574,172332.0,142758.0,13884.0,2.3554352368955733
62861.24796123968,172345.0,142700.0,13883.0,2.3655444010000792
62861.25807040379,172338.0,142718.0,13871.0,2.375653565111861
62861.268179567895,172360.0,142752.0,13879.0,2.385762729216367
62861.278288732,172329.0,142738.0,13863.0,2.395871893320873
62861.28839789611,172393.0,142767.0,13892.0,2.405981057432655
62861.298507060215,172337.0,142724.0,13864.0,2.4160902215371607
62861.30861622432,172363.0,142741.0,13884.0,2.4261993856416666
62861.31872538843,172361.0,142739.0,13882.0,2.4363085497534485
62861.328834552536,172354.0,142736.0,13897.0,2.4464177138579544
62861.33894371664,172335.0,142736.0,13864.0,2.4565268779624603
62861.34905288075,172358.0,142753.0,13879.0,2.466636042074242
62861.35916204486,172365.0,142737.0,13906.0,2.476745206178748
62861.36927120896,172369.0,142754.0,13913.0,2.486854370283254
62861.37938037307,172324.0,142720.0,13874.0,2.496963534395036
62861.38948953718,172346.0,142749.0,13877.0,2.5070726984995417
62861.39959870128,172313.0,142738.0,13881.0,2.5171818626040476
62861.409707865394,172386.0,142771.0,13915.0,2.5272910267158295
62861.4198170295,172357.0,142723.0,13886.0,2.5374001908203354
62861.4299261936,172339.0,142755.0,13876.0,2.5475093549248413
62861.440035357715,172347.0,142715.0,13880.0,2.557618519036623
62861.45014452182,172379.0,142753.0,13854.0,2.567727683141129
62861.460253685924,172328.0,142746.0,13876.0,2.577836847245635
62861.470362850036,172357.0,142749.0,13884.0,2.587946011357417
62861.48047201414,172344.0,142724.0,13891.0,2.5980551754619228
62861.490581178245,172313.0,142752.0,13926.0,2.6081643395664287
62861.50069034235,172323.0,142734.0,13869.0,2.6182735036709346
62861.51079950646,172345.0,142725.0,13871.0,2.6283826677827165
62861.520908670565,172355.0,142735.0,13877.0,2.6384918318872224
62861.53101783467,172347.0,142722.0,13913.0,2.6486009959917283
62861.54112699878,172363.0,142721.0,13910.0,2.65871016010351
62861.551236162886,172382.0,142744.0,13897.0,2.668819324208016
62861.56134532699,172360.0,142754.0,13889.0,2.678928488312522
62861.5714544911,172396.0,142725.0,13915.0,2.689037652424304
62861.58156365521,172369.0,142723.0,13887.0,2.6991468165288097
62861.59167281931,172350.0,142717.0,13868.0,2.7092559806333156
62861.60178198342,172362.0,142743.0,13893.0,2.7193651447450975
62861.61189114753,172374.0,142756.0,13874.0,2.7294743088496034
62861.62200031163,172385.0,142749.0,13898.0,2.7395834729541093
62861.632109475744,172337.0,142722.0,13873.0,2.749692637065891
62861.64221863985,172352.0,142742.0,13891.0,2.759801801170397
62861.65232780395,172308.0,142752.0,13888.0,2.769910965274903
62861.662436968065,172330.0,142743.0,13901.0,2.780020129386685
62861.67254613217,172379.0,142778.0,13927.0,2.7901292934911908
62861.682655296274,172362.0,142745.0,13891.0,2.8002384575956967
62861.692764460386,172341.0,142721.0,13894.0,2.8103476217074785
62861.70287362449,172380.0,142722.0,13923.0,2.8204567858119844
62861.712982788595,172347.0,142722.0,13885.0,2.8305659499164904
62861.72309195271,172365.0,142745.0,13893.0,2.840675114028272
62861.73320111681,172387.0,142739.0,13897.0,2.850784278132778
62861.743310280915,172380.0,142757.0,13915.0,2.860893442237284
62861.75341944503,172335.0,142746.0,13868.0,2.871002606349066
62861.76352860913,172370.0,142749.0,13891.0,2.881111770453572
62861.773637773236,172380.0,142761.0,13878.0,2.8912209345580777
62861.78374693735,172380.0,142756.0,13899.0,2.9013300986698596
62861.79385610145,172339.0,142729.0,13892.0,2.9114392627743655
62861.80396526556,172356.0,142743.0,13888.0,2.9215484268788714
62861.81407442966,172335.0,142742.0,13896.0,2.9316575909833773
62861.82418359377,172389.0,142749.0,13913.0,2.941766755095159
62861.83429275788,172367.0,142720.0,13890.0,2.951875919199665
62861.84440192198,172354.0,142741.0,13900.0,2.961985083304171
62861.854511086094,172390.0,142726.0,13891.0,2.972094247415953
62861.8646202502,172386.0,142730.0,13900.0,2.9822034115204588
62861.8747294143,172339.0,142752.0,13878.0,2.9923125756249647
62861.884838578415,172368.0,142736.0,13864.0,3.0024217397367465
62861.89494774252,172374.0,142769.0,13892.0,3.0125309038412524
62861.905056906624,172352.0,142763.0,13888.0,3.0226400679457583
62861.915166070736,172336.0,142727.0,13875.0,3.03274923205754
62861.92527523484,172320.0,142723.0,13896.0,3.042858396162046
62861.935384398945,172349.0,142734.0,13887.0,3.052967560266552
62861.94549356306,172323.0,142737.0,13871.0,3.063076724378334
62861.95560272716,172309.0,142742.0,13886.0,3.07318588848284
62861.965711891266,172332.0,142706.0,13864.0,3.0832950525873457
62861.97582105538,172337.0,142738.0,13881.0,3.0934042166991276
62861.98593021948,172348.0,142738.0,13894.0,3.1035133808036335
62861.996039383586,172341.0,142715.0,13881.0,3.1136225449081394
62862.0061485477,172307.0,142724.0,13862.0,3.1237317090199213
62862.0162577118,172333.0,142735.0,13878.0,3.133840873124427
62862.02636687591,172328.0,142738.0,13863.0,3.143950037228933
62862.03647604002,172309.0,142713.0,13889.0,3.154059201340715
62862.04658520412,172289.0,142696.0,13871.0,3.164168365445221
62862.05669436823,172339.0,142739.0,13876.0,3.1742775295497268
62862.06680353234,172312.0,142751.0,13874.0,3.1843866936615086
62862.076912696444,172329.0,142735.0,13892.0,3.1944958577660145
62862.08702186055,172306.0,142739.0,13863.0,3.2046050218705204
62862.09713102466,172331.0,142738.0,13875.0,3.2147141859823023
62862.107240188765,172301.0,142717.0,13872.0,3.224823350086808
62862.11734935287,172365.0,142755.0,13884.0,3.234932514191314
62862.127458516974,172299.0,142721.0,13851.0,3.24504167829582
62862.137567681086,172336.0,142747.0,13876.0,3.255150842407602
62862.14767684519,172342.0,142742.0,13911.0,3.265260006512108
62862.157786009295,172321.0,142739.0,13895.0,3.2753691706166137
62862.16789517341,172293.0,142738.0,13858.0,3.2854783347283956
62862.17800433751,172313.0,142737.0,13880.0,3.2955874988329015
62862.188113501616,172310.0,142738.0,13871.0,3.3056966629374074
62862.19822266573,172338.0,142770.0,13898.0,3.3158058270491892
62862.20833182983,172317.0,142726.0,13892.0,3.325914991153695
62862.21844099394,172324.0,142746.0,13856.0,3.336024155258201
62862.22855015805,172295.0,142743.0,13888.0,3.346133319369983
62862.23865932215,172350.0,142758.0,13898.0,3.356242483474489
62862.24876848626,172348.0,142712.0,13899.0,3.3663516475789947
62862.25887765037,172309.0,142747.0,13855.0,3.3764608116907766
62862.26898681447,172323.0,142733.0,13873.0,3.3865699757952825
62862.27909597858,172357.0,142762.0,13879.0,3.3966791398997884
62862.28920514269,172329.0,142729.0,13883.0,3.4067883040115703
62862.299314306794,172297.0,142720.0,13897.0,3.416897468116076
62862.3094234709,172331.0,142763.0,13880.0,3.427006632220582
62862.31953263501,172321.0,142743.0,13881.0,3.437115796332364
62862.329641799115,172318.0,142731.0,13879.0,3.44722496043687
62862.33975096322,172313.0,142717.0,13877.0,3.457334124541376
62862.34986012733,172330.0,142734.0,13894.0,3.4674432886531577
62862.359969291436,172317.0,142731.0,13893.0,3.4775524527576636
62862.37007845554,172310.0,142723.0,13906.0,3.4876616168621695
62862.38018761965,172323.0,142735.0,13881.0,3.4977707809739513
62862.39029678376,172340.0,142754.0,13881.0,3.5078799450784572
62862.40040594786,172351.0,142746.0,13894.0,3.517989109182963
62862.41051511197,172358.0,142762.0,13900.0,3.528098273294745
62862.42062427608,172332.0,142735.0,13873.0,3.538207437399251
62862.43073344018,172334.0,142745.0,13875.0,3.548316601503757
62862.44084260429,172350.0,142727.0,13869.0,3.5584257656082627
62862.4509517684,172358.0,142759.0,13903.0,3.5685349297200446
62862.4610609325,172307.0,142740.0,13885.0,3.5786440938245505
62862.47117009661,172338.0,142748.0,13886.0,3.5887532579290564
62862.48127926072,172341.0,142769.0,13892.0,3.5988624220408383
62862.49138842482,172324.0,142713.0,13863.0,3.608971586145344
62862.50149758893,172325.0,142710.0,13875.0,3.61908075024985
62862.51160675304,172352.0,142749.0,13888.0,3.629189914361632
62862.521715917144,172306.0,142705.0,13884.0,3.639299078466138
62862.53182508125,172354.0,142760.0,13893.0,3.649408242570644
62862.54193424536,172334.0,142736.0,13899.0,3.6595174066824256
62862.552043409465,172343.0,142740.0,13904.0,3.6696265707869316
62862.56215257357,172344.0,142744.0,13877.0,3.6797357348914375
62862.57226173768,172341.0,142709.0,13917.0,3.6898448990032193
62862.582370901786,172328.0,142732.0,13876.0,3.6999540631077252
62862.59248006589,172340.0,142745.0,13894.0,3.710063227212231
62862.60258923,172345.0,142736.0,13870.0,3.720172391324013
62862.61269839411,172368.0,142726.0,13891.0,3.730281555428519
62862.62280755821,172329.0,142756.0,13891.0,3.740390719533025
62862.63291672232,172347.0,142746.0,13878.0,3.7504998836448067
62862.64302588643,172326.0,142741.0,13902.0,3.7606090477493126
62862.65313505053,172354.0,142749.0,13894.0,3.7707182118538185
62862.663244214644,172357.0,142746.0,13912.0,3.7808273759656004
62862.67335337875,172340.0,142734.0,13878.0,3.7909365400701063
62862.68346254285,172336.0,142722.0,13886.0,3.801045704174612
62862.693571706965,172359.0,142803.0,13893.0,3.811154868286394
62862.70368087107,172352.0,142736.0,13906.0,3.8212640323909
62862.71379003517,172307.0,142724.0,13878.0,3.831373196495406
62862.723899199285,172338.0,142740.0,13892.0,3.8414823606071877
62862.73400836339,172312.0,142723.0,13885.0,3.8515915247116936
62862.744117527494,172367.0,142768.0,13919.0,3.8617006888161995
62862.7542266916,172324.0,142708.0,13886.0,3.8718098529207055
62862.76433585571,172337.0,142732.0,13877.0,3.8819190170324873
62862.774445019815,172307.0,142697.0,13874.0,3.8920281811369932
62862.78455418392,172357.0,142746.0,13904.0,3.902137345241499
62862.79466334803,172300.0,142722.0,13857.0,3.912246509353281
62862.804772512136,172312.0,142730.0,13877.0,3.922355673457787
62862.81488167624,172326.0,142717.0,13879.0,3.932464837562293
62862.82499084035,172308.0,142756.0,13876.0,3.9425740016740747
62862.83510000446,172290.0,142741.0,13871.0,3.9526831657785806
62862.84520916856,172301.0,142720.0,13877.0,3.9627923298830865
62862.85531833267,172299.0,142707.0,13865.0,3.9729014939948684
62862.86542749678,172328.0,142748.0,13863.0,3.9830106580993743
62862.87553666088,172300.0,142723.0,13862.0,3.99311982220388
62862.885645824994,172307.0,142738.0,13878.0,4.003228986315662
62862.8957549891,172278.0,142736.0,13875.0,4.013338150420168
62862.9058641532,172303.0,142741.0,13899.0,4.023447314524674
62862.915973317315,172299.0,142723.0,13874.0,4.033556478636456
62862.92608248142,172308.0,142733.0,13876.0,4.043665642740962
62862.936191645524,172290.0,142709.0,13866.0,4.0537748068454675
62862.946300809635,172332.0,142730.0,13854.0,4.063883970957249
62862.95640997374,172335.0,142744.0,13893.0,4.073993135061755
62862.966519137844,172273.0,142719.0,13850.0,4.084102299166261
62862.976628301956,172259.0,142693.0,13854.0,4.094211463278043
62862.98673746606,172324.0,142755.0,13894.0,4.104320627382549
62862.996846630165,172291.0,142720.0,13862.0,4.114429791487055
62863.00695579428,172313.0,142731.0,13872.0,4.124538955598837
62863.01706495838,172293.0,142721.0,13869.0,4.134648119703343
62863.027174122486,172315.0,142712.0,13883.0,4.144757283807849
62863.0372832866,172331.0,142747.0,13892.0,4.1548664479196304
62863.0473924507,172300.0,142742.0,13864.0,4.164975612024136
62863.05750161481,172279.0,142721.0,13895.0,4.175084776128642
62863.06761077891,172290.0,142721.0,13881.0,4.185193940233148
62863.07771994302,172307.0,142706.0,13865.0,4.19530310434493
62863.08782910713,172294.0,142725.0,13873.0,4.205412268449436
62863.09793827123,172301.0,142710.0,13861.0,4.215521432553942
62863.108047435344,172311.0,142727.0,13852.0,4.225630596665724
62863.11815659945,172277.0,142732.0,13899.0,4.23573976077023
62863.12826576355,172289.0,142721.0,13885.0,4.2458489248747355
62863.138374927665,172299.0,142740.0,13876.0,4.255958088986517
62863.14848409177,172277.0,142741.0,13874.0,4.266067253091023
62863.158593255874,172335.0,142748.0,13891.0,4.276176417195529
62863.168702419985,172324.0,142723.0,13908.0,4.286285581307311
62863.17881158409,172322.0,142739.0,13881.0,4.296394745411817
62863.188920748195,172293.0,142735.0,13881.0,4.306503909516323
62863.199029912306,172339.0,142757.0,13894.0,4.316613073628105
62863.20913907641,172315.0,142738.0,13911.0,4.326722237732611
62863.219248240515,172313.0,142746.0,13884.0,4.336831401837117
62863.22935740463,172286.0,142732.0,13872.0,4.346940565948898
62863.23946656873,172279.0,142756.0,13895.0,4.357049730053404
62863.249575732836,172302.0,142747.0,13895.0,4.36715889415791
62863.25968489695,172310.0,142741.0,13883.0,4.377268058269692
62863.26979406105,172273.0,142715.0,13897.0,4.387377222374198
62863.27990322516,172296.0,142708.0,13880.0,4.397486386478704
62863.29001238927,172316.0,142734.0,13907.0,4.407595550590486
62863.30012155337,172320.0,142734.0,13879.0,4.417704714694992
62863.31023071748,172290.0,142735.0,13885.0,4.427813878799498
62863.32033988159,172312.0,142748.0,13874.0,4.4379230429112795
62863.330449045694,172329.0,142752.0,13907.0,4.448032207015785
62863.3405582098,172316.0,142732.0,13879.0,4.458141371120291
62863.35066737391,172336.0,142735.0,13853.0,4.468250535232073
62863.360776538015,172320.0,142732.0,13859.0,4.478359699336579
62863.37088570212,172321.0,142772.0,13911.0,4.488468863441085
62863.380994866224,172310.0,142736.0,13879.0,4.498578027545591
62863.391104030336,172300.0,142721.0,13864.0,4.508687191657373
62863.40121319444,172300.0,142729.0,13874.0,4.518796355761879
62863.411322358545,172325.0,142720.0,13884.0,4.528905519866385
62863.421431522656,172315.0,142737.0,13890.0,4.539014683978166
62863.43154068676,172331.0,142706.0,13899.0,4.549123848082672
62863.441649850865,172312.0,142717.0,13867.0,4.559233012187178
62863.45175901498,172327.0,142752.0,13880.0,4.56934217629896
62863.46186817908,172321.0,142738.0,13930.0,4.579451340403466
62863.471977343186,172325.0,142749.0,13888.0,4.589560504507972
62863.4820865073,172336.0,142745.0,13890.0,4.599669668619754
62863.4921956714,172344.0,142757.0,13909.0,4.60977883272426
62863.50230483551,172298.0,142743.0,13888.0,4.619887996828766
62863.51241399962,172322.0,142713.0,13887.0,4.6299971609405475
62863.52252316372,172306.0,142725.0,13884.0,4.640106325045053
62863.53263232783,172355.0,142753.0,13894.0,4.650215489149559
62863.54274149194,172312.0,142748.0,13898.0,4.660324653261341
62863.552850656044,172333.0,142745.0,13892.0,4.670433817365847
62863.56295982015,172318.0,142719.0,13902.0,4.680542981470353
62863.57306898426,172340.0,142763.0,13887.0,4.690652145582135
62863.583178148365,172365.0,142758.0,13909.0,4.700761309686641
62863.59328731247,172342.0,142738.0,13894.0,4.710870473791147
62863.60339647658,172322.0,142738.0,13900.0,4.7209796379029285
62863.613505640686,172364.0,142773.0,13895.0,4.731088802007434
62863.62361480479,172364.0,142756.0,13902.0,4.74119796611194
62863.6337239689,172312.0,142721.0,13877.0,4.751307130223722
62863.64383313301,172290.0,142721.0,13902.0,4.761416294328228
62863.65394229711,172287.0,142726.0,13870.0,4.771525458432734
62863.66405146122,172333.0,142753.0,13911.0,4.781634622544516
62863.67416062533,172325.0,142727.0,13876.0,4.791743786649022
62863.68426978943,172302.0,142702.0,13893.0,4.801852950753528
62863.694378953536,172324.0,142736.0,13908.0,4.811962114858034
62863.70448811765,172269.0,142697.0,13860.0,4.8220712789698155
62863.71459728175,172292.0,142730.0,13880.0,4.832180443074321
62863.72470644586,172278.0,142705.0,13872.0,4.842289607178827
62863.73481560997,172274.0,142682.0,13863.0,4.852398771290609
62863.74492477407,172296.0,142741.0,13891.0,4.862507935395115
62863.75503393818,172281.0,142724.0,13864.0,4.872617099499621
62863.76514310229,172265.0,142683.0,13829.0,4.882726263611403
62863.775252266394,172283.0,142713.0,13864.0,4.892835427715909
62863.7853614305,172303.0,142731.0,13876.0,4.902944591820415
62863.79547059461,172288.0,142716.0,13874.0,4.9130537559321965
62863.805579758715,172264.0,142728.0,13854.0,4.923162920036702
62863.81568892282,172284.0,142748.0,13882.0,4.933272084141208
62863.82579808693,172298.0,142756.0,13862.0,4.94338124825299
62863.835907251036,172286.0,142725.0,13877.0,4.953490412357496
62863.84601641514,172286.0,142718.0,13865.0,4.963599576462002
62863.85612557925,172246.0,142716.0,13846.0,4.973708740573784
62863.86623474336,172275.0,142750.0,13847.0,4.98381790467829
62863.87634390746,172272.0,142716.0,13898.0,4.993927068782796
62863.88645307157,172264.0,142733.0,13876.0,5.0040362328945776
62863.89656223568,172240.0,142729.0,13865.0,5.0141453969990835
62863.90667139978,172246.0,142746.0,13884.0,5.024254561103589
62863.91678056389,172247.0,142724.0,13863.0,5.034363725215371
62863.926889728,172273.0,142719.0,13880.0,5.044472889319877
62863.9369988921,172254.0,142692.0,13871.0,5.054582053424383
62863.947108056214,172278.0,142696.0,13876.0,5.064691217536165
62863.95721722032,172292.0,142748.0,13852.0,5.074800381640671
62863.96732638442,172283.0,142716.0,13869.0,5.084909545745177
62863.977435548535,172282.0,142712.0,13882.0,5.095018709856959
62863.98754471264,172263.0,142693.0,13878.0,5.1051278739614645
62863.997653876744,172271.0,142714.0,13897.0,5.11523703806597
62864.00776304085,172270.0,142718.0,13868.0,5.125346202170476
62864.01787220496,172256.0,142686.0,13860.0,5.135455366282258
62864.027981369065,172299.0,142698.0,13903.0,5.145564530386764
62864.03809053317,172299.0,142731.0,13907.0,5.15567369449127
62864.04819969728,172266.0,142726.0,13875.0,5.165782858603052
62864.058308861386,172296.0,142733.0,13858.0,5.175892022707558
62864.06841802549,172307.0,142745.0,13894.0,5.186001186812064
62864.0785271896,172277.0,142734.0,13880.0,5.1961103509238455
62864.08863635371,172289.0,142733.0,13880.0,5.2062195150283515
62864.09874551781,172263.0,142721.0,13862.0,5.216328679132857
62864.10885468192,172268.0,142718.0,13869.0,5.226437843244639
62864.11896384603,172310.0,142735.0,13888.0,5.236547007349145
62864.12907301013,172282.0,142729.0,13877.0,5.246656171453651
62864.13918217424,172270.0,142708.0,13874.0,5.256765335565433
62864.14929133835,172265.0,142724.0,13895.0,5.266874499669939
62864.15940050245,172282.0,142711.0,13871.0,5.276983663774445
62864.169509666564,172260.0,142702.0,13875.0,5.287092827886227
62864.17961883067,172279.0,142699.0,13887.0,5.2972019919907325
62864.18972799477,172294.0,142744.0,13899.0,5.307311156095238
62864.199837158885,172262.0,142703.0,13868.0,5.31742032020702
62864.20994632299,172284.0,142721.0,13886.0,5.327529484311526
62864.220055487094,172277.0,142720.0,13877.0,5.337638648416032
62864.230164651206,172277.0,142753.0,13878.0,5.347747812527814
62864.24027381531,172282.0,142728.0,13876.0,5.35785697663232
62864.250382979415,172296.0,142723.0,13876.0,5.367966140736826
62864.26049214353,172289.0,142731.0,13861.0,5.378075304848608
62864.27060130763,172338.0,142744.0,13910.0,5.3881844689531135
62864.280710471736,172283.0,142731.0,13876.0,5.3982936330576194
62864.29081963585,172290.0,142721.0,13886.0,5.408402797169401
62864.30092879995,172263.0,142719.0,13884.0,5.418511961273907
62864.31103796406,172263.0,142700.0,13856.0,5.428621125378413
62864.32114712816,172270.0,142716.0,13871.0,5.438730289482919
62864.33125629227,172296.0,142718.0,13892.0,5.448839453594701
62864.34136545638,172295.0,142717.0,13873.0,5.458948617699207
62864.35147462048,172301.0,142718.0,13874.0,5.469057781803713
62864.361583784594,172262.0,142725.0,13857.0,5.479166945915495
62864.3716929487,172283.0,142724.0,13868.0,5.4892761100200005
62864.3818021128,172290.0,142722.0,13882.0,5.499385274124506
62864.391911276914,172284.0,142693.0,13894.0,5.509494438236288
62864.40202044102,172284.0,142706.0,13897.0,5.519603602340794
62864.41212960512,172275.0,142713.0,13877.0,5.5297127664453
62864.422238769235,172299.0,142737.0,13878.0,5.539821930557082
62864.43234793334,172274.0,142698.0,13858.0,5.549931094661588
62864.442457097444,172300.0,142703.0,13905.0,5.560040258766094
62864.452566261556,172287.0,142713.0,13887.0,5.570149422877876
62864.46267542566,172308.0,142729.0,13883.0,5.5802585869823815
62864.472784589765,172316.0,142752.0,13878.0,5.590367751086887
62864.48289375388,172263.0,142730.0,13879.0,5.600476915198669
62864.49300291798,172311.0,142700.0,13861.0,5.610586079303175
62864.503112082086,172309.0,142727.0,13879.0,5.620695243407681
62864.5132212462,172312.0,142761.0,13887.0,5.630804407519463
62864.5233304103,172299.0,142768.0,13911.0,5.640913571623969
62864.53343957441,172322.0,142752.0,13913.0,5.651022735728475
62864.54354873852,172299.0,142729.0,13898.0,5.661131899840257
62864.55365790262,172265.0,142716.0,13891.0,5.671241063944763
62864.56376706673,172231.0,142710.0,13871.0,5.6813502280492685
62864.57387623084,172273.0,142707.0,13859.0,5.69145939216105
62864.583985394944,172289.0,142723.0,13876.0,5.701568556265556
62864.59409455905,172274.0,142710.0,13873.0,5.711677720370062
62864.60420372316,172310.0,142750.0,13910.0,5.721786884481844
62864.614312887265,172237.0,142707.0,13838.0,5.73189604858635
62864.62442205137,172270.0,142720.0,13864.0,5.742005212690856
62864.63453121547,172304.0,142766.0,13890.0,5.752114376795362
62864.644640379585,172254.0,142699.0,13848.0,5.762223540907144
62864.65474954369,172284.0,142736.0,13893.0,5.7723327050116495
62864.664858707794,172264.0,142725.0,13862.0,5.782441869116155
62864.674967871906,172240.0,142713.0,13878.0,5.792551033227937
62864.68507703601,172288.0,142756.0,13910.0,5.802660197332443
62864.695186200115,172246.0,142700.0,13873.0,5.812769361436949
62864.70529536423,172237.0,142697.0,13850.0,5.822878525548731
62864.71540452833,172257.0,142690.0,13870.0,5.832987689653237
62864.725513692436,172294.0,142733.0,13869.0,5.843096853757743
62864.73562285655,172278.0,142734.0,13900.0,5.853206017869525
62864.74573202065,172265.0,142719.0,13855.0,5.863315181974031
62864.75584118476,172265.0,142716.0,13862.0,5.8734243460785365
62864.76595034887,172277.0,142742.0,13862.0,5.883533510190318
62864.77605951297,172234.0,142707.0,13860.0,5.893642674294824
62864.78616867708,172239.0,142721.0,13875.0,5.90375183839933
62864.79627784119,172270.0,142732.0,13882.0,5.913861002511112
62864.806387005294,172246.0,142720.0,13890.0,5.923970166615618
62864.8164961694,172254.0,142704.0,13858.0,5.934079330720124
62864.82660533351,172254.0,142715.0,13859.0,5.944188494831906
62864.836714497615,172227.0,142716.0,13870.0,5.954297658936412
62864.84682366172,172281.0,142720.0,13893.0,5.9644068230409175
62864.85693282583,172281.0,142725.0,13886.0,5.974515987152699
62864.867041989935,172255.0,142685.0,13871.0,5.984625151257205
62864.87715115404,172261.0,142724.0,13871.0,5.994734315361711
62864.88726031815,172279.0,142735.0,13851.0,6.004843479473493
62864.897369482256,172266.0,142717.0,13900.0,6.014952643577999
62864.90747864636,172252.0,142712.0,13871.0,6.025061807682505
62864.91758781047,172268.0,142730.0,13873.0,6.035170971794287
62864.92769697458,172229.0,142734.0,13867.0,6.045280135898793
62864.93780613868,172255.0,142715.0,13860.0,6.055389300003299
62864.947915302786,172255.0,142714.0,13890.0,6.0654984641078045
62864.9580244669,172266.0,142722.0,13872.0,6.075607628219586
62864.968133631,172255.0,142739.0,13900.0,6.085716792324092
62864.97824279511,172267.0,142737.0,13907.0,6.095825956428598
62864.98835195922,172260.0,142695.0,13857.0,6.10593512054038
62864.99846112332,172268.0,142724.0,13876.0,6.116044284644886
62865.00857028743,172286.0,142728.0,13876.0,6.126153448749392
62865.01867945154,172286.0,142722.0,13902.0,6.136262612861174
62865.028788615644,172244.0,142723.0,13897.0,6.14637177696568
62865.03889777975,172278.0,142728.0,13881.0,6.1564809410701855
62865.04900694386,172305.0,142762.0,13898.0,6.166590105181967
62865.059116107965,172279.0,142738.0,13906.0,6.176699269286473
62865.06922527207,172239.0,142698.0,13883.0,6.186808433390979
62865.07933443618,172280.0,142737.0,13872.0,6.196917597502761
62865.089443600285,172260.0,142723.0,13893.0,6.207026761607267
62865.09955276439,172279.0,142718.0,13882.0,6.217135925711773
62865.1096619285,172251.0,142703.0,13869.0,6.227245089823555
62865.119771092606,172260.0,142723.0,13877.0,6.237354253928061
62865.12988025671,172258.0,142712.0,13881.0,6.2474634180325666
62865.13998942082,172292.0,142760.0,13903.0,6.257572582144348
62865.15009858493,172258.0,142724.0,13852.0,6.267681746248854
62865.16020774903,172269.0,142731.0,13869.0,6.27779091035336
62865.17031691314,172279.0,142732.0,13895.0,6.287900074465142
62865.18042607725,172308.0,142743.0,13883.0,6.298009238569648
62865.19053524135,172255.0,142712.0,13870.0,6.308118402674154
62865.200644405464,172279.0,142731.0,13871.0,6.318227566785936
62865.21075356957,172283.0,142740.0,13897.0,6.328336730890442
62865.22086273367,172291.0,142754.0,13898.0,6.338445894994948
62865.230971897785,172254.0,142704.0,13909.0,6.3485550591067295
62865.24108106189,172249.0,142741.0,13892.0,6.358664223211235
62865.251190225994,172275.0,142714.0,13889.0,6.368773387315741
62865.2612993901,172295.0,142735.0,13904.0,6.378882551420247
62865.27140855421,172289.0,142701.0,13898.0,6.388991715532029
62865.281517718315,172265.0,142706.0,13873.0,6.399100879636535
62865.29162688242,172287.0,142733.0,13885.0,6.409210043741041
62865.30173604653,172303.0,142744.0,13893.0,6.419319207852823
62865.311845210636,172284.0,142730.0,13897.0,6.429428371957329
62865.32195437474,172269.0,142703.0,13876.0,6.4395375360618345
62865.33206353885,172297.0,142727.0,13892.0,6.449646700173616
62865.342172702956,172276.0,142745.0,13885.0,6.459755864278122
62865.35228186706,172278.0,142714.0,13891.0,6.469865028382628
62865.36239103117,172280.0,142726.0,13906.0,6.47997419249441
62865.37250019528,172282.0,142731.0,13890.0,6.490083356598916
62865.38260935938,172283.0,142742.0,13909.0,6.500192520703422
62865.39271852349,172280.0,142721.0,13906.0,6.510301684815204
62865.4028276876,172257.0,142708.0,13866.0,6.52041084891971
62865.4129368517,172305.0,142725.0,13890.0,6.530520013024216
62865.423046015814,172298.0,142734.0,13888.0,6.5406291771359975
62865.43315517992,172272.0,142698.0,13883.0,6.550738341240503
62865.44326434402,172298.0,142698.0,13892.0,6.560847505345009
62865.453373508135,172301.0,142731.0,13886.0,6.570956669456791
62865.46348267224,172296.0,142733.0,13867.0,6.581065833561297
62865.473591836344,172316.0,142745.0,13910.0,6.591174997665803
62865.483701000456,172266.0,142710.0,13874.0,6.601284161777585
62865.49381016456,172273.0,142719.0,13884.0,6.611393325882091
62865.503919328665,172274.0,142752.0,13878.0,6.621502489986597
62865.51402849278,172275.0,142735.0,13888.0,6.6316116540983785
62865.52413765688,172243.0,142692.0,13881.0,6.641720818202884
62865.534246820986,172250.0,142716.0,13868.0,6.65182998230739
62865.5443559851,172254.0,142688.0,13878.0,6.661939146419172
62865.5544651492,172296.0,142734.0,13857.0,6.672048310523678
62865.56457431331,172255.0,142696.0,13869.0,6.682157474628184
62865.57468347741,172253.0,142721.0,13884.0,6.69226663873269
62865.58479264152,172256.0,142743.0,13863.0,6.702375802844472
62865.59490180563,172270.0,142732.0,13884.0,6.712484966948978
62865.60501096973,172233.0,142701.0,13870.0,6.722594131053484
62865.61512013384,172250.0,142724.0,13851.0,6.7327032951652654
62865.62522929795,172252.0,142716.0,13883.0,6.742812459269771
62865.63533846205,172258.0,142733.0,13913.0,6.752921623374277
62865.645447626164,172222.0,142699.0,13876.0,6.763030787486059
62865.65555679027,172218.0,142700.0,13847.0,6.773139951590565
62865.66566595437,172250.0,142729.0,13879.0,6.783249115695071
62865.675775118485,172284.0,142732.0,13898.0,6.793358279806853
62865.68588428259,172270.0,142712.0,13882.0,6.803467443911359
62865.695993446694,172209.0,142696.0,13858.0,6.813576608015865
62865.706102610806,172254.0,142730.0,13869.0,6.8236857721276465
62865.71621177491,172270.0,142739.0,13843.0,6.833794936232152
62865.726320939015,172247.0,142730.0,13898.0,6.843904100336658
62865.73643010313,172252.0,142700.0,13860.0,6.85401326444844
62865.74653926723,172268.0,142728.0,13868.0,6.864122428552946
62865.756648431336,172272.0,142750.0,13882.0,6.874231592657452
62865.76675759545,172263.0,142710.0,13878.0,6.884340756769234
62865.77686675955,172251.0,142709.0,13876.0,6.89444992087374
62865.78697592366,172243.0,142705.0,13885.0,6.904559084978246
62865.79708508777,172253.0,142709.0,13879.0,6.9146682490900275
62865.80719425187,172281.0,142728.0,13896.0,6.924777413194533
62865.81730341598,172232.0,142730.0,13862.0,6.934886577299039
62865.82741258009,172254.0,142730.0,13877.0,6.944995741410821
62865.83752174419,172251.0,142709.0,13872.0,6.955104905515327
62865.8476309083,172270.0,142710.0,13897.0,6.965214069619833
62865.85774007241,172223.0,142702.0,13858.0,6.975323233731615
62865.867849236514,172255.0,142728.0,13879.0,6.985432397836121
62865.87795840062,172281.0,142746.0,13861.0,6.995541561940627
62865.88806756472,172279.0,142731.0,13902.0,7.005650726045133
62865.898176728835,172225.0,142692.0,13871.0,7.0157598901569145
62865.90828589294,172229.0,142712.0,13858.0,7.02586905426142
62865.918395057044,172218.0,142727.0,13874.0,7.035978218365926
62865.928504221156,172275.0,142729.0,13907.0,7.046087382477708
62865.93861338526,172242.0,142709.0,13878.0,7.056196546582214
62865.948722549365,172239.0,142734.0,13862.0,7.06630571068672
62865.95883171348,172268.0,142718.0,13885.0,7.076414874798502
62865.96894087758,172276.0,142756.0,13893.0,7.086524038903008
62865.979050041686,172237.0,142718.0,13868.0,7.096633203007514
62865.9891592058,172236.0,142717.0,13869.0,7.1067423671192955
62865.9992683699,172269.0,142725.0,13873.0,7.116851531223801
62866.00937753401,172269.0,142740.0,13887.0,7.126960695328307
62866.01948669812,172281.0,142743.0,13864.0,7.137069859440089
62866.02959586222,172242.0,142706.0,13881.0,7.147179023544595
62866.03970502633,172254.0,142739.0,13888.0,7.157288187649101
62866.04981419044,172246.0,142741.0,13897.0,7.167397351760883
62866.05992335454,172247.0,142689.0,13876.0,7.177506515865389
62866.07003251865,172248.0,142725.0,13869.0,7.187615679969895
62866.08014168276,172281.0,142731.0,13886.0,7.197724844081677
62866.090250846864,172295.0,142738.0,13920.0,7.2078340081861825
62866.10036001097,172280.0,142718.0,13891.0,7.217943172290688
62866.11046917508,172261.0,142728.0,13869.0,7.22805233640247
62866.120578339185,172295.0,142731.0,13881.0,7.238161500506976
62866.13068750329,172274.0,142735.0,13880.0,7.248270664611482
62866.1407966674,172283.0,142753.0,13909.0,7.258379828723264
62866.150905831506,172274.0,142733.0,13872.0,7.26848899282777
62866.16101499561,172275.0,142736.0,13884.0,7.278598156932276
62866.17112415972,172269.0,142768.0,13888.0,7.288707321044058
62866.18123332383,172244.0,142716.0,13884.0,7.2988164851485635
62866.19134248793,172261.0,142716.0,13896.0,7.308925649253069
62866.201451652036,172281.0,142734.0,13882.0,7.319034813357575
62866.21156081615,172293.0,142705.0,13883.0,7.329143977469357
62866.22166998025,172309.0,142760.0,13890.0,7.339253141573863
62866.23177914436,172283.0,142724.0,13881.0,7.349362305678369
62866.24188830847,172290.0,142732.0,13888.0,7.359471469790151
62866.25199747257,172291.0,142733.0,13892.0,7.369580633894657
62866.26210663668,172294.0,142707.0,13890.0,7.379689797999163
62866.27221580079,172258.0,142735.0,13871.0,7.389798962110945
62866.28232496489,172300.0,142733.0,13894.0,7.3999081262154505
62866.292434129,172283.0,142727.0,13862.0,7.410017290319956
62866.30254329311,172313.0,142732.0,13879.0,7.420126454431738
62866.312652457214,172265.0,142702.0,13896.0,7.430235618536244
62866.32276162132,172272.0,142726.0,13889.0,7.44034478264075
62866.33287078543,172274.0,142724.0,13909.0,7.450453946752532
62866.342979949535,172308.0,142757.0,13915.0,7.460563110857038
62866.35308911364,172296.0,142712.0,13911.0,7.470672274961544
62866.36319827775,172281.0,142731.0,13892.0,7.480781439073326
62866.373307441856,172292.0,142708.0,13884.0,7.4908906031778315
62866.38341660596,172268.0,142720.0,13898.0,7.500999767282337
62866.39352577007,172301.0,142717.0,13917.0,7.511108931394119
62866.40363493418,172257.0,142710.0,13868.0,7.521218095498625
62866.41374409828,172304.0,142737.0,13893.0,7.531327259603131
62866.42385326239,172264.0,142770.0,13879.0,7.541436423714913
62866.4339624265,172319.0,142721.0,13912.0,7.551545587819419
62866.4440715906,172279.0,142684.0,13866.0,7.561654751923925
62866.454180754714,172277.0,142722.0,13888.0,7.571763916035707
62866.46428991882,172263.0,142693.0,13876.0,7.5818730801402126
62866.47439908292,172243.0,142708.0,13868.0,7.5919822442447185
62866.484508247035,172234.0,142728.0,13869.0,7.6020914083565
62866.49461741114,172276.0,142724.0,13880.0,7.612200572461006
62866.504726575244,172262.0,142716.0,13879.0,7.622309736565512
62866.51483573935,172279.0,142722.0,13886.0,7.632418900670018
62866.52494490346,172243.0,142709.0,13848.0,7.6425280647818
62866.535054067564,172263.0,142725.0,13863.0,7.652637228886306
62866.54516323167,172253.0,142724.0,13868.0,7.662746392990812
62866.55527239578,172282.0,142741.0,13887.0,7.672855557102594
62866.565381559885,172248.0,142715.0,13871.0,7.6829647212070995
62866.57549072399,172226.0,142726.0,13865.0,7.693073885311605
62866.5855998881,172241.0,142744.0,13861.0,7.703183049423387
62866.595709052206,172225.0,142705.0,13857.0,7.713292213527893
62866.60581821631,172242.0,142708.0,13867.0,7.723401377632399
62866.61592738042,172257.0,142718.0,13875.0,7.733510541744181
62866.62603654453,172254.0,142712.0,13870.0,7.743619705848687
62866.63614570863,172260.0,142739.0,13860.0,7.753728869953193
62866.64625487274,172275.0,142728.0,13900.0,7.763838034064975
62866.65636403685,172272.0,142730.0,13881.0,7.7739471981694805
62866.66647320095,172253.0,142739.0,13873.0,7.7840563622739865
62866.676582365064,172271.0,142712.0,13891.0,7.794165526385768
62866.68669152917,172274.0,142715.0,13864.0,7.804274690490274
62866.69680069327,172263.0,142737.0,13872.0,7.81438385459478
62866.706909857385,172241.0,142716.0,13877.0,7.824493018706562
62866.71701902149,172279.0,142731.0,13910.0,7.834602182811068
62866.727128185594,172281.0,142739.0,13901.0,7.844711346915574
62866.737237349706,172274.0,142741.0,13854.0,7.854820511027356
62866.74734651381,172253.0,142716.0,13904.0,7.864929675131862
62866.757455677915,172261.0,142760.0,13874.0,7.8750388392363675
62866.767564842026,172289.0,142759.0,13916.0,7.885148003348149
62866.77767400613,172281.0,142734.0,13882.0,7.895257167452655
62866.787783170235,172258.0,142734.0,13881.0,7.905366331557161
62866.79789233435,172288.0,142758.0,13880.0,7.915475495668943
62866.80800149845,172247.0,142715.0,13909.0,7.925584659773449
62866.818110662556,172263.0,142725.0,13876.0,7.935693823877955
62866.82821982666,172276.0,142742.0,13879.0,7.945802987982461
62866.83832899077,172296.0,142765.0,13893.0,7.955912152094243
62866.84843815488,172275.0,142706.0,13894.0,7.9660213161987485
62866.85854731898,172261.0,142696.0,13890.0,7.9761304803032544
62866.86865648309,172273.0,142733.0,13888.0,7.986239644415036
62866.8787656472,172280.0,142753.0,13899.0,7.996348808519542
62866.8888748113,172278.0,142759.0,13892.0,8.006457972624048
62866.898983975414,172252.0,142740.0,13883.0,8.01656713673583
62866.90909313952,172284.0,142736.0,13883.0,8.026676300840336
62866.91920230362,172275.0,142728.0,13887.0,8.036785464944842
62866.929311467735,172286.0,142764.0,13900.0,8.046894629056624
62866.93942063184,172263.0,142750.0,13877.0,8.05700379316113
62866.949529795944,172284.0,142726.0,13891.0,8.067112957265635
62866.959638960056,172271.0,142723.0,13869.0,8.077222121377417
62866.96974812416,172312.0,142749.0,13884.0,8.087331285481923
62866.979857288265,172244.0,142696.0,13881.0,8.09744044958643
62866.98996645238,172278.0,142730.0,13901.0,8.107549613698211
62867.00007561648,172296.0,142753.0,13889.0,8.117658777802717
62867.010184780585,172303.0,142735.0,13907.0,8.127767941907223
62867.0202939447,172295.0,142716.0,13900.0,8.137877106019005
62867.0304031088,172290.0,142736.0,13883.0,8.14798627012351
62867.040512272906,172278.0,142730.0,13865.0,8.158095434228017
62867.05062143702,172287.0,142738.0,13898.0,8.168204598339798
62867.06073060112,172300.0,142751.0,13897.0,8.178313762444304
62867.07083976523,172298.0,142732.0,13890.0,8.18842292654881
62867.08094892934,172287.0,142725.0,13894.0,8.198532090660592
62867.09105809344,172264.0,142766.0,13893.0,8.208641254765098
62867.10116725755,172296.0,142736.0,13895.0,8.218750418869604
62867.11127642166,172241.0,142701.0,13913.0,8.228859582981386
62867.121385585764,172273.0,142719.0,13861.0,8.238968747085892
62867.13149474987,172309.0,142743.0,13893.0,8.249077911190398
62867.14160391397,172309.0,142746.0,13878.0,8.259187075294903
62867.151713078085,172288.0,142742.0,13881.0,8.269296239406685
62867.16182224219,172276.0,142733.0,13904.0,8.279405403511191
62867.171931406294,172295.0,142738.0,13893.0,8.289514567615697
62867.182040570406,172278.0,142724.0,13882.0,8.299623731727479
62867.19214973451,172266.0,142740.0,13880.0,8.309732895831985
62867.202258898615,172298.0,142714.0,13879.0,8.31984205993649
62867.21236806273,172293.0,142737.0,13876.0,8.329951224048273
62867.22247722683,172333.0,142760.0,13915.0,8.340060388152779
62867.232586390935,172281.0,142735.0,13906.0,8.350169552257285
62867.24269555505,172277.0,142740.0,13865.0,8.360278716369066
62867.25280471915,172299.0,142707.0,13894.0,8.370387880473572
62867.262913883256,172307.0,142749.0,13892.0,8.380497044578078
62867.27302304737,172311.0,142737.0,13926.0,8.39060620868986
62867.28313221147,172301.0,142740.0,13896.0,8.400715372794366
62867.29324137558,172279.0,142719.0,13891.0,8.410824536898872
62867.30335053969,172303.0,142747.0,13910.0,8.420933701010654
62867.31345970379,172304.0,142723.0,13905.0,8.43104286511516
62867.3235688679,172294.0,142729.0,13885.0,8.441152029219666
62867.33367803201,172292.0,142717.0,13919.0,8.451261193331447
62867.343787196114,172284.0,142750.0,13895.0,8.461370357435953
62867.35389636022,172331.0,142726.0,13931.0,8.47147952154046
62867.36400552433,172304.0,142729.0,13896.0,8.481588685652241
62867.374114688435,172315.0,142726.0,13895.0,8.491697849756747
62867.38422385254,172289.0,142710.0,13911.0,8.501807013861253
62867.39433301665,172283.0,142735.0,13899.0,8.511916177973035
62867.404442180756,172306.0,142725.0,13889.0,8.52202534207754
62867.41455134486,172284.0,142725.0,13887.0,8.532134506182047
62867.42466050897,172286.0,142722.0,13874.0,8.542243670293828
62867.43476967308,172270.0,142704.0,13892.0,8.552352834398334
62867.44487883718,172279.0,142725.0,13885.0,8.56246199850284
62867.454988001286,172293.0,142724.0,13905.0,8.572571162607346
62867.4650971654,172274.0,142724.0,13865.0,8.582680326719128
62867.4752063295,172282.0,142732.0,13879.0,8.592789490823634
62867.485315493606,172275.0,142727.0,13888.0,8.60289865492814
62867.49542465772,172269.0,142720.0,13879.0,8.613007819039922
62867.50553382182,172290.0,142737.0,13920.0,8.623116983144428
62867.51564298593,172225.0,142712.0,13867.0,8.633226147248934
62867.52575215004,172255.0,142729.0,13887.0,8.643335311360715
62867.53586131414,172245.0,142738.0,13888.0,8.653444475465221
62867.54597047825,172240.0,142727.0,13875.0,8.663553639569727
62867.55607964236,172294.0,142751.0,13877.0,8.673662803681509
62867.566188806464,172279.0,142729.0,13913.0,8.683771967786015
62867.57629797057,172268.0,142714.0,13886.0,8.693881131890521
62867.58640713468,172268.0,142715.0,13866.0,8.703990296002303
62867.596516298785,172301.0,142763.0,13914.0,8.714099460106809
62867.60662546289,172254.0,142745.0,13873.0,8.724208624211315
62867.616734627,172252.0,142705.0,13889.0,8.734317788323096
62867.626843791106,172295.0,142720.0,13895.0,8.744426952427602
62867.63695295521,172285.0,142704.0,13886.0,8.754536116532108
62867.64706211932,172289.0,142766.0,13861.0,8.76464528064389
62867.65717128343,172271.0,142725.0,13877.0,8.774754444748396
62867.66728044753,172264.0,142718.0,13883.0,8.784863608852902
62867.67738961164,172255.0,142707.0,13879.0,8.794972772964684
62867.68749877575,172273.0,142731.0,13879.0,8.80508193706919
62867.69760793985,172293.0,142735.0,13884.0,8.815191101173696
62867.707717103964,172276.0,142723.0,13869.0,8.825300265285478
62867.71782626807,172309.0,142764.0,13874.0,8.835409429389983
62867.72793543217,172287.0,142703.0,13899.0,8.84551859349449
62867.738044596284,172296.0,142742.0,13899.0,8.855627757606271
62867.74815376039,172255.0,142726.0,13894.0,8.865736921710777
62867.75826292449,172262.0,142700.0,13884.0,8.875846085815283
62867.7683720886,172292.0,142736.0,13878.0,8.885955249919789
62867.77848125271,172273.0,142708.0,13918.0,8.89606441403157
62867.788590416814,172259.0,142697.0,13886.0,8.906173578136077
62867.79869958092,172299.0,142738.0,13897.0,8.916282742240583
62867.80880874503,172258.0,142728.0,13898.0,8.926391906352364
62867.818917909135,172294.0,142734.0,13887.0,8.93650107045687
62867.82902707324,172270.0,142731.0,13900.0,8.946610234561376
62867.83913623735,172272.0,142707.0,13885.0,8.956719398673158
62867.849245401456,172269.0,142718.0,13889.0,8.966828562777664
62867.85935456556,172282.0,142743.0,13887.0,8.97693772688217
62867.86946372967,172305.0,142728.0,13910.0,8.987046890993952
62867.87957289378,172276.0,142713.0,13907.0,8.997156055098458
62867.88968205788,172282.0,142738.0,13916.0,9.007265219202964
62867.89979122199,172285.0,142733.0,13889.0,9.017374383314746
62867.9099003861,172306.0,142762.0,13878.0,9.027483547419251
62867.9200095502,172276.0,142713.0,13879.0,9.037592711523757
62867.930118714314,172277.0,142724.0,13885.0,9.04770187563554
62867.94022787842,172286.0,142726.0,13883.0,9.057811039740045
62867.95033704252,172292.0,142726.0,13913.0,9.067920203844551
62867.960446206635,172312.0,142730.0,13903.0,9.078029367956333
62867.97055537074,172291.0,142724.0,13863.0,9.088138532060839
62867.98066453484,172298.0,142741.0,13919.0,9.098247696165345
62867.990773698955,172290.0,142736.0,13902.0,9.108356860277127
62868.00088286306,172300.0,142743.0,13881.0,9.118466024381632
62868.010992027164,172295.0,142720.0,13909.0,9.128575188486138
62868.021101191276,172317.0,142738.0,13915.0,9.13868435259792
62868.03121035538,172310.0,142766.0,13898.0,9.148793516702426
62868.041319519485,172314.0,142726.0,13901.0,9.158902680806932
62868.0514286836,172287.0,142733.0,13879.0,9.169011844918714
62868.0615378477,172319.0,142742.0,13879.0,9.17912100902322
62868.071647011806,172301.0,142732.0,13895.0,9.189230173127726
62868.08175617591,172317.0,142746.0,13915.0,9.199339337232232
62868.09186534002,172298.0,142727.0,13882.0,9.209448501344013
62868.10197450413,172287.0,142768.0,13893.0,9.21955766544852
62868.11208366823,172309.0,142739.0,13897.0,9.229666829553025
62868.12219283234,172275.0,142722.0,13884.0,9.239775993664807
62868.13230199645,172294.0,142726.0,13895.0,9.249885157769313
62868.14241116055,172325.0,142718.0,13903.0,9.259994321873819
62868.152520324664,172307.0,142739.0,13892.0,9.2701034859856
62868.16262948877,172280.0,142715.0,13881.0,9.280212650090107
62868.17273865287,172298.0,142723.0,13887.0,9.290321814194613
62868.182847816985,172314.0,142748.0,13897.0,9.300430978306395
62868.19295698109,172294.0,142735.0,13899.0,9.3105401424109
62868.20306614519,172312.0,142744.0,13878.0,9.320649306515406
62868.213175309305,172305.0,142716.0,13863.0,9.330758470627188
62868.22328447341,172328.0,142762.0,13867.0,9.340867634731694
62868.233393637514,172311.0,142747.0,13886.0,9.3509767988362
62868.243502801626,172325.0,142765.0,13904.0,9.361085962947982
62868.25361196573,172304.0,142710.0,13910.0,9.371195127052488
62868.263721129835,172291.0,142735.0,13898.0,9.381304291156994
62868.27383029395,172334.0,142751.0,13895.0,9.391413455268776
62868.28393945805,172346.0,142751.0,13918.0,9.401522619373281
62868.294048622156,172328.0,142717.0,13912.0,9.411631783477787
62868.30415778627,172346.0,142711.0,13902.0,9.42174094758957
62868.31426695037,172345.0,142752.0,13913.0,9.431850111694075
62868.32437611448,172322.0,142740.0,13896.0,9.441959275798581
62868.33448527859,172333.0,142740.0,13893.0,9.452068439910363
62868.34459444269,172311.0,142750.0,13880.0,9.462177604014869
62868.3547036068,172328.0,142752.0,13893.0,9.472286768119375
62868.36481277091,172347.0,142745.0,13889.0,9.482395932231157
62868.374921935014,172307.0,142737.0,13887.0,9.492505096335663
62868.38503109912,172319.0,142718.0,13877.0,9.502614260440168
62868.39514026322,172308.0,142751.0,13896.0,9.512723424544674
62868.405249427335,172313.0,142767.0,13887.0,9.522832588656456
62868.41535859144,172296.0,142734.0,13908.0,9.532941752760962
62868.425467755544,172307.0,142760.0,13902.0,9.543050916865468
62868.435576919655,172312.0,142740.0,13898.0,9.55316008097725
62868.44568608376,172308.0,142736.0,13882.0,9.563269245081756
62868.455795247864,172311.0,142707.0,13887.0,9.573378409186262
62868.465904411976,172299.0,142706.0,13868.0,9.583487573298044
62868.47601357608,172332.0,142748.0,13874.0,9.59359673740255
62868.486122740185,172307.0,142736.0,13880.0,9.603705901507055
62868.4962319043,172299.0,142752.0,13887.0,9.613815065618837
62868.5063410684,172293.0,142743.0,13876.0,9.623924229723343
62868.516450232506,172283.0,142715.0,13881.0,9.634033393827849
62868.52655939662,172325.0,142749.0,13888.0,9.644142557939631
62868.53666856072,172307.0,142729.0,13882.0,9.654251722044137
62868.54677772483,172291.0,142723.0,13876.0,9.664360886148643
62868.55688688894,172333.0,142764.0,13883.0,9.674470050260425
62868.56699605304,172308.0,142737.0,13889.0,9.68457921436493
62868.57710521715,172301.0,142717.0,13931.0,9.694688378469436
62868.58721438126,172285.0,142724.0,13877.0,9.704797542581218
62868.597323545364,172311.0,142759.0,13910.0,9.714906706685724
62868.60743270947,172317.0,142751.0,13889.0,9.72501587079023
62868.61754187358,172336.0,142722.0,13903.0,9.735125034902012
62868.627651037685,172344.0,142754.0,13919.0,9.745234199006518
62868.63776020179,172338.0,142775.0,13878.0,9.755343363111024
62868.6478693659,172316.0,142743.0,13892.0,9.765452527222806
62868.657978530005,172322.0,142773.0,13904.0,9.775561691327312
62868.66808769411,172312.0,142766.0,13887.0,9.785670855431817
62868.67819685822,172302.0,142770.0,13882.0,9.7957800195436
62868.688306022326,172306.0,142749.0,13894.0,9.805889183648105
62868.69841518643,172338.0,142741.0,13913.0,9.815998347752611
62868.708524350535,172291.0,142736.0,13864.0,9.826107511857117
62868.71863351465,172348.0,142743.0,13874.0,9.836216675968899
62868.72874267875,172291.0,142743.0,13890.0,9.846325840073405
62868.738851842856,172325.0,142764.0,13879.0,9.85643500417791
62868.74896100697,172314.0,142715.0,13886.0,9.866544168289693
62868.75907017107,172319.0,142764.0,13889.0,9.876653332394199
62868.76917933518,172318.0,142746.0,13888.0,9.886762496498704
62868.77928849929,172335.0,142736.0,13893.0,9.896871660610486
62868.78939766339,172293.0,142733.0,13891.0,9.906980824714992
62868.7995068275,172323.0,142753.0,13874.0,9.917089988819498
62868.80961599161,172318.0,142741.0,13916.0,9.92719915293128
62868.819725155714,172317.0,142747.0,13884.0,9.937308317035786
62868.82983431982,172328.0,142760.0,13893.0,9.947417481140292
62868.83994348393,172297.0,142748.0,13875.0,9.957526645252074
62868.850052648035,172343.0,142743.0,13917.0,9.96763580935658
62868.86016181214,172312.0,142762.0,13896.0,9.977744973461085
62868.87027097625,172305.0,142720.0,13902.0,9.987854137572867
62868.880380140356,172301.0,142727.0,13878.0,9.997963301677373
62868.89048930446,172338.0,142760.0,13895.0,10.00807246578188
62868.90059846857,172331.0,142752.0,13902.0,10.018181629893661
62868.910707632676,172321.0,142736.0,13920.0,10.028290793998167
62868.92081679678,172333.0,142760.0,13888.0,10.038399958102673
62868.93092596089,172318.0,142764.0,13903.0,10.048509122214455
62868.941035125,172340.0,142753.0,13895.0,10.05861828631896
62868.9511442891,172342.0,142734.0,13902.0,10.068727450423467
62868.96125345321,172325.0,142733.0,13879.0,10.078836614535248
62868.97136261732,172333.0,142732.0,13897.0,10.088945778639754
62868.98147178142,172360.0,142760.0,13907.0,10.09905494274426
62868.991580945534,172345.0,142777.0,13908.0,10.109164106856042
62869.00169010964,172315.0,142731.0,13870.0,10.119273270960548
62869.01179927374,172355.0,142758.0,13919.0,10.129382435065054
62869.02190843785,172334.0,142758.0,13895.0,10.13949159916956
62869.03201760196,172351.0,142745.0,13904.0,10.149600763281342
62869.042126766064,172302.0,142721.0,13885.0,10.159709927385848
62869.05223593017,172335.0,142745.0,13873.0,10.169819091490353
62869.06234509428,172348.0,142755.0,13896.0,10.179928255602135
62869.072454258385,172349.0,142768.0,13917.0,10.190037419706641
62869.08256342249,172321.0,142731.0,13893.0,10.200146583811147
62869.0926725866,172308.0,142760.0,13885.0,10.210255747922929
62869.102781750706,172349.0,142750.0,13902.0,10.220364912027435
62869.11289091481,172355.0,142736.0,13908.0,10.23047407613194
62869.12300007892,172332.0,142731.0,13887.0,10.240583240243723
62869.13310924303,172358.0,142750.0,13909.0,10.250692404348229
62869.14321840713,172348.0,142754.0,13899.0,10.260801568452735
62869.15332757124,172362.0,142771.0,13897.0,10.270910732564516
62869.16343673535,172338.0,142749.0,13870.0,10.281019896669022
62869.17354589945,172334.0,142767.0,13893.0,10.291129060773528
62869.18365506356,172347.0,142755.0,13897.0,10.30123822488531
62869.19376422767,172364.0,142768.0,13899.0,10.311347388989816
62869.20387339177,172333.0,142733.0,13884.0,10.321456553094322
62869.213982555884,172360.0,142769.0,13887.0,10.331565717206104
62869.22409171999,172339.0,142744.0,13926.0,10.34167488131061
62869.23420088409,172356.0,142762.0,13902.0,10.351784045415116
62869.244310048205,172303.0,142725.0,13887.0,10.361893209526897
62869.25441921231,172328.0,142733.0,13871.0,10.372002373631403
62869.264528376414,172352.0,142737.0,13908.0,10.38211153773591
62869.274637540526,172366.0,142747.0,13898.0,10.392220701847691
62869.28474670463,172356.0,142773.0,13897.0,10.402329865952197
62869.294855868735,172339.0,142744.0,13886.0,10.412439030056703
62869.30496503285,172350.0,142756.0,13885.0,10.422548194168485
62869.31507419695,172355.0,142748.0,13892.0,10.43265735827299
62869.325183361056,172334.0,142777.0,13921.0,10.442766522377497
62869.33529252516,172316.0,142734.0,13888.0,10.452875686482002
62869.34540168927,172356.0,142775.0,13924.0,10.462984850593784
62869.35551085338,172337.0,142749.0,13893.0,10.47309401469829
62869.36562001748,172354.0,142728.0,13876.0,10.483203178802796
62869.37572918159,172314.0,142743.0,13879.0,10.493312342914578
62869.3858383457,172334.0,142750.0,13920.0,10.503421507019084
62869.3959475098,172319.0,142747.0,13889.0,10.51353067112359
62869.40605667391,172340.0,142791.0,13902.0,10.523639835235372
62869.41616583802,172325.0,142739.0,13883.0,10.533748999339878
62869.42627500212,172346.0,142755.0,13890.0,10.543858163444384
62869.436384166234,172336.0,142763.0,13898.0,10.553967327556165
62869.44649333034,172351.0,142749.0,13907.0,10.564076491660671
62869.45660249444,172344.0,142740.0,13904.0,10.574185655765177
62869.466711658555,172329.0,142755.0,13882.0,10.584294819876959
62869.47682082266,172334.0,142760.0,13901.0,10.594403983981465
62869.486929986764,172322.0,142758.0,13916.0,10.604513148085971
62869.497039150876,172348.0,142755.0,13876.0,10.614622312197753
62869.50714831498,172314.0,142762.0,13867.0,10.624731476302259
62869.517257479085,172347.0,142772.0,13919.0,10.634840640406765
62869.5273666432,172358.0,142761.0,13920.0,10.644949804518546
62869.5374758073,172312.0,142727.0,13890.0,10.655058968623052
62869.547584971406,172366.0,142779.0,13901.0,10.665168132727558
62869.55769413552,172357.0,142767.0,13885.0,10.67527729683934
62869.56780329962,172314.0,142767.0,13911.0,10.685386460943846
62869.57791246373,172334.0,142750.0,13871.0,10.695495625048352
62869.58802162784,172328.0,142770.0,13905.0,10.705604789160134
62869.59813079194,172336.0,142749.0,13893.0,10.71571395326464
62869.60823995605,172365.0,142765.0,13891.0,10.725823117369146
62869.61834912016,172326.0,142767.0,13872.0,10.735932281480927
62869.62845828426,172347.0,142748.0,13874.0,10.746041445585433
62869.63856744837,172344.0,142753.0,13906.0,10.75615060968994
62869.64867661247,172356.0,142786.0,13888.0,10.766259773794445
62869.658785776584,172333.0,142750.0,13880.0,10.776368937906227
62869.66889494069,172316.0,142746.0,13866.0,10.786478102010733
62869.67900410479,172361.0,142741.0,13907.0,10.796587266115239
62869.689113268905,172344.0,142733.0,13902.0,10.80669643022702
62869.69922243301,172322.0,142732.0,13887.0,10.816805594331527
62869.709331597114,172309.0,142738.0,13869.0,10.826914758436033
62869.719440761226,172340.0,142778.0,13878.0,10.837023922547814
62869.72954992533,172335.0,142752.0,13889.0,10.84713308665232
62869.739659089435,172347.0,142741.0,13944.0,10.857242250756826
62869.74976825355,172325.0,142727.0,13876.0,10.867351414868608
62869.75987741765,172358.0,142748.0,13911.0,10.877460578973114
62869.769986581756,172345.0,142754.0,13897.0,10.88756974307762
62869.78009574587,172339.0,142758.0,13876.0,10.897678907189402
62869.79020490997,172344.0,142732.0,13887.0,10.907788071293908
62869.80031407408,172344.0,142731.0,13899.0,10.917897235398414
62869.81042323819,172342.0,142735.0,13897.0,10.928006399510195
62869.82053240229,172365.0,142784.0,13920.0,10.938115563614701
62869.8306415664,172318.0,142734.0,13870.0,10.948224727719207
62869.84075073051,172347.0,142758.0,13906.0,10.95833389183099
62869.850859894614,172361.0,142749.0,13900.0,10.968443055935495
62869.86096905872,172379.0,142783.0,13897.0,10.978552220040001
62869.87107822283,172327.0,142727.0,13889.0,10.988661384151783
62869.881187386934,172369.0,142774.0,13923.0,10.998770548256289
62869.89129655104,172346.0,142762.0,13891.0,11.008879712360795
62869.90140571515,172347.0,142755.0,13925.0,11.018988876472577
62869.911514879255,172296.0,142729.0,13891.0,11.029098040577082
62869.92162404336,172311.0,142762.0,13900.0,11.039207204681588
62869.93173320747,172352.0,142741.0,13897.0,11.04931636879337
62869.941842371576,172356.0,142755.0,13910.0,11.059425532897876
62869.95195153568,172335.0,142737.0,13888.0,11.069534697002382
62869.962060699785,172354.0,142765.0,13911.0,11.079643861106888
62869.9721698639,172370.0,142752.0,13894.0,11.08975302521867
62869.982279028,172378.0,142753.0,13898.0,11.099862189323176
62869.992388192106,172340.0,142739.0,13877.0,11.109971353427682
62870.00249735622,172361.0,142732.0,13888.0,11.120080517539463
62870.01260652032,172360.0,142754.0,13895.0,11.13018968164397
62870.02271568443,172383.0,142776.0,13907.0,11.140298845748475
62870.03282484854,172386.0,142733.0,13915.0,11.150408009860257
62870.04293401264,172334.0,142735.0,13901.0,11.160517173964763
62870.05304317675,172347.0,142747.0,13903.0,11.170626338069269
62870.06315234086,172365.0,142759.0,13904.0,11.18073550218105
62870.073261504964,172342.0,142718.0,13878.0,11.190844666285557
62870.08337066907,172367.0,142769.0,13914.0,11.200953830390063
62870.09347983318,172378.0,142760.0,13920.0,11.211062994501845
62870.103588997285,172370.0,142777.0,13898.0,11.22117215860635
62870.11369816139,172400.0,142770.0,13922.0,11.231281322710856
62870.1238073255,172331.0,142727.0,13886.0,11.241390486822638
62870.133916489605,172360.0,142775.0,13889.0,11.251499650927144
62870.14402565371,172371.0,142741.0,13904.0,11.26160881503165
62870.15413481782,172346.0,142733.0,13943.0,11.271717979143432
62870.164243981926,172384.0,142783.0,13907.0,11.281827143247938
62870.17435314603,172356.0,142776.0,13904.0,11.291936307352444
62870.18446231014,172388.0,142780.0,13922.0,11.302045471464226
62870.19457147425,172395.0,142748.0,13885.0,11.312154635568731
62870.20468063835,172340.0,142721.0,13891.0,11.322263799673237
62870.21478980246,172353.0,142716.0,13881.0,11.33237296378502
62870.22489896657,172355.0,142741.0,13899.0,11.342482127889525
62870.23500813067,172368.0,142765.0,13899.0,11.352591291994031
62870.245117294784,172343.0,142737.0,13883.0,11.362700456105813
62870.25522645889,172332.0,142744.0,13889.0,11.372809620210319
62870.26533562299,172347.0,142751.0,13893.0,11.382918784314825
62870.2754447871,172332.0,142734.0,13900.0,11.39302794841933
62870.28555395121,172340.0,142741.0,13887.0,11.403137112531113
62870.295663115314,172344.0,142764.0,13855.0,11.413246276635618
62870.30577227942,172339.0,142747.0,13897.0,11.423355440740124
62870.31588144353,172329.0,142742.0,13883.0,11.433464604851906
62870.325990607635,172307.0,142724.0,13880.0,11.443573768956412
62870.33609977174,172316.0,142757.0,13872.0,11.453682933060918
62870.34620893585,172363.0,142741.0,13889.0,11.4637920971727
62870.356318099955,172362.0,142757.0,13911.0,11.473901261277206
62870.36642726406,172334.0,142727.0,13882.0,11.484010425381712
62870.37653642817,172338.0,142732.0,13893.0,11.494119589493494
62870.386645592276,172341.0,142751.0,13901.0,11.504228753598
62870.39675475638,172371.0,142761.0,13902.0,11.514337917702505
62870.40686392049,172358.0,142758.0,13923.0,11.524447081814287
62870.4169730846,172325.0,142733.0,13884.0,11.534556245918793
62870.4270822487,172359.0,142740.0,13893.0,11.544665410023299
62870.43719141281,172321.0,142772.0,13899.0,11.554774574135081
62870.44730057692,172371.0,142730.0,13921.0,11.564883738239587
62870.45740974102,172341.0,142748.0,13877.0,11.574992902344093
62870.467518905134,172349.0,142757.0,13919.0,11.585102066455875
62870.47762806924,172357.0,142763.0,13894.0,11.59521123056038
62870.48773723334,172358.0,142769.0,13909.0,11.605320394664886
62870.497846397455,172350.0,142777.0,13910.0,11.615429558776668
62870.50795556156,172365.0,142754.0,13916.0,11.625538722881174
62870.518064725664,172353.0,142786.0,13896.0,11.63564788698568
62870.528173889776,172368.0,142750.0,13897.0,11.645757051097462
62870.53828305388,172326.0,142739.0,13879.0,11.655866215201968
62870.548392217985,172373.0,142761.0,13876.0,11.665975379306474
62870.5585013821,172346.0,142756.0,13899.0,11.676084543418256
62870.5686105462,172336.0,142755.0,13913.0,11.686193707522762
62870.578719710305,172349.0,142766.0,13894.0,11.696302871627267
62870.58882887441,172336.0,142758.0,13890.0,11.706412035731773
62870.59893803852,172343.0,142751.0,13897.0,11.716521199843555
62870.609047202626,172349.0,142736.0,13920.0,11.726630363948061
62870.61915636673,172319.0,142735.0,13911.0,11.736739528052567
62870.62926553084,172340.0,142757.0,13871.0,11.746848692164349
62870.63937469495,172353.0,142747.0,13893.0,11.756957856268855
62870.64948385905,172376.0,142768.0,13914.0,11.76706702037336
62870.65959302316,172314.0,142750.0,13876.0,11.777176184485143
62870.66970218727,172328.0,142730.0,13913.0,11.787285348589648
62870.67981135137,172349.0,142753.0,13900.0,11.797394512694154
62870.689920515484,172371.0,142751.0,13907.0,11.807503676805936
62870.70002967959,172340.0,142746.0,13868.0,11.817612840910442
62870.71013884369,172370.0,142739.0,13907.0,11.827722005014948
62870.720248007805,172347.0,142757.0,13901.0,11.83783116912673
62870.73035717191,172342.0,142778.0,13916.0,11.847940333231236
62870.740466336014,172382.0,142781.0,13897.0,11.858049497335742
62870.750575500126,172377.0,142769.0,13907.0,11.868158661447524
62870.76068466423,172362.0,142766.0,13907.0,11.87826782555203
62870.770793828335,172381.0,142756.0,13916.0,11.888376989656535
62870.78090299245,172356.0,142746.0,13895.0,11.898486153768317
62870.79101215655,172345.0,142773.0,13898.0,11.908595317872823
62870.801121320656,172371.0,142756.0,13906.0,11.91870448197733
62870.81123048477,172332.0,142778.0,13912.0,11.928813646089111
62870.82133964887,172378.0,142766.0,13918.0,11.938922810193617
62870.831448812976,172365.0,142768.0,13903.0,11.949031974298123
62870.84155797709,172366.0,142763.0,13892.0,11.959141138409905
62870.85166714119,172352.0,142764.0,13925.0,11.96925030251441
62870.8617763053,172387.0,142732.0,13921.0,11.979359466618916
62870.87188546941,172369.0,142730.0,13923.0,11.989468630730698
62870.88199463351,172364.0,142747.0,13925.0,11.999577794835204
62870.89210379762,172371.0,142776.0,13909.0,12.00968695893971
62870.90221296172,172341.0,142737.0,13874.0,12.019796123044216
62870.912322125834,172392.0,142774.0,13923.0,12.029905287155998
62870.92243128994,172321.0,142741.0,13874.0,12.040014451260504
62870.93254045404,172371.0,142756.0,13906.0,12.05012361536501
62870.942649618155,172340.0,142753.0,13891.0,12.060232779476792
62870.95275878226,172348.0,142732.0,13876.0,12.070341943581298
62870.962867946364,172395.0,142757.0,13881.0,12.080451107685803
62870.972977110476,172369.0,142752.0,13900.0,12.090560271797585
62870.98308627458,172345.0,142719.0,13919.0,12.100669435902091
62870.993195438685,172353.0,142726.0,13919.0,12.110778600006597
62871.0033046028,172369.0,142774.0,13915.0,12.120887764118379
62871.0134137669,172366.0,142753.0,13891.0,12.130996928222885
62871.023522931006,172375.0,142747.0,13892.0,12.14110609232739
62871.03363209512,172336.0,142763.0,13907.0,12.151215256439173
62871.04374125922,172330.0,142751.0,13891.0,12.161324420543679
62871.05385042333,172364.0,142754.0,13889.0,12.171433584648184
62871.06395958744,172344.0,142759.0,13875.0,12.181542748759966
62871.07406875154,172358.0,142717.0,13917.0,12.191651912864472
62871.08417791565,172344.0,142751.0,13887.0,12.201761076968978
62871.09428707976,172342.0,142746.0,13898.0,12.21187024108076
62871.10439624386,172319.0,142717.0,13903.0,12.221979405185266
62871.11450540797,172359.0,142765.0,13906.0,12.232088569289772
62871.12461457208,172296.0,142680.0,13885.0,12.242197733401554
62871.134723736184,172328.0,142750.0,13885.0,12.25230689750606
62871.14483290029,172312.0,142725.0,13866.0,12.262416061610566
62871.1549420644,172365.0,142758.0,13870.0,12.272525225722347
62871.165051228505,172324.0,142745.0,13865.0,12.282634389826853
62871.17516039261,172352.0,142762.0,13895.0,12.29274355393136
62871.18526955672,172317.0,142730.0,13879.0,12.302852718043141
62871.195378720826,172303.0,142779.0,13900.0,12.312961882147647
62871.20548788493,172341.0,142719.0,13878.0,12.323071046252153
62871.215597049035,172355.0,142743.0,13884.0,12.333180210356659
62871.22570621315,172323.0,142726.0,13881.0,12.34328937446844
62871.23581537725,172339.0,142740.0,13890.0,12.353398538572947
62871.245924541356,172369.0,142743.0,13915.0,12.363507702677452
62871.25603370547,172319.0,142744.0,13867.0,12.373616866789234
62871.26614286957,172311.0,142746.0,13905.0,12.38372603089374
62871.27625203368,172344.0,142759.0,13888.0,12.393835194998246
62871.28636119779,172345.0,142751.0,13875.0,12.403944359110028
62871.29647036189,172293.0,142747.0,13899.0,12.414053523214534
62871.306579526,172348.0,142735.0,13893.0,12.42416268731904
62871.31668869011,172354.0,142765.0,13875.0,12.434271851430822
62871.32679785421,172348.0,142759.0,13912.0,12.444381015535328
62871.33690701832,172309.0,142732.0,13895.0,12.454490179639834
62871.34701618243,172338.0,142760.0,13889.0,12.464599343751615
62871.357125346534,172317.0,142745.0,13882.0,12.474708507856121
62871.36723451064,172329.0,142738.0,13870.0,12.484817671960627
62871.37734367475,172329.0,142714.0,13895.0,12.494926836072409
62871.387452838855,172358.0,142737.0,13912.0,12.505036000176915
62871.39756200296,172325.0,142720.0,13888.0,12.51514516428142
62871.40767116707,172323.0,142740.0,13883.0,12.525254328393203
62871.417780331176,172333.0,142726.0,13878.0,12.535363492497709
62871.42788949528,172355.0,142755.0,13903.0,12.545472656602215
62871.43799865939,172341.0,142759.0,13884.0,12.555581820713996
62871.4481078235,172365.0,142767.0,13911.0,12.565690984818502
62871.4582169876,172332.0,142738.0,13887.0,12.575800148923008
62871.46832615171,172340.0,142757.0,13904.0,12.58590931303479
62871.47843531582,172322.0,142757.0,13901.0,12.596018477139296
62871.48854447992,172327.0,142737.0,13875.0,12.606127641243802
62871.49865364403,172335.0,142727.0,13888.0,12.616236805348308
62871.50876280814,172346.0,142765.0,13894.0,12.62634596946009
62871.51887197224,172306.0,142780.0,13903.0,12.636455133564596
62871.52898113635,172369.0,142765.0,13919.0,12.646564297669102
62871.53909030046,172349.0,142727.0,13918.0,12.656673461780883
62871.54919946456,172331.0,142744.0,13899.0,12.66678262588539
62871.55930862867,172358.0,142747.0,13880.0,12.676891789989895
62871.56941779278,172323.0,142734.0,13903.0,12.687000954101677
62871.579526956884,172351.0,142755.0,13907.0,12.697110118206183
62871.58963612099,172354.0,142759.0,13900.0,12.707219282310689
62871.5997452851,172349.0,142759.0,13879.0,12.71732844642247
62871.609854449205,172343.0,142727.0,13890.0,12.727437610526977
62871.61996361331,172367.0,142745.0,13916.0,12.737546774631483
62871.63007277742,172343.0,142758.0,13893.0,12.747655938743264
62871.640181941526,172331.0,142733.0,13903.0,12.75776510284777
62871.65029110563,172380.0,142735.0,13915.0,12.767874266952276
62871.66040026974,172375.0,142742.0,13907.0,12.777983431064058
62871.67050943385,172346.0,142753.0,13886.0,12.788092595168564
62871.68061859795,172318.0,142753.0,13911.0,12.79820175927307
62871.69072776206,172347.0,142749.0,13887.0,12.808310923384852
62871.70083692617,172370.0,142752.0,13922.0,12.818420087489358
62871.71094609027,172331.0,142756.0,13882.0,12.828529251593864
62871.721055254384,172382.0,142733.0,13907.0,12.838638415705645
62871.73116441849,172371.0,142771.0,13884.0,12.848747579810151
62871.74127358259,172358.0,142768.0,13927.0,12.858856743914657
62871.751382746705,172328.0,142723.0,13913.0,12.86896590802644
62871.76149191081,172364.0,142760.0,13899.0,12.879075072130945
62871.77160107491,172332.0,142757.0,13897.0,12.889184236235451
62871.781710239025,172380.0,142760.0,13921.0,12.899293400347233
62871.79181940313,172354.0,142762.0,13924.0,12.909402564451739
62871.801928567234,172348.0,142737.0,13890.0,12.919511728556245
62871.81203773134,172359.0,142717.0,13876.0,12.92962089266075
62871.82214689545,172364.0,142770.0,13882.0,12.939730056772532
62871.832256059555,172363.0,142750.0,13885.0,12.949839220877038
62871.84236522366,172344.0,142747.0,13889.0,12.959948384981544
62871.85247438777,172325.0,142732.0,13883.0,12.970057549093326
62871.862583551876,172345.0,142755.0,13910.0,12.980166713197832
62871.87269271598,172309.0,142757.0,13885.0,12.990275877302338
62871.88280188009,172316.0,142744.0,13888.0,13.00038504141412
62871.8929110442,172313.0,142728.0,13874.0,13.010494205518626
62871.9030202083,172358.0,142752.0,13902.0,13.020603369623132
62871.91312937241,172298.0,142730.0,13866.0,13.030712533734913
62871.92323853652,172279.0,142743.0,13871.0,13.04082169783942
62871.93334770062,172287.0,142733.0,13897.0,13.050930861943925
62871.943456864734,172326.0,142762.0,13908.0,13.061040026055707
62871.95356602884,172336.0,142733.0,13909.0,13.071149190160213
62871.96367519294,172318.0,142743.0,13880.0,13.081258354264719
62871.973784357055,172306.0,142731.0,13868.0,13.0913675183765
62871.98389352116,172325.0,142776.0,13921.0,13.101476682481007
62871.994002685264,172334.0,142760.0,13888.0,13.111585846585513
62872.004111849375,172322.0,142744.0,13886.0,13.121695010697294
62872.01422101348,172281.0,142731.0,13869.0,13.1318041748018
62872.024330177584,172303.0,142756.0,13892.0,13.141913338906306
62872.034439341696,172338.0,142746.0,13906.0,13.152022503018088
62872.0445485058,172316.0,142745.0,13889.0,13.162131667122594
62872.054657669905,172283.0,142703.0,13871.0,13.1722408312271
62872.06476683402,172313.0,142731.0,13890.0,13.182349995338882
62872.07487599812,172330.0,142757.0,13905.0,13.192459159443388
62872.084985162226,172315.0,142759.0,13878.0,13.202568323547894
62872.09509432634,172308.0,142719.0,13923.0,13.212677487659676
62872.10520349044,172310.0,142752.0,13880.0,13.222786651764181
62872.11531265455,172334.0,142737.0,13899.0,13.232895815868687
62872.12542181865,172300.0,142751.0,13908.0,13.243004979973193
62872.13553098276,172308.0,142736.0,13893.0,13.253114144084975
62872.14564014687,172322.0,142752.0,13881.0,13.263223308189481
62872.15574931097,172340.0,142739.0,13920.0,13.273332472293987
62872.165858475084,172285.0,142730.0,13892.0,13.283441636405769
62872.17596763919,172312.0,142748.0,13886.0,13.293550800510275
62872.18607680329,172277.0,142731.0,13891.0,13.30365996461478
62872.196185967405,172319.0,142761.0,13911.0,13.313769128726562
62872.20629513151,172312.0,142732.0,13922.0,13.323878292831068
62872.216404295614,172310.0,142741.0,13891.0,13.333987456935574
62872.226513459726,172291.0,142742.0,13884.0,13.344096621047356
62872.23662262383,172345.0,142773.0,13873.0,13.354205785151862
62872.246731787935,172334.0,142739.0,13917.0,13.364314949256368
62872.256840952046,172311.0,142755.0,13891.0,13.37442411336815
62872.26695011615,172307.0,142727.0,13881.0,13.384533277472656
62872.277059280255,172300.0,142765.0,13901.0,13.394642441577162
62872.28716844437,172339.0,142772.0,13908.0,13.404751605688944
62872.29727760847,172319.0,142741.0,13896.0,13.41486076979345
62872.307386772576,172296.0,142743.0,13877.0,13.424969933897955
62872.31749593669,172337.0,142740.0,13907.0,13.435079098009737
62872.32760510079,172321.0,142730.0,13913.0,13.445188262114243
62872.3377142649,172319.0,142747.0,13896.0,13.455297426218749
62872.34782342901,172287.0,142715.0,13900.0,13.465406590330531
62872.35793259311,172311.0,142753.0,13889.0,13.475515754435037
62872.36804175722,172349.0,142760.0,13924.0,13.485624918539543
62872.37815092133,172315.0,142747.0,13897.0,13.495734082651325
62872.388260085434,172303.0,142729.0,13879.0,13.50584324675583
62872.39836924954,172306.0,142741.0,13882.0,13.515952410860336
62872.40847841365,172358.0,142763.0,13924.0,13.526061574972118
62872.418587577755,172325.0,142740.0,13902.0,13.536170739076624
62872.42869674186,172311.0,142736.0,13877.0,13.54627990318113
62872.438805905964,172301.0,142750.0,13894.0,13.556389067285636
62872.448915070076,172353.0,142774.0,13908.0,13.566498231397418
62872.45902423418,172299.0,142721.0,13917.0,13.576607395501924
62872.469133398285,172302.0,142705.0,13896.0,13.58671655960643
62872.4792425624,172278.0,142726.0,13875.0,13.596825723718212
62872.4893517265,172330.0,142765.0,13880.0,13.606934887822717
62872.499460890605,172324.0,142747.0,13876.0,13.617044051927223
62872.50957005472,172306.0,142729.0,13927.0,13.627153216039005
62872.51967921882,172315.0,142753.0,13895.0,13.637262380143511
62872.529788382926,172345.0,142768.0,13928.0,13.647371544248017
62872.53989754704,172327.0,142743.0,13894.0,13.657480708359799
62872.55000671114,172329.0,142749.0,13894.0,13.667589872464305
62872.56011587525,172322.0,142734.0,13893.0,13.67769903656881
62872.57022503936,172352.0,142748.0,13900.0,13.687808200680593
62872.58033420346,172314.0,142741.0,13911.0,13.697917364785098
62872.59044336757,172292.0,142721.0,13896.0,13.708026528889604
62872.60055253168,172298.0,142733.0,13901.0,13.718135693001386
62872.610661695784,172354.0,142776.0,13910.0,13.728244857105892
62872.62077085989,172335.0,142712.0,13909.0,13.738354021210398
62872.630880024,172314.0,142744.0,13895.0,13.74846318532218
62872.640989188105,172319.0,142725.0,13873.0,13.758572349426686
62872.65109835221,172316.0,142746.0,13863.0,13.768681513531192
62872.66120751632,172312.0,142744.0,13923.0,13.778790677642974
62872.671316680426,172303.0,142740.0,13887.0,13.78889984174748
62872.68142584453,172269.0,142764.0,13889.0,13.799009005851985
62872.69153500864,172258.0,142747.0,13877.0,13.809118169963767
62872.70164417275,172303.0,142759.0,13913.0,13.819227334068273
62872.71175333685,172287.0,142743.0,13888.0,13.829336498172779
62872.72186250096,172230.0,142683.0,13864.0,13.839445662284561
62872.73197166507,172294.0,142716.0,13881.0,13.849554826389067
62872.74208082917,172291.0,142747.0,13889.0,13.859663990493573
62872.752189993276,172274.0,142732.0,13884.0,13.869773154598079
62872.76229915739,172281.0,142726.0,13919.0,13.87988231870986
62872.77240832149,172299.0,142741.0,13865.0,13.889991482814366
62872.7825174856,172287.0,142737.0,13893.0,13.900100646918872
62872.79262664971,172284.0,142746.0,13872.0,13.910209811030654
62872.80273581381,172289.0,142757.0,13852.0,13.92031897513516
62872.81284497792,172283.0,142750.0,13876.0,13.930428139239666
62872.82295414203,172296.0,142755.0,13891.0,13.940537303351448
62872.833063306134,172284.0,142730.0,13885.0,13.950646467455954
62872.84317247024,172253.0,142731.0,13887.0,13.96075563156046
62872.85328163435,172274.0,142721.0,13866.0,13.970864795672242
62872.863390798455,172283.0,142760.0,13892.0,13.980973959776748
62872.87349996256,172279.0,142747.0,13886.0,13.991083123881253
62872.88360912667,172309.0,142775.0,13884.0,14.001192287993035
62872.893718290776,172272.0,142728.0,13861.0,14.011301452097541
62872.90382745488,172298.0,142754.0,13885.0,14.021410616202047
62872.91393661899,172298.0,142741.0,13874.0,14.031519780313829
62872.9240457831,172274.0,142725.0,13900.0,14.041628944418335
62872.9341549472,172288.0,142747.0,13878.0,14.05173810852284
62872.94426411131,172277.0,142768.0,13887.0,14.061847272634623
62872.95437327542,172314.0,142754.0,13899.0,14.071956436739129
62872.96448243952,172290.0,142756.0,13885.0,14.082065600843634
62872.97459160363,172281.0,142726.0,13890.0,14.092174764955416
62872.98470076774,172299.0,142770.0,13909.0,14.102283929059922
62872.99480993184,172317.0,142779.0,13909.0,14.112393093164428
62873.004919095954,172274.0,142733.0,13879.0,14.12250225727621
62873.01502826006,172284.0,142728.0,13883.0,14.132611421380716
62873.02513742416,172286.0,142742.0,13878.0,14.142720585485222
62873.035246588275,172313.0,142723.0,13898.0,14.152829749597004
62873.04535575238,172293.0,142746.0,13891.0,14.16293891370151
62873.055464916484,172330.0,142727.0,13881.0,14.173048077806015
62873.06557408059,172291.0,142736.0,13871.0,14.183157241910521
62873.0756832447,172337.0,142767.0,13908.0,14.193266406022303
62873.085792408805,172298.0,142743.0,13898.0,14.20337557012681
62873.09590157291,172269.0,142760.0,13881.0,14.213484734231315
62873.10601073702,172279.0,142736.0,13887.0,14.223593898343097
62873.116119901126,172323.0,142747.0,13915.0,14.233703062447603
62873.12622906523,172299.0,142773.0,13915.0,14.243812226552109
62873.13633822934,172281.0,142716.0,13896.0,14.25392139066389
62873.14644739345,172294.0,142716.0,13873.0,14.264030554768397
62873.15655655755,172301.0,142748.0,13869.0,14.274139718872902
62873.16666572166,172297.0,142741.0,13898.0,14.284248882984684
62873.17677488577,172281.0,142733.0,13917.0,14.29435804708919
62873.18688404987,172280.0,142712.0,13875.0,14.304467211193696
62873.196993213984,172290.0,142772.0,13894.0,14.314576375305478
62873.20710237809,172288.0,142745.0,13892.0,14.324685539409984
62873.21721154219,172341.0,142732.0,13920.0,14.33479470351449
62873.227320706304,172302.0,142742.0,13873.0,14.344903867626272
62873.23742987041,172311.0,142759.0,13914.0,14.355013031730778
62873.24753903451,172301.0,142744.0,13898.0,14.365122195835283
62873.257648198625,172289.0,142757.0,13906.0,14.375231359947065
62873.26775736273,172285.0,142720.0,13875.0,14.385340524051571
62873.277866526834,172288.0,142745.0,13892.0,14.395449688156077
62873.287975690946,172295.0,142742.0,13900.0,14.405558852267859
62873.29808485505,172315.0,142753.0,13914.0,14.415668016372365
62873.308194019155,172292.0,142749.0,13880.0,14.42577718047687
62873.31830318327,172317.0,142747.0,13907.0,14.435886344588653
62873.32841234737,172307.0,142738.0,13928.0,14.445995508693159
62873.338521511476,172299.0,142750.0,13902.0,14.456104672797665
62873.34863067559,172278.0,142713.0,13867.0,14.466213836909446
62873.35873983969,172282.0,142745.0,13881.0,14.476323001013952
62873.3688490038,172328.0,142728.0,13898.0,14.486432165118458
62873.3789581679,172299.0,142770.0,13890.0,14.496541329222964
62873.38906733201,172293.0,142726.0,13862.0,14.506650493334746
62873.39917649612,172311.0,142721.0,13891.0,14.516759657439252
62873.40928566022,172321.0,142734.0,13873.0,14.526868821543758
62873.419394824334,172297.0,142733.0,13894.0,14.53697798565554
62873.42950398844,172280.0,142720.0,13890.0,14.547087149760046
62873.43961315254,172323.0,142761.0,13899.0,14.557196313864551
62873.449722316655,172276.0,142744.0,13894.0,14.567305477976333
62873.45983148076,172307.0,142737.0,13885.0,14.57741464208084
62873.46994064486,172308.0,142738.0,13886.0,14.587523806185345
62873.480049808975,172276.0,142718.0,13875.0,14.597632970297127
62873.49015897308,172302.0,142721.0,13884.0,14.607742134401633
62873.500268137184,172275.0,142728.0,13876.0,14.617851298506139
62873.510377301296,172238.0,142742.0,13890.0,14.62796046261792
62873.5204864654,172229.0,142751.0,13880.0,14.638069626722427
62873.530595629505,172269.0,142745.0,13904.0,14.648178790826933
62873.54070479362,172274.0,142708.0,13874.0,14.658287954938714
62873.55081395772,172237.0,142717.0,13870.0,14.66839711904322
62873.560923121826,172230.0,142719.0,13857.0,14.678506283147726
62873.57103228594,172264.0,142731.0,13863.0,14.688615447259508
62873.58114145004,172271.0,142726.0,13878.0,14.698724611364014
62873.59125061415,172241.0,142728.0,13876.0,14.70883377546852
62873.60135977826,172230.0,142701.0,13855.0,14.718942939580302
62873.61146894236,172248.0,142745.0,13855.0,14.729052103684808
62873.62157810647,172267.0,142750.0,13879.0,14.739161267789314
62873.63168727058,172247.0,142712.0,13857.0,14.749270431901095
62873.641796434684,172256.0,142734.0,13851.0,14.759379596005601
62873.65190559879,172240.0,142708.0,13858.0,14.769488760110107
62873.6620147629,172264.0,142743.0,13901.0,14.77959792422189
62873.672123927005,172274.0,142749.0,13879.0,14.789707088326395
62873.68223309111,172231.0,142722.0,13879.0,14.799816252430901
62873.69234225521,172244.0,142704.0,13873.0,14.809925416535407
62873.702451419325,172263.0,142737.0,13880.0,14.820034580647189
62873.71256058343,172237.0,142756.0,13891.0,14.830143744751695
62873.722669747534,172243.0,142727.0,13875.0,14.8402529088562
62873.732778911646,172275.0,142745.0,13864.0,14.850362072967982
62873.74288807575,172266.0,142733.0,13901.0,14.860471237072488
62873.752997239855,172250.0,142764.0,13873.0,14.870580401176994
62873.76310640397,172226.0,142713.0,13880.0,14.880689565288776
62873.77321556807,172239.0,142713.0,13867.0,14.890798729393282
62873.783324732176,172269.0,142738.0,13900.0,14.900907893497788
62873.79343389629,172247.0,142754.0,13893.0,14.91101705760957
62873.80354306039,172247.0,142719.0,13867.0,14.921126221714076
62873.8136522245,172218.0,142718.0,13864.0,14.931235385818582
62873.82376138861,172240.0,142728.0,13892.0,14.941344549930363
62873.83387055271,172267.0,142738.0,13882.0,14.95145371403487
62873.84397971682,172250.0,142707.0,13883.0,14.961562878139375
62873.85408888093,172266.0,142719.0,13878.0,14.971672042251157
62873.864198045034,172224.0,142756.0,13876.0,14.981781206355663
62873.87430720914,172271.0,142749.0,13890.0,14.991890370460169
62873.88441637325,172287.0,142744.0,13903.0,15.00199953457195
62873.894525537355,172256.0,142758.0,13907.0,15.012108698676457
62873.90463470146,172267.0,142726.0,13877.0,15.022217862780963
62873.91474386557,172281.0,142742.0,13886.0,15.032327026892744
62873.924853029675,172270.0,142775.0,13891.0,15.04243619099725
62873.93496219378,172254.0,142717.0,13876.0,15.052545355101756
62873.94507135789,172280.0,142737.0,13901.0,15.062654519213538
62873.955180521996,172266.0,142738.0,13877.0,15.072763683318044
62873.9652896861,172293.0,142760.0,13891.0,15.08287284742255
62873.97539885021,172290.0,142754.0,13895.0,15.092982011534332
62873.98550801432,172255.0,142738.0,13895.0,15.103091175638838
62873.99561717842,172280.0,142739.0,13881.0,15.113200339743344
62874.005726342526,172267.0,142721.0,13928.0,15.12330950384785
62874.01583550664,172279.0,142750.0,13886.0,15.133418667959631
62874.02594467074,172257.0,142744.0,13873.0,15.143527832064137
62874.03605383485,172285.0,142757.0,13885.0,15.153636996168643
62874.04616299896,172309.0,142742.0,13910.0,15.163746160280425
62874.05627216306,172243.0,142697.0,13870.0,15.173855324384931
62874.06638132717,172252.0,142715.0,13868.0,15.183964488489437
62874.07649049128,172267.0,142736.0,13894.0,15.194073652601219
62874.086599655384,172258.0,142740.0,13880.0,15.204182816705725
62874.09670881949,172283.0,142720.0,13893.0,15.21429198081023
62874.1068179836,172242.0,142724.0,13870.0,15.224401144922012
62874.116927147705,172286.0,142743.0,13857.0,15.234510309026518
62874.12703631181,172250.0,142744.0,13902.0,15.244619473131024
62874.13714547592,172252.0,142721.0,13865.0,15.254728637242806
62874.147254640025,172290.0,142732.0,13874.0,15.264837801347312
62874.15736380413,172281.0,142728.0,13904.0,15.274946965451818
62874.16747296824,172270.0,142746.0,13898.0,15.2850561295636
62874.177582132346,172262.0,142717.0,13895.0,15.295165293668106
62874.18769129645,172265.0,142728.0,13889.0,15.305274457772612
62874.19780046056,172302.0,142758.0,13915.0,15.315383621884394
62874.20790962467,172281.0,142765.0,13881.0,15.3254927859889
62874.21801878877,172267.0,142768.0,13866.0,15.335601950093405
62874.22812795288,172314.0,142774.0,13906.0,15.345711114205187
62874.23823711699,172288.0,142764.0,13905.0,15.355820278309693
62874.24834628109,172289.0,142748.0,13890.0,15.365929442414199
62874.258455445204,172282.0,142753.0,13925.0,15.37603860652598
62874.26856460931,172260.0,142717.0,13919.0,15.386147770630487
62874.27867377341,172262.0,142728.0,13878.0,15.396256934734993
62874.288782937525,172298.0,142748.0,13905.0,15.406366098846775
62874.29889210163,172284.0,142765.0,13893.0,15.41647526295128
62874.309001265734,172298.0,142769.0,13913.0,15.426584427055786
62874.31911042984,172276.0,142727.0,13873.0,15.436693591160292
62874.32921959395,172312.0,142764.0,13897.0,15.446802755272074
62874.339328758055,172273.0,142754.0,13898.0,15.45691191937658
62874.34943792216,172299.0,142758.0,13903.0,15.467021083481086
62874.35954708627,172280.0,142740.0,13891.0,15.477130247592868
62874.369656250376,172288.0,142745.0,13889.0,15.487239411697374
62874.37976541448,172243.0,142733.0,13874.0,15.49734857580188
62874.38987457859,172278.0,142753.0,13875.0,15.507457739913661
62874.399983742696,172271.0,142722.0,13885.0,15.517566904018167
62874.4100929068,172266.0,142742.0,13882.0,15.527676068122673
62874.42020207091,172243.0,142725.0,13865.0,15.537785232234455
62874.43031123502,172251.0,142738.0,13847.0,15.547894396338961
62874.44042039912,172268.0,142747.0,13894.0,15.558003560443467
62874.45052956323,172240.0,142734.0,13873.0,15.568112724555249
62874.46063872734,172219.0,142756.0,13859.0,15.578221888659755
62874.47074789144,172233.0,142715.0,13862.0,15.58833105276426
62874.480857055554,172223.0,142716.0,13866.0,15.598440216876043
62874.49096621966,172252.0,142752.0,13879.0,15.608549380980548
62874.50107538376,172257.0,142717.0,13880.0,15.618658545085054
62874.511184547875,172230.0,142713.0,13870.0,15.628767709196836
62874.52129371198,172226.0,142726.0,13873.0,15.638876873301342
62874.531402876084,172235.0,142731.0,13856.0,15.648986037405848
62874.541512040196,172241.0,142740.0,13876.0,15.65909520151763
62874.5516212043,172241.0,142742.0,13866.0,15.669204365622136
62874.561730368405,172256.0,142772.0,13887.0,15.679313529726642
62874.57183953252,172244.0,142727.0,13879.0,15.689422693838424
62874.58194869662,172234.0,142745.0,13886.0,15.69953185794293
62874.592057860726,172214.0,142739.0,13838.0,15.709641022047435
62874.60216702484,172215.0,142726.0,13871.0,15.719750186159217
62874.61227618894,172216.0,142727.0,13886.0,15.729859350263723
62874.62238535305,172240.0,142738.0,13877.0,15.739968514368229
62874.63249451715,172215.0,142736.0,13891.0,15.750077678472735
62874.64260368126,172250.0,142765.0,13892.0,15.760186842584517
62874.65271284537,172241.0,142736.0,13869.0,15.770296006689023
62874.66282200947,172243.0,142735.0,13881.0,15.780405170793529
62874.67293117358,172238.0,142713.0,13865.0,15.79051433490531
62874.68304033769,172217.0,142720.0,13864.0,15.800623499009816
62874.69314950179,172211.0,142765.0,13875.0,15.810732663114322
62874.703258665904,172233.0,142739.0,13876.0,15.820841827226104
62874.71336783001,172223.0,142748.0,13855.0,15.83095099133061
62874.72347699411,172212.0,142752.0,13874.0,15.841060155435116
62874.733586158225,172201.0,142724.0,13858.0,15.851169319546898
62874.74369532233,172241.0,142740.0,13878.0,15.861278483651404
62874.753804486434,172227.0,142717.0,13875.0,15.87138764775591
62874.763913650546,172255.0,142725.0,13877.0,15.881496811867692
62874.77402281465,172236.0,142728.0,13887.0,15.891605975972197
62874.784131978755,172245.0,142734.0,13880.0,15.901715140076703
62874.79424114287,172197.0,142747.0,13868.0,15.911824304188485
62874.80435030697,172243.0,142717.0,13876.0,15.921933468292991
62874.814459471076,172262.0,142712.0,13902.0,15.932042632397497
62874.82456863519,172238.0,142727.0,13887.0,15.942151796509279
62874.83467779929,172226.0,142706.0,13883.0,15.952260960613785
62874.8447869634,172260.0,142767.0,13889.0,15.96237012471829
62874.85489612751,172270.0,142746.0,13903.0,15.972479288830073
62874.86500529161,172244.0,142741.0,13875.0,15.982588452934579
62874.87511445572,172228.0,142746.0,13866.0,15.992697617039084
62874.88522361983,172208.0,142710.0,13889.0,16.002806781150866
62874.89533278393,172284.0,142755.0,13903.0,16.012915945255372
62874.90544194804,172249.0,142745.0,13880.0,16.023025109359878
62874.91555111215,172269.0,142734.0,13861.0,16.03313427347166
62874.925660276254,172240.0,142708.0,13879.0,16.043243437576166
62874.93576944036,172286.0,142763.0,13861.0,16.053352601680672
62874.94587860446,172244.0,142751.0,13859.0,16.063461765785178
62874.955987768575,172239.0,142743.0,13895.0,16.07357092989696
62874.96609693268,172250.0,142759.0,13894.0,16.083680094001465
62874.976206096784,172242.0,142770.0,13896.0,16.09378925810597
62874.986315260896,172216.0,142732.0,13872.0,16.103898422217753
62874.996424425,172263.0,142728.0,13864.0,16.11400758632226
62875.006533589105,172228.0,142725.0,13874.0,16.124116750426765
62875.01664275322,172265.0,142723.0,13922.0,16.134225914538547
62875.02675191732,172240.0,142701.0,13907.0,16.144335078643053
62875.036861081426,172255.0,142746.0,13889.0,16.15444424274756
62875.04697024554,172238.0,142728.0,13885.0,16.16455340685934
62875.05707940964,172275.0,142744.0,13899.0,16.174662570963847
62875.06718857375,172280.0,142763.0,13894.0,16.184771735068352
62875.07729773786,172261.0,142747.0,13886.0,16.194880899180134
62875.08740690196,172267.0,142753.0,13897.0,16.20499006328464
62875.09751606607,172278.0,142758.0,13869.0,16.215099227389146
62875.10762523018,172247.0,142735.0,13869.0,16.225208391500928
62875.11773439428,172257.0,142745.0,13888.0,16.235317555605434
62875.12784355839,172252.0,142725.0,13877.0,16.24542671970994
62875.1379527225,172246.0,142749.0,13895.0,16.25553588382172
62875.148061886604,172273.0,142742.0,13903.0,16.265645047926228
62875.15817105071,172268.0,142742.0,13882.0,16.275754212030733
62875.16828021482,172250.0,142727.0,13877.0,16.285863376142515
62875.178389378925,172264.0,142710.0,13882.0,16.29597254024702
62875.18849854303,172287.0,142699.0,13900.0,16.306081704351527
62875.19860770714,172276.0,142743.0,13888.0,16.31619086846331
62875.208716871246,172275.0,142760.0,13892.0,16.326300032567815
62875.21882603535,172287.0,142756.0,13890.0,16.33640919667232
62875.22893519946,172294.0,142758.0,13907.0,16.346518360784103
62875.23904436357,172254.0,142740.0,13888.0,16.35662752488861
62875.24915352767,172236.0,142721.0,13861.0,16.366736688993115
62875.259262691776,172288.0,142740.0,13876.0,16.37684585309762
62875.26937185589,172272.0,142754.0,13905.0,16.386955017209402
62875.27948101999,172252.0,142722.0,13882.0,16.397064181313908
62875.2895901841,172212.0,142723.0,13858.0,16.407173345418414
62875.29969934821,172232.0,142730.0,13859.0,16.417282509530196
62875.30980851231,172232.0,142726.0,13863.0,16.427391673634702
62875.31991767642,172236.0,142730.0,13878.0,16.437500837739208
62875.33002684053,172225.0,142715.0,13869.0,16.44761000185099
62875.340136004634,172231.0,142729.0,13869.0,16.457719165955496
62875.35024516874,172247.0,142747.0,13868.0,16.46782833006
62875.36035433285,172226.0,142731.0,13890.0,16.477937494171783
62875.370463496954,172194.0,142747.0,13882.0,16.48804665827629
62875.38057266106,172219.0,142722.0,13868.0,16.498155822380795
62875.39068182517,172235.0,142755.0,13897.0,16.508264986492577
62875.400790989275,172243.0,142748.0,13885.0,16.518374150597083
62875.41090015338,172223.0,142719.0,13886.0,16.52848331470159
62875.42100931749,172187.0,142723.0,13885.0,16.53859247881337
62875.431118481596,172246.0,142734.0,13873.0,16.548701642917877
62875.4412276457,172231.0,142734.0,13901.0,16.558810807022383
62875.45133680981,172229.0,142742.0,13883.0,16.568919971134164
62875.46144597392,172225.0,142715.0,13893.0,16.57902913523867
62875.47155513802,172251.0,142728.0,13894.0,16.589138299343176
62875.48166430213,172248.0,142722.0,13885.0,16.599247463454958
62875.49177346624,172227.0,142745.0,13870.0,16.609356627559464
62875.50188263034,172215.0,142726.0,13858.0,16.61946579166397
62875.511991794454,172250.0,142758.0,13885.0,16.62957495577575
62875.52210095856,172245.0,142751.0,13902.0,16.639684119880258
62875.53221012266,172251.0,142735.0,13890.0,16.649793283984764
62875.542319286775,172191.0,142717.0,13880.0,16.659902448096545
62875.55242845088,172188.0,142730.0,13864.0,16.67001161220105
62875.562537614984,172260.0,142741.0,13887.0,16.680120776305557
62875.57264677909,172235.0,142729.0,13881.0,16.690229940410063
62875.5827559432,172205.0,142709.0,13876.0,16.700339104521845
62875.592865107305,172237.0,142722.0,13871.0,16.71044826862635
62875.60297427141,172261.0,142765.0,13883.0,16.720557432730857
62875.61308343552,172239.0,142738.0,13870.0,16.73066659684264
62875.623192599625,172233.0,142730.0,13892.0,16.740775760947145
62875.63330176373,172228.0,142736.0,13867.0,16.75088492505165
62875.64341092784,172235.0,142760.0,13892.0,16.760994089163432
62875.653520091946,172243.0,142747.0,13882.0,16.77110325326794
62875.66362925605,172211.0,142706.0,13874.0,16.781212417372444
62875.67373842016,172239.0,142740.0,13870.0,16.791321581484226
62875.68384758427,172249.0,142732.0,13907.0,16.801430745588732
62875.69395674837,172235.0,142732.0,13873.0,16.811539909693238
62875.70406591248,172194.0,142713.0,13896.0,16.82164907380502
62875.71417507659,172217.0,142756.0,13898.0,16.831758237909526
62875.72428424069,172242.0,142761.0,13903.0,16.84186740201403
62875.734393404804,172244.0,142744.0,13886.0,16.851976566125813
62875.74450256891,172259.0,142714.0,13878.0,16.86208573023032
62875.75461173301,172220.0,142723.0,13864.0,16.872194894334825
62875.764720897125,172257.0,142751.0,13865.0,16.882304058446607
62875.77483006123,172251.0,142734.0,13892.0,16.892413222551113
62875.784939225334,172246.0,142764.0,13887.0,16.90252238665562
62875.795048389446,172213.0,142755.0,13883.0,16.9126315507674
62875.80515755355,172228.0,142757.0,13887.0,16.922740714871907
62875.815266717655,172205.0,142745.0,13847.0,16.932849878976413
62875.82537588177,172233.0,142726.0,13889.0,16.942959043088194
62875.83548504587,172235.0,142720.0,13873.0,16.9530682071927
62875.845594209975,172268.0,142726.0,13885.0,16.963177371297206
62875.85570337409,172270.0,142773.0,13898.0,16.973286535408988
62875.86581253819,172247.0,142739.0,13893.0,16.983395699513494
62875.875921702296,172241.0,142731.0,13904.0,16.993504863618
62875.8860308664,172255.0,142773.0,13897.0,17.003614027722506
62875.89614003051,172258.0,142737.0,13905.0,17.013723191834288
62875.90624919462,172246.0,142760.0,13892.0,17.023832355938794
62875.91635835872,172252.0,142748.0,13883.0,17.0339415200433
62875.92646752283,172260.0,142735.0,13861.0,17.04405068415508
62875.93657668694,172265.0,142770.0,13886.0,17.054159848259587
62875.94668585104,172238.0,142745.0,13888.0,17.064269012364093
62875.956795015154,172223.0,142755.0,13893.0,17.074378176475875
62875.96690417926,172224.0,142743.0,13864.0,17.08448734058038
62875.97701334336,172274.0,142774.0,13900.0,17.094596504684887
62875.987122507475,172271.0,142746.0,13891.0,17.10470566879667
62875.99723167158,172254.0,142729.0,13880.0,17.114814832901175
62876.007340835684,172276.0,142734.0,13894.0,17.12492399700568
62876.017449999796,172262.0,142762.0,13903.0,17.135033161117462
62876.0275591639,172255.0,142747.0,13888.0,17.14514232522197
62876.037668328005,172266.0,142760.0,13902.0,17.155251489326474
62876.04777749212,172225.0,142717.0,13864.0,17.165360653438256
62876.05788665622,172251.0,142739.0,13895.0,17.175469817542762
62876.067995820325,172260.0,142752.0,13910.0,17.185578981647268
62876.07810498444,172295.0,142740.0,13908.0,17.19568814575905
62876.08821414854,172255.0,142730.0,13872.0,17.205797309863556
62876.098323312646,172281.0,142768.0,13920.0,17.21590647396806
62876.10843247676,172262.0,142739.0,13878.0,17.226015638079843
62876.11854164086,172297.0,142765.0,13896.0,17.23612480218435
62876.12865080497,172226.0,142754.0,13864.0,17.246233966288855
62876.13875996908,172267.0,142759.0,13886.0,17.256343130400637
62876.14886913318,172258.0,142744.0,13886.0,17.266452294505143
62876.15897829729,172247.0,142764.0,13881.0,17.27656145860965
62876.1690874614,172234.0,142716.0,13863.0,17.28667062272143
62876.179196625504,172269.0,142766.0,13869.0,17.296779786825937
62876.18930578961,172242.0,142748.0,13873.0,17.306888950930443
62876.19941495371,172211.0,142738.0,13893.0,17.31699811503495
62876.209524117825,172219.0,142733.0,13862.0,17.32710727914673
62876.21963328193,172218.0,142760.0,13896.0,17.337216443251236
62876.229742446034,172231.0,142731.0,13897.0,17.347325607355742
62876.239851610146,172237.0,142761.0,13865.0,17.357434771467524
62876.24996077425,172227.0,142704.0,13877.0,17.36754393557203
62876.260069938355,172208.0,142716.0,13858.0,17.377653099676536
62876.27017910247,172259.0,142755.0,13861.0,17.387762263788318
62876.28028826657,172225.0,142746.0,13866.0,17.397871427892824
62876.290397430676,172198.0,142745.0,13862.0,17.40798059199733
62876.30050659479,172210.0,142734.0,13859.0,17.41808975610911
62876.31061575889,172254.0,142769.0,13909.0,17.428198920213617
62876.320724922996,172228.0,142746.0,13876.0,17.438308084318123
62876.33083408711,172190.0,142695.0,13847.0,17.448417248429905
62876.34094325121,172202.0,142719.0,13877.0,17.45852641253441
62876.35105241532,172206.0,142714.0,13877.0,17.468635576638917
62876.36116157943,172223.0,142731.0,13880.0,17.4787447407507
62876.37127074353,172248.0,142780.0,13898.0,17.488853904855205
62876.38137990764,172206.0,142738.0,13864.0,17.49896306895971
62876.39148907175,172224.0,142751.0,13882.0,17.509072233071493
62876.401598235854,172217.0,142745.0,13875.0,17.519181397176
62876.41170739996,172202.0,142734.0,13877.0,17.529290561280504
62876.42181656407,172181.0,142718.0,13853.0,17.539399725392286
62876.431925728175,172261.0,142767.0,13868.0,17.549508889496792
62876.44203489228,172237.0,142754.0,13877.0,17.559618053601298
62876.45214405639,172236.0,142768.0,13896.0,17.56972721771308
62876.462253220496,172155.0,142714.0,13837.0,17.579836381817586
62876.4723623846,172195.0,142759.0,13867.0,17.58994554592209
62876.48247154871,172223.0,142741.0,13878.0,17.600054710033874
62876.49258071282,172220.0,142719.0,13871.0,17.61016387413838
62876.50268987692,172200.0,142719.0,13884.0,17.620273038242885
62876.512799041026,172213.0,142730.0,13899.0,17.63038220234739
62876.52290820514,172227.0,142758.0,13875.0,17.640491366459173
62876.53301736924,172199.0,142768.0,13892.0,17.65060053056368
62876.54312653335,172209.0,142733.0,13872.0,17.660709694668185
62876.55323569746,172203.0,142716.0,13869.0,17.670818858779967
62876.56334486156,172235.0,142745.0,13871.0,17.680928022884473
62876.57345402567,172221.0,142752.0,13875.0,17.69103718698898
62876.58356318978,172220.0,142742.0,13896.0,17.70114635110076
62876.59367235388,172232.0,142733.0,13862.0,17.711255515205266
62876.60378151799,172226.0,142736.0,13911.0,17.721364679309772
62876.6138906821,172218.0,142734.0,13881.0,17.731473843421554
62876.623999846204,172195.0,142726.0,13897.0,17.74158300752606
62876.63410901031,172204.0,142749.0,13887.0,17.751692171630566
62876.64421817442,172219.0,142743.0,13885.0,17.761801335742348
62876.654327338525,172234.0,142745.0,13884.0,17.771910499846854
62876.66443650263,172255.0,142768.0,13888.0,17.78201966395136
62876.67454566674,172211.0,142727.0,13870.0,17.79212882806314
62876.684654830846,172234.0,142739.0,13860.0,17.802237992167647
62876.69476399495,172231.0,142757.0,13883.0,17.812347156272153
62876.70487315906,172229.0,142758.0,13917.0,17.822456320383935
62876.71498232317,172235.0,142741.0,13877.0,17.83256548448844
62876.72509148727,172196.0,142775.0,13896.0,17.842674648592947
62876.73520065138,172258.0,142755.0,13903.0,17.85278381270473
62876.74530981549,172229.0,142711.0,13895.0,17.862892976809235
62876.75541897959,172211.0,142728.0,13869.0,17.87300214091374
62876.765528143704,172217.0,142712.0,13885.0,17.883111305025523
62876.77563730781,172225.0,142751.0,13886.0,17.89322046913003
62876.78574647191,172255.0,142758.0,13898.0,17.903329633234534
62876.795855636024,172216.0,142724.0,13864.0,17.913438797346316
62876.80596480013,172233.0,142728.0,13879.0,17.923547961450822
62876.81607396423,172243.0,142745.0,13887.0,17.933657125555328
62876.82618312834,172265.0,142776.0,13903.0,17.943766289659834
62876.83629229245,172237.0,142737.0,13877.0,17.953875453771616
62876.846401456554,172266.0,142768.0,13896.0,17.96398461787612
62876.85651062066,172245.0,142742.0,13883.0,17.974093781980628
62876.86661978477,172217.0,142762.0,13900.0,17.98420294609241
62876.876728948875,172207.0,142716.0,13885.0,17.994312110196915
62876.88683811298,172206.0,142720.0,13875.0,18.00442127430142
62876.89694727709,172243.0,142744.0,13888.0,18.014530438413203
62876.907056441196,172272.0,142744.0,13907.0,18.02463960251771
62876.9171656053,172238.0,142728.0,13873.0,18.034748766622215
62876.92727476941,172232.0,142724.0,13871.0,18.044857930733997
62876.93738393352,172246.0,142744.0,13895.0,18.054967094838503
62876.94749309762,172283.0,142766.0,13906.0,18.06507625894301
62876.95760226173,172273.0,142764.0,13901.0,18.07518542305479
62876.96771142584,172231.0,142710.0,13879.0,18.085294587159296
62876.97782058994,172246.0,142742.0,13888.0,18.095403751263802
62876.987929754054,172234.0,142750.0,13894.0,18.105512915375584
62876.99803891816,172260.0,142691.0,13894.0,18.11562207948009
62877.00814808226,172242.0,142695.0,13878.0,18.125731243584596
62877.018257246375,172261.0,142741.0,13916.0,18.135840407696378
62877.02836641048,172267.0,142753.0,13887.0,18.145949571800884
62877.03847557458,172223.0,142716.0,13872.0,18.15605873590539
62877.048584738695,172246.0,142724.0,13875.0,18.16616790001717
62877.0586939028,172258.0,142747.0,13892.0,18.176277064121678
62877.068803066904,172257.0,142746.0,13892.0,18.186386228226183
62877.078912231016,172276.0,142765.0,13889.0,18.196495392337965
62877.08902139512,172245.0,142732.0,13870.0,18.20660455644247
62877.099130559225,172257.0,142729.0,13856.0,18.216713720546977
62877.10923972334,172261.0,142749.0,13884.0,18.22682288465876
62877.11934888744,172240.0,142750.0,13891.0,18.236932048763265
62877.129458051546,172221.0,142727.0,13881.0,18.24704121286777
62877.13956721565,172178.0,142742.0,13859.0,18.257150376972277
62877.14967637976,172228.0,142733.0,13880.0,18.26725954108406
62877.15978554387,172226.0,142727.0,13896.0,18.277368705188564
62877.16989470797,172215.0,142749.0,13897.0,18.28747786929307
62877.18000387208,172233.0,142718.0,13870.0,18.297587033404852
62877.19011303619,172232.0,142732.0,13880.0,18.307696197509358
62877.20022220029,172255.0,142745.0,13860.0,18.317805361613864
62877.210331364404,172241.0,142752.0,13893.0,18.327914525725646
62877.22044052851,172243.0,142762.0,13894.0,18.338023689830152
62877.23054969261,172216.0,142751.0,13888.0,18.348132853934658
62877.240658856725,172206.0,142765.0,13869.0,18.35824201804644
62877.25076802083,172245.0,142750.0,13901.0,18.368351182150946
62877.26087718493,172241.0,142754.0,13895.0,18.37846034625545
62877.270986349045,172230.0,142751.0,13871.0,18.388569510367233
62877.28109551315,172209.0,142734.0,13873.0,18.39867867447174
62877.291204677254,172244.0,142752.0,13862.0,18.408787838576245
62877.301313841366,172210.0,142753.0,13865.0,18.418897002688027
62877.31142300547,172238.0,142753.0,13877.0,18.429006166792533
62877.321532169575,172219.0,142732.0,13884.0,18.43911533089704
62877.33164133369,172259.0,142761.0,13910.0,18.44922449500882
62877.34175049779,172244.0,142722.0,13876.0,18.459333659113327
62877.351859661896,172241.0,142754.0,13871.0,18.469442823217832
62877.36196882601,172243.0,142718.0,13877.0,18.479551987329614
62877.37207799011,172244.0,142724.0,13911.0,18.48966115143412
62877.38218715422,172264.0,142772.0,13888.0,18.499770315538626
62877.39229631833,172244.0,142744.0,13864.0,18.509879479650408
62877.40240548243,172226.0,142744.0,13929.0,18.519988643754914
62877.41251464654,172258.0,142758.0,13892.0,18.53009780785942
62877.42262381065,172226.0,142744.0,13867.0,18.5402069719712
62877.432732974754,172208.0,142757.0,13862.0,18.550316136075708
62877.44284213886,172230.0,142753.0,13889.0,18.560425300180214
62877.45295130296,172226.0,142769.0,13895.0,18.57053446428472
62877.463060467075,172274.0,142757.0,13891.0,18.5806436283965
62877.47316963118,172213.0,142721.0,13904.0,18.590752792501007
62877.483278795284,172253.0,142752.0,13888.0,18.600861956605513
62877.493387959395,172193.0,142766.0,13870.0,18.610971120717295
62877.5034971235,172234.0,142730.0,13868.0,18.6210802848218
62877.513606287604,172251.0,142738.0,13863.0,18.631189448926307
62877.523715451716,172245.0,142749.0,13880.0,18.64129861303809
62877.53382461582,172257.0,142770.0,13908.0,18.651407777142595
62877.543933779925,172222.0,142723.0,13878.0,18.6615169412471
62877.55404294404,172260.0,142762.0,13879.0,18.671626105358882
62877.56415210814,172260.0,142749.0,13892.0,18.68173526946339
62877.574261272246,172255.0,142743.0,13889.0,18.691844433567894
62877.58437043636,172279.0,142772.0,13914.0,18.701953597679676
62877.59447960046,172255.0,142734.0,13881.0,18.712062761784182
62877.60458876457,172256.0,142756.0,13881.0,18.722171925888688
62877.61469792868,172232.0,142727.0,13909.0,18.73228109000047
62877.62480709278,172225.0,142733.0,13874.0,18.742390254104976
62877.63491625689,172251.0,142721.0,13861.0,18.75249941820948
62877.645025421,172255.0,142748.0,13893.0,18.762608582321263
62877.655134585104,172265.0,142747.0,13880.0,18.77271774642577
62877.66524374921,172288.0,142717.0,13914.0,18.782826910530275
62877.67535291332,172226.0,142692.0,13898.0,18.792936074642057
62877.685462077425,172254.0,142744.0,13896.0,18.803045238746563
62877.69557124153,172247.0,142734.0,13873.0,18.81315440285107
62877.70568040564,172241.0,142740.0,13901.0,18.82326356696285
62877.715789569746,172280.0,142739.0,13912.0,18.833372731067357
62877.72589873385,172266.0,142754.0,13894.0,18.843481895171863
62877.73600789796,172275.0,142737.0,13890.0,18.853591059283644
62877.746117062066,172247.0,142747.0,13879.0,18.86370022338815
62877.75622622617,172291.0,142775.0,13921.0,18.873809387492656
62877.766335390275,172264.0,142752.0,13881.0,18.883918551597162
62877.77644455439,172255.0,142743.0,13896.0,18.894027715708944
62877.78655371849,172238.0,142731.0,13880.0,18.90413687981345
62877.796662882596,172279.0,142785.0,13871.0,18.914246043917956
62877.80677204671,172223.0,142749.0,13868.0,18.924355208029738
62877.81688121081,172247.0,142728.0,13899.0,18.934464372134244
62877.82699037492,172250.0,142731.0,13887.0,18.94457353623875
62877.83709953903,172241.0,142740.0,13894.0,18.95468270035053
62877.84720870313,172270.0,142756.0,13917.0,18.964791864455037
62877.85731786724,172259.0,142783.0,13888.0,18.974901028559543
62877.86742703135,172257.0,142737.0,13880.0,18.985010192671325
62877.877536195454,172270.0,142730.0,13914.0,18.99511935677583
62877.88764535956,172287.0,142740.0,13902.0,19.005228520880337
62877.89775452367,172288.0,142751.0,13888.0,19.01533768499212
62877.907863687775,172280.0,142773.0,13895.0,19.025446849096625
62877.91797285188,172276.0,142764.0,13883.0,19.03555601320113
62877.92808201599,172275.0,142749.0,13884.0,19.045665177312912
62877.938191180096,172255.0,142724.0,13893.0,19.05577434141742
62877.9483003442,172250.0,142735.0,13871.0,19.065883505521924
62877.95840950831,172238.0,142740.0,13886.0,19.075992669633706
62877.96851867242,172291.0,142766.0,13912.0,19.086101833738212
62877.97862783652,172276.0,142762.0,13885.0,19.096210997842718
62877.98873700063,172238.0,142762.0,13903.0,19.1063201619545
62877.99884616474,172237.0,142751.0,13887.0,19.116429326059006
62878.00895532884,172291.0,142786.0,13913.0,19.12653849016351
62878.01906449295,172282.0,142762.0,13886.0,19.136647654275293
62878.02917365706,172268.0,142711.0,13871.0,19.1467568183798
62878.03928282116,172276.0,142745.0,13911.0,19.156865982484305
62878.049391985274,172228.0,142732.0,13885.0,19.166975146596087
62878.05950114938,172252.0,142758.0,13879.0,19.177084310700593
62878.06961031348,172225.0,142746.0,13901.0,19.1871934748051
62878.07971947759,172236.0,142748.0,13859.0,19.197302638909605
62878.0898286417,172245.0,142762.0,13900.0,19.207411803021387
62878.099937805804,172245.0,142747.0,13888.0,19.217520967125893
62878.11004696991,172253.0,142747.0,13877.0,19.2276301312304
62878.12015613402,172267.0,142774.0,13894.0,19.23773929534218
62878.130265298125,172289.0,142763.0,13913.0,19.247848459446686
62878.14037446223,172250.0,142760.0,13890.0,19.257957623551192
62878.15048362634,172262.0,142742.0,13882.0,19.268066787662974
62878.160592790446,172228.0,142775.0,13880.0,19.27817595176748
62878.17070195455,172279.0,142784.0,13907.0,19.288285115871986
62878.18081111866,172254.0,142762.0,13873.0,19.298394279983768
62878.19092028277,172269.0,142737.0,13870.0,19.308503444088274
62878.20102944687,172243.0,142768.0,13877.0,19.31861260819278
62878.21113861098,172265.0,142759.0,13892.0,19.32872177230456
