timestamp,time_from_segment_start_sec,selected_channel_name,backup_channel_name,selected_channel_raw,selected_channel_clipped,selected_channel_detrended,selected_channel_filtered,selected_channel_filtered_z
62858.87910224024,0.0,PPG_1,PPG_2,183885.0,183885.0,204.79674711471307,59.811491088243315,0.5877849124775456
62858.88910501018,0.0100027699372731,PPG_1,PPG_2,183897.0,183897.0,216.71731412035297,70.63701132591696,0.6943371579451053
62858.899107780126,0.0200055398818221,PPG_1,PPG_2,183960.0,183960.0,279.63788112599286,81.16267202381349,0.7979379787617804
62858.90911055007,0.0300083098263712,PPG_1,PPG_2,183920.0,183920.0,239.55844813160365,91.18692081717778,0.8966035573767785
62858.91911332001,0.0400110797636443,PPG_1,PPG_2,183945.0,183945.0,264.47901513724355,100.56398551996645,0.9888991032757756
62858.92911608995,0.0500138497081934,PPG_1,PPG_2,183910.0,183910.0,229.39958214288345,109.21515599727802,1.074049896959784
62858.93911885989,0.0600166196454665,PPG_1,PPG_2,183994.0,183994.0,313.32014914852334,117.13105339026924,1.1519636252237362
62858.949121629834,0.0700193895900156,PPG_1,PPG_2,183972.0,183972.0,291.24071615416324,124.36864976640535,1.2232010464962402
62858.95912439977,0.0800221595272887,PPG_1,PPG_2,183964.0,183964.0,283.16128315980313,131.04356059666793,1.2889001280780277
62858.96912716971,0.0900249294718378,PPG_1,PPG_2,183964.0,183964.0,283.08185016544303,137.31570726778776,1.3506349266869595
62858.97912993965,0.1000276994091109,PPG_1,PPG_2,183992.0,183992.0,311.0024171710829,143.3692744086856,1.410218314624897
62858.9891327096,0.11003046935366,PPG_1,PPG_2,183995.0,183995.0,313.9229841766937,149.39114130718656,1.469489686887366
62858.999135479535,0.1200332392909331,PPG_1,PPG_2,183996.0,183996.0,314.8435511823336,155.55079682305896,1.5301172698684389
62859.00913824948,0.1300360092354822,PPG_1,PPG_2,184036.0,184036.0,354.7641181879735,161.98194211996187,1.5934170427447953
62859.01914101942,0.1400387791727553,PPG_1,PPG_2,183998.0,183998.0,316.6846851936134,168.76496674894784,1.6601802549888593
62859.02914378936,0.1500415491173043,PPG_1,PPG_2,184032.0,184032.0,350.6052521992533,175.90993469305084,1.7305059632710798
62859.0391465593,0.1600443190545775,PPG_1,PPG_2,184018.0,184018.0,336.5258192048932,183.34117550849106,1.80364936683147
62859.04914932924,0.1700470889991265,PPG_1,PPG_2,184038.0,184038.0,356.4463862105331,190.88626095973135,1.8779133079099297
62859.05915209918,0.1800498589363997,PPG_1,PPG_2,184054.0,184054.0,372.3669532161439,198.27228978554737,1.9506117038484463
62859.069154869125,0.1900526288809487,PPG_1,PPG_2,184044.0,184044.0,362.2875202217838,205.13093683593794,2.018119244183119
62859.07915763906,0.2000553988182218,PPG_1,PPG_2,184039.0,184039.0,357.2080872274237,211.01248378467704,2.0760094906056503
62859.08916040901,0.2100581687627709,PPG_1,PPG_2,184085.0,184085.0,403.12865423306357,215.409298230964,2.119285974494683
62859.099163178944,0.220060938700044,PPG_1,PPG_2,184053.0,184053.0,371.04922123870347,217.78946091436907,2.142713179185716
62859.10916594889,0.2300637086445931,PPG_1,PPG_2,184090.0,184090.0,407.96978824434336,217.63945159176532,2.141236683847518
62859.11916871883,0.2400664785891422,PPG_1,PPG_2,184072.0,184072.0,389.89035524998326,214.5124655315096,2.1104587277815834
62859.12917148877,0.2500692485264153,PPG_1,PPG_2,184097.0,184097.0,414.81092225562315,208.07786810755627,2.0471249766870177
62859.139174258715,0.2600720184709644,PPG_1,PPG_2,184102.0,184102.0,419.73148926123395,198.16637283796715,1.9495691961121004
62859.14917702865,0.2700747884082375,PPG_1,PPG_2,184082.0,184082.0,399.65205626687384,184.8039458747639,1.818046962855296
62859.1591797986,0.2800775583527866,PPG_1,PPG_2,184064.0,184064.0,381.57262327251374,168.22684622016783,1.6548837011591266
62859.169182568534,0.2900803282900597,PPG_1,PPG_2,184004.0,184004.0,321.49319027815363,148.8728092976971,1.4643879053289506
62859.17918533848,0.3000830982346087,PPG_1,PPG_2,184005.0,184005.0,322.41375728379353,127.34908008933093,1.252536499795025
62859.189188108416,0.3100858681718819,PPG_1,PPG_2,183968.0,183968.0,285.3343242894334,104.38342434795624,1.0264926576374411
62859.19919087836,0.3200886381164309,PPG_1,PPG_2,183937.0,183937.0,254.25489129507332,80.76601036798043,0.7940337608404276
62859.2091936483,0.330091408053704,PPG_1,PPG_2,183933.0,183933.0,250.1754583006841,57.288742925484456,0.5629542830399268
62859.21919641824,0.3400941779982531,PPG_1,PPG_2,183855.0,183855.0,172.096025306324,34.687258840778604,0.3404948697967769
62859.22919918818,0.3500969479355262,PPG_1,PPG_2,183892.0,183892.0,209.0165923119639,13.59069212310904,0.1328478924625088
62859.23920195813,0.3600997178800753,PPG_1,PPG_2,183818.0,183818.0,134.9371593176038,-5.51546734230722,-0.055208122269847275
62859.24920472806,0.3701024878173484,PPG_1,PPG_2,183856.0,183856.0,172.8577263232437,-22.30911264507454,-0.22050277576542188
62859.259207498006,0.3801052577618975,PPG_1,PPG_2,183869.0,183869.0,185.7782933288836,-36.63250117643506,-0.3614834563436634
62859.26921026794,0.3901080276991706,PPG_1,PPG_2,183822.0,183822.0,138.6988603345235,-48.477699932536964,-0.47807208190272754
62859.27921303789,0.4001107976437197,PPG_1,PPG_2,183821.0,183821.0,137.61942734016338,-57.96346676109402,-0.5714375491850323
62859.289215807825,0.4101135675809928,PPG_1,PPG_2,183795.0,183795.0,111.53999434577418,-65.30946302830763,-0.6437419170383162
62859.29921857777,0.4201163375255419,PPG_1,PPG_2,183812.0,183812.0,128.46056135141407,-70.80886424329998,-0.6978708212682697
62859.309221347714,0.4301191074700909,PPG_1,PPG_2,183825.0,183825.0,141.38112835705397,-74.79806134304843,-0.7371352537628523
62859.31922411765,0.4401218774073641,PPG_1,PPG_2,183797.0,183797.0,113.30169536269386,-77.62435291242443,-0.7649535670125961
62859.3292268876,0.4501246473519131,PPG_1,PPG_2,183819.0,183819.0,135.22226236833376,-79.61536487327464,-0.784550481574085
62859.33922965753,0.4601274172891862,PPG_1,PPG_2,183834.0,183834.0,150.14282937397365,-81.0542082194688,-0.7987125713440998
62859.34923242748,0.4701301872337353,PPG_1,PPG_2,183804.0,183804.0,120.06339637961355,-82.16360815127798,-0.8096320515409451
62859.359235197415,0.4801329571710084,PPG_1,PPG_2,183783.0,183783.0,98.98396338522434,-83.10164657079187,-0.8188648734044349
62859.36923796736,0.4901357271155575,PPG_1,PPG_2,183812.0,183812.0,127.90453039086424,-83.96910116364072,-0.8274029605060166
62859.3792407373,0.5001384970528306,PPG_1,PPG_2,183763.0,183763.0,78.82509739650413,-84.82434392995816,-0.8358208503783092
62859.38924350724,0.5101412669973797,PPG_1,PPG_2,183778.0,183778.0,93.74566440214403,-85.70011972129247,-0.8444408404613772
62859.39924627718,0.5201440369346528,PPG_1,PPG_2,183799.0,183799.0,114.66623140778393,-86.617079805052,-0.8534661947892628
62859.40924904712,0.5301468068792019,PPG_1,PPG_2,183810.0,183810.0,125.58679841342382,-87.59070756865898,-0.8630493115526356
62859.41925181706,0.540149576816475,PPG_1,PPG_2,183789.0,183789.0,104.50736541906372,-88.63216920394795,-0.8733000961220618
62859.429254587005,0.5501523467610241,PPG_1,PPG_2,183800.0,183800.0,115.42793242470361,-89.74694833843822,-0.8842725221461664
62859.43925735694,0.5601551166982972,PPG_1,PPG_2,183787.0,183787.0,102.3484994303144,-90.93433135068291,-0.8959595656698959
62859.44926012689,0.5701578866428463,PPG_1,PPG_2,183786.0,183786.0,101.2690664359543,-92.18796128240459,-0.9082986571202476
62859.459262896824,0.5801606565801194,PPG_1,PPG_2,183808.0,183808.0,123.1896334415942,-93.49634312010625,-0.9211766546367941
62859.46926566677,0.5901634265246685,PPG_1,PPG_2,183775.0,183775.0,90.11020044723409,-94.84274482105663,-0.9344288699010864
62859.479268436706,0.6001661964619416,PPG_1,PPG_2,183798.0,183798.0,113.03076745287399,-96.20494535643957,-0.9478365882033484
62859.48927120665,0.6101689664064907,PPG_1,PPG_2,183788.0,183788.0,102.95133445851388,-97.55538102284744,-0.961128508541226
62859.499273976595,0.6201717363510397,PPG_1,PPG_2,183764.0,183764.0,78.87190146415378,-98.86159230377514,-0.9739851419391802
62859.50927674653,0.6301745062883128,PPG_1,PPG_2,183806.0,183806.0,120.79246846976457,-100.08631010787985,-0.9860396602649895
62859.51927951648,0.6401772762328619,PPG_1,PPG_2,183780.0,183780.0,94.71303547540447,-101.18647226037426,-0.9968682158589046
62859.529282286414,0.650180046170135,PPG_1,PPG_2,183775.0,183775.0,89.63360248104436,-102.11142051112365,-1.0059721952423304
62859.53928505636,0.6601828161146841,PPG_1,PPG_2,183809.0,183809.0,123.55416948668426,-102.80148764713773,-1.012764312503336
62859.549287826296,0.6701855860519572,PPG_1,PPG_2,183763.0,183763.0,77.47473649232415,-103.18796058031558,-1.0165682459807521
62859.55929059624,0.6801883559965063,PPG_1,PPG_2,183805.0,183805.0,119.39530349796405,-103.19503971732851,-1.016637923735552
62859.56929336618,0.6901911259337794,PPG_1,PPG_2,183767.0,183767.0,81.31587050360395,-102.74419784245087,-1.0122004266855866
62859.57929613612,0.7001938958783285,PPG_1,PPG_2,183776.0,183776.0,90.23643750924384,-101.76047181006146,-1.0025179157877537
62859.58929890606,0.7101966658156016,PPG_1,PPG_2,183792.0,183792.0,106.15700451485463,-100.17911768809518,-0.9869531365553889
62859.599301676,0.7201994357601507,PPG_1,PPG_2,183809.0,183809.0,123.07757152049453,-97.95102708509866,-0.9650227302892539
62859.60930444594,0.7302022056974238,PPG_1,PPG_2,183743.0,183743.0,56.998138526134426,-95.046892064901,-0.9364382280437031
62859.619307215886,0.7402049756419729,PPG_1,PPG_2,183823.0,183823.0,136.91870553177432,-91.46082460742328,-0.9011416758592968
62859.62930998582,0.750207745579246,PPG_1,PPG_2,183784.0,183784.0,97.83927253741422,-87.21247727672464,-0.8593265078420848
62859.63931275577,0.760210515523795,PPG_1,PPG_2,183829.0,183829.0,142.7598395430541,-82.34646351012113,-0.8114318402488087
62859.649315525705,0.7702132854610682,PPG_1,PPG_2,183767.0,183767.0,80.68040654869401,-76.93015770977773,-0.7581208184692606
62859.65931829565,0.7802160554056172,PPG_1,PPG_2,183824.0,183824.0,137.6009735543048,-71.05110233337756,-0.7002550958221812
62859.66932106559,0.7902188253428903,PPG_1,PPG_2,183825.0,183825.0,138.5215405599447,-64.81277618650252,-0.6388531821667717
62859.67932383553,0.8002215952874394,PPG_1,PPG_2,183834.0,183834.0,147.4421075655846,-58.327347577067414,-0.5750191154445089
62859.68932660547,0.8102243652247125,PPG_1,PPG_2,183833.0,183833.0,146.3626745712245,-51.7069421169719,-0.5098565133532065
62859.69932937541,0.8202271351692616,PPG_1,PPG_2,183842.0,183842.0,155.28324157686438,-45.05632440943931,-0.4443965414603272
62859.70933214536,0.8302299051138107,PPG_1,PPG_2,183830.0,183830.0,143.20380858250428,-38.46815187400368,-0.3795511980711557
62859.719334915295,0.8402326750510838,PPG_1,PPG_2,183858.0,183858.0,171.12437558814418,-32.019806790735295,-0.31608213302051413
62859.72933768524,0.8502354449956329,PPG_1,PPG_2,183882.0,183882.0,195.04494259378407,-25.770410260719192,-0.254571257009858
62859.73934045518,0.860238214932906,PPG_1,PPG_2,183856.0,183856.0,168.96550959939486,-19.758359794508642,-0.19539650485247947
62859.74934322512,0.870240984877455,PPG_1,PPG_2,183845.0,183845.0,157.88607660503476,-14.001376481481332,-0.1387322997468824
62859.75934599506,0.8802437548147282,PPG_1,PPG_2,183885.0,183885.0,197.80664361067466,-8.499318789474815,-0.08457724863579255
62859.769348765,0.8902465247592772,PPG_1,PPG_2,183884.0,183884.0,196.72721061631455,-3.2370802517458537,-0.032782663242135586
62859.77935153494,0.9002492946965504,PPG_1,PPG_2,183861.0,183861.0,173.64777762195445,1.8144394627080973,0.01693788198631087
62859.789354304885,0.9102520646410994,PPG_1,PPG_2,183922.0,183922.0,234.56834462759434,6.698722163924556,0.06501236504919694
62859.79935707482,0.9202548345783724,PPG_1,PPG_2,183899.0,183899.0,211.48891163323424,11.473963501859997,0.112013587718924
62859.80935984477,0.9302576045229216,PPG_1,PPG_2,183886.0,183886.0,198.40947863884503,16.21154673695031,0.15864415333660176
62859.819362614704,0.9402603744601948,PPG_1,PPG_2,183915.0,183915.0,227.33004564448493,20.99088583168208,0.20568570895832028
62859.82936538465,0.9502631444047438,PPG_1,PPG_2,183890.0,183890.0,202.25061265012482,25.891048520283295,0.2539164938225696
62859.839368154586,0.9602659143420168,PPG_1,PPG_2,183895.0,183895.0,207.17117965576472,30.981745611250464,0.3040226498436026
62859.84937092453,0.970268684286566,PPG_1,PPG_2,183918.0,183918.0,230.0917466614046,36.316679472669286,0.3565327528109268
62859.85937369447,0.9802714542238392,PPG_1,PPG_2,183921.0,183921.0,233.0123136670445,41.93164121809505,0.4117990835787988
62859.86937646441,0.9902742241683882,PPG_1,PPG_2,183947.0,183947.0,258.9328806726844,47.84770322960094,0.47002905108258175
62859.87937923435,1.0002769941056613,PPG_1,PPG_2,183949.0,183949.0,260.8534476783243,54.07684575372779,0.5313405731813858
62859.889382004294,1.0102797640502104,PPG_1,PPG_2,183930.0,183930.0,241.7740146839351,60.62590339222901,0.5958009207451291
62859.89938477424,1.0202825339947594,PPG_1,PPG_2,183976.0,183976.0,287.694581689575,67.4960027215858,0.6634211823174682
62859.909387544176,1.0302853039320323,PPG_1,PPG_2,183955.0,183955.0,266.6151486952149,74.67700001091379,0.7341015162945431
62859.91939031412,1.0402880738765816,PPG_1,PPG_2,183952.0,183952.0,263.5357157008548,82.13748349993742,0.8075327464411277
62859.92939308406,1.0502908438138547,PPG_1,PPG_2,183956.0,183956.0,267.4562827064947,89.81155819156545,0.8830662886937314
62859.939395854,1.0602936137584038,PPG_1,PPG_2,183979.0,183979.0,290.3768497121346,97.58553249471555,0.9595831119060777
62859.94939862394,1.070296383695677,PPG_1,PPG_2,184003.0,184003.0,314.29741671777447,105.28827390536448,1.0353988118023605
62859.95940139389,1.080299153640226,PPG_1,PPG_2,183992.0,183992.0,303.21798372338526,112.68619966069699,1.1082143055363012
62859.96940416382,1.090301923577499,PPG_1,PPG_2,183988.0,183988.0,299.13855072902516,119.48088600494076,1.175092300434634
62859.979406933766,1.1003046935220482,PPG_1,PPG_2,183958.0,183958.0,269.05911773466505,125.30834652050274,1.2324501908338217
62859.9894097037,1.1103074634593213,PPG_1,PPG_2,183948.0,183948.0,258.97968474030495,129.74378945507868,1.2761068829785174
62859.99941247365,1.1203102334038704,PPG_1,PPG_2,184004.0,184004.0,314.90025174594484,132.3197854991432,1.30146161483292
62860.009415243585,1.1303130033411437,PPG_1,PPG_2,184030.0,184030.0,340.82081875158474,132.56418976966597,1.3038672104305742
62860.01941801353,1.1403157732856926,PPG_1,PPG_2,184039.0,184039.0,349.74138575722463,130.05556514219433,1.279175594579901
62860.02942078347,1.1503185432229657,PPG_1,PPG_2,184020.0,184020.0,330.66195276286453,124.48443578254212,1.2243406924201545
62860.03942355341,1.1603213131675147,PPG_1,PPG_2,184026.0,184026.0,336.5825197684753,115.70637439423939,1.1379409507688711
62860.04942632335,1.170324083104788,PPG_1,PPG_2,184022.0,184022.0,332.5030867741152,103.77731158254166,1.0205268772644367
62860.05942909329,1.180326853049337,PPG_1,PPG_2,183974.0,183974.0,284.4236537797551,88.96622982380948,0.8747459831782173
62860.06943186323,1.19032962298661,PPG_1,PPG_2,183970.0,183970.0,280.344220785395,71.74339019726504,0.7052269027787759
62860.079434633175,1.2003323929311591,PPG_1,PPG_2,183941.0,183941.0,251.2647877910349,52.745426751725965,0.5182358279860678
62860.08943740312,1.2103351628757082,PPG_1,PPG_2,183871.0,183871.0,181.1853547966748,32.7219693688596,0.3211511337333611
62860.09944017306,1.2203379328129813,PPG_1,PPG_2,183898.0,183898.0,208.1059218023147,12.470952963543978,0.12182664644659864
62860.109442943,1.2303407027575304,PPG_1,PPG_2,183823.0,183823.0,133.0264888079255,-7.2285208618378185,-0.07206917791471819
62860.11944571294,1.2403434726948035,PPG_1,PPG_2,183825.0,183825.0,134.94705581356538,-25.676880968538306,-0.2536506771319337
62860.12944848288,1.2503462426393526,PPG_1,PPG_2,183833.0,183833.0,142.86762281920528,-42.30124056090001,-0.4172791037697434
62860.13945125282,1.2603490125766257,PPG_1,PPG_2,183780.0,183780.0,89.78818982484518,-56.68462116116423,-0.5588502677161363
62860.149454022765,1.2703517825211748,PPG_1,PPG_2,183826.0,183826.0,135.70875683048507,-68.5762567255875,-0.6758959564084595
62860.1594567927,1.280354552458448,PPG_1,PPG_2,183797.0,183797.0,106.62932383612497,-77.88503264646705,-0.767519356960821
62860.16945956265,1.290357322402997,PPG_1,PPG_2,183785.0,183785.0,94.54989084176486,-84.66012729638656,-0.834204516875067
62860.179462332584,1.30036009234027,PPG_1,PPG_2,183810.0,183810.0,119.47045784740476,-89.06382235872796,-0.8775487245385425
62860.18946510253,1.3103628622848191,PPG_1,PPG_2,183773.0,183773.0,82.39102485301555,-91.34075897018867,-0.8999599069493539
62860.199467872466,1.3203656322220922,PPG_1,PPG_2,183806.0,183806.0,115.31159185865545,-91.78670213794251,-0.9043491875411289
62860.20947064241,1.330368402166641,PPG_1,PPG_2,183826.0,183826.0,135.23215886429534,-90.71959404015867,-0.893845972778314
62860.21947341235,1.3403711721039144,PPG_1,PPG_2,183772.0,183772.0,81.15272586993524,-88.45637922359846,-0.8715698497481507
62860.22947618229,1.3503739420484635,PPG_1,PPG_2,183822.0,183822.0,131.07329287557513,-85.29921361134554,-0.8404948456917356
62860.23947895223,1.3603767119857366,PPG_1,PPG_2,183759.0,183759.0,67.99385988121503,-81.53212459369811,-0.803416554312293
62860.249481722174,1.3703794819302857,PPG_1,PPG_2,183769.0,183769.0,77.91442688685493,-77.42494466799171,-0.7629908533745847
62860.25948449211,1.3803822518675588,PPG_1,PPG_2,183782.0,183782.0,90.83499389246572,-73.23802735329828,-0.721780321993835
62860.269487262056,1.390385021812108,PPG_1,PPG_2,183814.0,183814.0,122.75556089810561,-69.22069143091919,-0.6822389277763715
62860.279490032,1.400387791756657,PPG_1,PPG_2,183820.0,183820.0,128.6761279037455,-65.60026817243087,-0.6466042220748921
62860.28949280194,1.41039056169393,PPG_1,PPG_2,183805.0,183805.0,113.5966949093854,-62.56488304279354,-0.6167278656208025
62860.29949557188,1.4203933316384791,PPG_1,PPG_2,183826.0,183826.0,134.5172619150253,-60.24582652834753,-0.5939021100399792
62860.30949834182,1.4303961015757525,PPG_1,PPG_2,183852.0,183852.0,160.4378289206652,-58.70365077897127,-0.5787229514042767
62860.31950111176,1.440398871520301,PPG_1,PPG_2,183837.0,183837.0,145.3583959263051,-57.920896904105035,-0.571018547257012
62860.3295038817,1.4504016414575744,PPG_1,PPG_2,183810.0,183810.0,118.27896293194499,-57.80510878220001,-0.5698788806066725
62860.339506651646,1.4604044114021235,PPG_1,PPG_2,183791.0,183791.0,99.19952993755578,-58.20406457466785,-0.5738056790049426
62860.34950942158,1.4704071813393966,PPG_1,PPG_2,183810.0,183810.0,118.12009694319568,-58.92953470831184,-0.5809462570152637
62860.35951219153,1.4804099512839457,PPG_1,PPG_2,183802.0,183802.0,110.04066394883557,-59.78187364004876,-0.5893355653424454
62860.369514961465,1.4904127212212188,PPG_1,PPG_2,183806.0,183806.0,113.96123095447547,-60.569324615798166,-0.5970862016000661
62860.37951773141,1.500415491165768,PPG_1,PPG_2,183839.0,183839.0,146.88179796011536,-61.120260117406644,-0.6025088892414311
62860.38952050135,1.510418261103041,PPG_1,PPG_2,183788.0,183788.0,95.80236496575526,-61.289849313724375,-0.6041781032171075
62860.39952327129,1.52042103104759,PPG_1,PPG_2,183821.0,183821.0,128.72293197139516,-60.96363085973135,-0.6009672359310304
62860.40952604123,1.5304238009848632,PPG_1,PPG_2,183816.0,183816.0,123.64349897700595,-60.05918237923667,-0.5920650294420478
62860.41952881117,1.5404265709294125,PPG_1,PPG_2,183818.0,183818.0,125.56406598264584,-58.52561677560729,-0.5769706178063038
62860.42953158111,1.5504293408666854,PPG_1,PPG_2,183829.0,183829.0,136.48463298828574,-56.34119416852266,-0.5554700221097605
62860.439534351055,1.5604321108112345,PPG_1,PPG_2,183803.0,183803.0,110.40519999392563,-53.51033737417455,-0.5276067747634408
62860.44953712099,1.5704348807485076,PPG_1,PPG_2,183823.0,183823.0,130.32576699956553,-50.060589581749795,-0.49365197485457235
62860.45953989094,1.5804376506930566,PPG_1,PPG_2,183842.0,183842.0,149.24633400520543,-46.03853116033978,-0.4540640985406446
62860.469542660874,1.5904404206303298,PPG_1,PPG_2,183819.0,183819.0,126.16690101084532,-41.503713385546,-0.4094292905977502
62860.47954543082,1.6004431905748788,PPG_1,PPG_2,183865.0,183865.0,172.08746801648522,-36.521339204258055,-0.36038932345341734
62860.48954820076,1.610445960519428,PPG_1,PPG_2,183857.0,183857.0,164.008035022096,-31.15573948415324,-0.3075773859293749
62860.4995509707,1.620448730456701,PPG_1,PPG_2,183834.0,183834.0,140.9286020277359,-25.46703774634007,-0.2515852552371449
62860.509553740645,1.63045150040125,PPG_1,PPG_2,183855.0,183855.0,161.8491690333758,-19.512424100754906,-0.19297583592990084
62860.51955651058,1.6404542703385232,PPG_1,PPG_2,183845.0,183845.0,151.7697360390157,-13.350574700547321,-0.13232665922426973
62860.52955928053,1.6504570402830725,PPG_1,PPG_2,183866.0,183866.0,172.6903030446556,-7.045460168719439,-0.07026736816512939
62860.539562050464,1.6604598102203454,PPG_1,PPG_2,183873.0,183873.0,179.6108700502955,-0.6665724731373212,-0.00748195068613314
62860.54956482041,1.6704625801648945,PPG_1,PPG_2,183891.0,183891.0,197.53143705593538,5.71490425566462,0.055328949845603825
62860.559567590346,1.6804653501021676,PPG_1,PPG_2,183881.0,183881.0,187.45200406154618,12.032362232510117,0.11750973361406035
62860.56957036029,1.6904681200467166,PPG_1,PPG_2,183910.0,183910.0,216.37257106718607,18.230099325637724,0.17851214177474628
62860.57957313023,1.7004708899839898,PPG_1,PPG_2,183888.0,183888.0,194.29313807282597,24.26792345529202,0.23794057612508765
62860.58957590017,1.7104736599285388,PPG_1,PPG_2,183919.0,183919.0,225.21370507846586,30.123270107069445,0.2955729411329716
62860.59957867011,1.720476429865812,PPG_1,PPG_2,183888.0,183888.0,194.13427208410576,35.79094775841048,0.35135813824849327
62860.609581440054,1.730479199810361,PPG_1,PPG_2,183915.0,183915.0,221.05483908974566,41.28158902771176,0.40540082104399705
62860.61958420999,1.740481969747634,PPG_1,PPG_2,183916.0,183916.0,221.97540609538555,46.62073909308781,0.457952422802061
62860.629586979936,1.7504847396921832,PPG_1,PPG_2,183957.0,183957.0,262.89597310102545,51.850009896557566,0.5094225169901062
62860.63958974987,1.7604875096294563,PPG_1,PPG_2,183935.0,183935.0,240.81654010663624,57.029132064756276,0.560399013680946
62860.64959251982,1.7704902795740054,PPG_1,PPG_2,183936.0,183936.0,241.73710711227614,62.235287358004555,0.6116415890555623
62860.659595289755,1.7804930495112783,PPG_1,PPG_2,183939.0,183939.0,244.65767411791603,67.55709409126742,0.6640224857629702
62860.6695980597,1.7904958194558276,PPG_1,PPG_2,183947.0,183947.0,252.57824112355593,73.08418392003077,0.7184239204493278
62860.67960082965,1.8004985894003769,PPG_1,PPG_2,183969.0,183969.0,274.4988081291958,78.89520756529336,0.7756200278209651
62860.68960359958,1.8105013593376496,PPG_1,PPG_2,183977.0,183977.0,282.4193751348357,85.04565544520568,0.8361569828908196
62860.699606369526,1.8205041292821988,PPG_1,PPG_2,183972.0,183972.0,277.3399421404756,91.554354639494,0.9002200947781196
62860.70960913946,1.830506899219472,PPG_1,PPG_2,183949.0,183949.0,254.2605091460864,98.38704762357749,0.9674721772702761
62860.71961190941,1.840509669164021,PPG_1,PPG_2,183953.0,183953.0,258.1810761517263,105.43845257402621,1.0368769739613992
62860.729614679345,1.850512439101294,PPG_1,PPG_2,183983.0,183983.0,288.1016431573662,112.51838309790591,1.1065625390438412
62860.73961744929,1.8605152090458432,PPG_1,PPG_2,184004.0,184004.0,309.0222101630061,119.34810587221529,1.1737853866803978
62860.74962021923,1.8705179789831163,PPG_1,PPG_2,183962.0,183962.0,266.942777168646,125.56894577983059,1.2350151886943341
62860.75962298917,1.8805207489276656,PPG_1,PPG_2,184028.0,184028.0,332.8633441742859,130.76119786794126,1.2861209191234806
62860.76962575911,1.8905235188649383,PPG_1,PPG_2,184003.0,184003.0,307.7839111799258,134.47102173309366,1.3226355673290688
62860.77962852905,1.9005262888094876,PPG_1,PPG_2,183977.0,183977.0,281.7044781855657,136.24341702930388,1.340080705716979
62860.78963129899,1.9105290587467607,PPG_1,PPG_2,184037.0,184037.0,341.62504519117647,135.65932826888917,1.3343317008093012
62860.799634068935,1.9205318286913096,PPG_1,PPG_2,184005.0,184005.0,309.54561219681636,132.37538920110012,1.302008904863306
62860.80963683887,1.930534598628583,PPG_1,PPG_2,184040.0,184040.0,344.46617920245626,126.16357011390738,1.2408678919930671
62860.81963960882,1.940537368573132,PPG_1,PPG_2,184003.0,184003.0,307.38674620809616,116.9448840129057,1.1501312176571834
62860.829642378754,1.950540138510405,PPG_1,PPG_2,183978.0,183978.0,282.30731321373605,104.8106511622977,1.0306977189548285
62860.8396451487,1.9605429084549544,PPG_1,PPG_2,184002.0,184002.0,306.22788021937595,90.02791130637905,0.8851957854468818
62860.84964791864,1.9705456783922273,PPG_1,PPG_2,183953.0,183953.0,257.14844722501584,73.0289357876919,0.7178801301806526
62860.85965068858,1.9805484483367763,PPG_1,PPG_2,183917.0,183917.0,221.06901423062664,54.38586854461797,0.5343821888771759
62860.869653458525,1.9905512182813256,PPG_1,PPG_2,183931.0,183931.0,234.98958123626653,34.77229051281614,0.3413318102294343
62860.87965622846,2.0005539882185985,PPG_1,PPG_2,183878.0,183878.0,181.91014824190643,14.91545203237582,0.14588709426886098
62860.88965899841,2.0105567581631476,PPG_1,PPG_2,183859.0,183859.0,162.83071524754632,-4.456266559585282,-0.04478273676206752
62860.899661768344,2.0205595281004207,PPG_1,PPG_2,183827.0,183827.0,130.75128225318622,-22.666319505855665,-0.22401865234936572
62860.90966453829,2.03056229804497,PPG_1,PPG_2,183815.0,183815.0,118.67184925882611,-39.138038226297766,-0.3861446821234608
62860.919667308226,2.040565067982243,PPG_1,PPG_2,183797.0,183797.0,100.59241626446601,-53.431622225982814,-0.5268320059201891
62860.92967007817,2.050567837926792,PPG_1,PPG_2,183809.0,183809.0,112.5129832701059,-65.26550200567989,-0.6433092222974449
62860.93967284811,2.060570607864065,PPG_1,PPG_2,183794.0,183794.0,97.4335502757167,-74.5207586003703,-0.7344058486850399
62860.94967561805,2.070573377808614,PPG_1,PPG_2,183783.0,183783.0,86.3541172813566,-81.23056454250657,-0.8004483920538225
62860.95967838799,2.0805761477458873,PPG_1,PPG_2,183780.0,183780.0,83.27468428699649,-85.55809193885662,-0.8430429049529614
62860.969681157934,2.0905789176904364,PPG_1,PPG_2,183802.0,183802.0,105.19525129263639,-87.76575212033322,-0.864772220902788
62860.97968392787,2.1005816876277095,PPG_1,PPG_2,183814.0,183814.0,117.11581829827628,-88.17860238121716,-0.8688357782536822
62860.989686697816,2.1105844575722585,PPG_1,PPG_2,183798.0,183798.0,101.03638530391618,-87.14688847370158,-0.8586809375520477
62860.99968946775,2.1205872275095317,PPG_1,PPG_2,183805.0,183805.0,107.95695230955607,-85.01426190409313,-0.8376901542227847
62861.0096922377,2.1305899974540807,PPG_1,PPG_2,183806.0,183806.0,108.87751931516686,-82.09641155716571,-0.8089706562607887
62861.019695007635,2.140592767391354,PPG_1,PPG_2,183791.0,183791.0,93.79808632080676,-78.67133383846338,-0.7752586762527899
62861.02969777758,2.150595537335903,PPG_1,PPG_2,183779.0,183779.0,81.71865332644666,-74.97975155318119,-0.7389235742725444
62861.03970054752,2.160598307273176,PPG_1,PPG_2,183778.0,183778.0,80.63922033208655,-71.23185607388042,-0.7020341989511205
62861.04970331746,2.170601077217725,PPG_1,PPG_2,183803.0,183803.0,105.55978733772645,-67.61459050525384,-0.6664305734137229
62861.0597060874,2.180603847154998,PPG_1,PPG_2,183793.0,183793.0,95.48035434336634,-64.29432674568217,-0.6337502447681086
62861.06970885734,2.1906066170995473,PPG_1,PPG_2,183821.0,183821.0,123.40092134900624,-61.41322890425825,-0.6053924903437883
62861.07971162729,2.2006093870440964,PPG_1,PPG_2,183830.0,183830.0,132.32148835464614,-59.08114716541679,-0.5824385315102266
62861.089714397225,2.2106121569813695,PPG_1,PPG_2,183809.0,183809.0,111.24205536025693,-57.36686970457054,-0.5655654289897655
62861.09971716717,2.2206149269259186,PPG_1,PPG_2,183820.0,183820.0,122.16262236589682,-56.292600228301296,-0.554991726994789
62861.10971993711,2.2306176968631917,PPG_1,PPG_2,183800.0,183800.0,102.08318937153672,-55.83330710344341,-0.5504710469067219
62861.11972270705,2.2406204668077407,PPG_1,PPG_2,183827.0,183827.0,129.00375637717661,-55.91974605135891,-0.5513218387203289
62861.12972547699,2.250623236745014,PPG_1,PPG_2,183822.0,183822.0,123.92432338281651,-56.44327909086033,-0.5564748124075611
62861.13972824693,2.260626006689563,PPG_1,PPG_2,183810.0,183810.0,111.8448903884564,-57.26225974351829,-0.5645357855173344
62861.14973101687,2.270628776626836,PPG_1,PPG_2,183812.0,183812.0,113.7654573940963,-58.211058456768384,-0.5738745176220239
62861.159733786815,2.280631546571385,PPG_1,PPG_2,183802.0,183802.0,103.6860243997071,-59.11189006939778,-0.5827411243999401
62861.16973655675,2.2906343165086582,PPG_1,PPG_2,183819.0,183819.0,120.60659140534699,-59.78791814659457,-0.5893950595497499
62861.1797393267,2.3006370864532073,PPG_1,PPG_2,183806.0,183806.0,107.52715841098689,-60.07596504573218,-0.5922302160345413
62861.189742096634,2.3106398563904804,PPG_1,PPG_2,183770.0,183770.0,71.44772541662678,-59.83796995652859,-0.5898877040251281
62861.19974486658,2.3206426263350295,PPG_1,PPG_2,183817.0,183817.0,118.36829242226668,-58.96971491919383,-0.5813417383961895
62861.20974763651,2.3306453962723026,PPG_1,PPG_2,183814.0,183814.0,115.28885942790657,-57.404025596234824,-0.5659311429325837
62861.21975040646,2.3406481662168517,PPG_1,PPG_2,183808.0,183808.0,109.20942643354647,-55.10718964338853,-0.54332409746287
62861.2297531764,2.350650936154125,PPG_1,PPG_2,183844.0,183844.0,145.12999343918636,-52.071003580408714,-0.5134398576697595
62861.23975594634,2.360653706098674,PPG_1,PPG_2,183811.0,183811.0,112.05056044479716,-48.30451318650099,-0.47636745835852745
62861.24975871628,2.370656476035947,PPG_1,PPG_2,183830.0,183830.0,130.97112745043705,-43.82856839803733,-0.4323121190003413
62861.259761486224,2.380659245980496,PPG_1,PPG_2,183810.0,183810.0,110.89169445607695,-38.67421465384942,-0.3815794102418226
62861.26976425617,2.390662015925045,PPG_1,PPG_2,183841.0,183841.0,141.81226146171684,-32.883485345118366,-0.32458305374406804
62861.279767026106,2.4006647858623182,PPG_1,PPG_2,183854.0,183854.0,154.73282846735674,-26.510282416626612,-0.26185358966824684
62861.28976979605,2.4106675558068673,PPG_1,PPG_2,183826.0,183826.0,126.65339547299664,-19.620696519659482,-0.19404152784153186
62861.29977256599,2.4206703257441404,PPG_1,PPG_2,183856.0,183856.0,156.57396247863653,-12.293642149087978,-0.12192359921484598
62861.30977533593,2.4306730956886895,PPG_1,PPG_2,183883.0,183883.0,183.49452948424732,-4.621960176634212,-0.046413607756586976
62861.31977810587,2.4406758656259626,PPG_1,PPG_2,183815.0,183815.0,115.41509648988722,3.2867164441214136,0.03142904868090118
62861.329780875814,2.4506786355705117,PPG_1,PPG_2,183879.0,183879.0,179.33566349552711,11.310221983670491,0.11040193062935133
62861.33978364575,2.460681405507785,PPG_1,PPG_2,183886.0,183886.0,186.256230501167,19.31545467662974,0.18919495860381377
62861.349786415696,2.470684175452334,PPG_1,PPG_2,183879.0,183879.0,179.1767975068069,27.16757771143955,0.2664809755967791
62861.35978918563,2.480686945389607,PPG_1,PPG_2,183896.0,183896.0,196.0973645124468,34.74399684905269,0.34105332445320274
62861.36979195558,2.490689715334156,PPG_1,PPG_2,183939.0,183939.0,239.0179315180867,41.95010369661457,0.4119808040411841
62861.379794725515,2.500692485271429,PPG_1,PPG_2,183914.0,183914.0,213.9384985237266,48.73349098616047,0.47874758584090504
62861.38979749546,2.5106952552159782,PPG_1,PPG_2,183932.0,183932.0,231.85906552933739,55.092554713502174,0.5413378821355408
62861.3998002654,2.5206980251532514,PPG_1,PPG_2,183885.0,183885.0,184.77963253497728,61.07622525785013,0.6002332995049127
62861.40980303534,2.5307007950978004,PPG_1,PPG_2,183951.0,183951.0,250.70019954061718,66.7757506091503,0.6563319636750532
62861.41980580528,2.5407035650350736,PPG_1,PPG_2,183932.0,183932.0,231.62076654625707,72.31266428294794,0.7108300914278453
62861.42980857522,2.550706334979622,PPG_1,PPG_2,183931.0,183931.0,230.54133355189697,77.82567242698495,0.7650929244493762
62861.43981134516,2.5607091049168957,PPG_1,PPG_2,183944.0,183944.0,243.46190055753686,83.45639473749,0.8205143815818169
62861.449814115105,2.570711874861445,PPG_1,PPG_2,183959.0,183959.0,258.38246756317676,89.33382117053125,0.8783640710435323
62861.45981688505,2.580714644805994,PPG_1,PPG_2,183955.0,183955.0,254.30303456878755,95.55822569193252,0.9396289584478036
62861.46981965499,2.590717414743267,PPG_1,PPG_2,183956.0,183956.0,255.22360157442745,102.18476248147891,1.0048519093173958
62861.47982242493,2.600720184687816,PPG_1,PPG_2,183950.0,183950.0,249.14416858006734,109.20704839117383,1.073970096302005
62861.48982519487,2.610722954625089,PPG_1,PPG_2,183977.0,183977.0,276.06473558570724,116.54277109427491,1.1461733446431441
62861.49982796481,2.6207257245696383,PPG_1,PPG_2,183983.0,183983.0,281.98530259134714,124.02423134451716,1.2198110425586126
62861.50983073475,2.6307284945069114,PPG_1,PPG_2,183977.0,183977.0,275.90586959698703,131.39521273697034,1.2923613312673485
62861.519833504695,2.6407312644514604,PPG_1,PPG_2,183973.0,183973.0,271.8264366026269,138.3139333504474,1.3604601570921937
62861.52983627463,2.6507340343887336,PPG_1,PPG_2,183964.0,183964.0,262.7470036082668,144.36275625147894,1.4199968489453525
62861.53983904458,2.660736804333282,PPG_1,PPG_2,183999.0,183999.0,297.6675706138776,149.06762260154795,1.4663053923888356
62861.549841814514,2.6707395742705557,PPG_1,PPG_2,184007.0,184007.0,305.5881376195175,151.9300219530932,1.494479103364002
62861.55984458446,2.680742344215105,PPG_1,PPG_2,184025.0,184025.0,323.5087046251574,152.4702985310265,1.4997968785183067
62861.5698473544,2.690745114152378,PPG_1,PPG_2,183997.0,183997.0,295.4292716307973,150.27629492871614,1.4782019800508386
62861.57985012434,2.700747884096927,PPG_1,PPG_2,184019.0,184019.0,317.3498386364372,145.0499039489516,1.4267602310762892
62861.58985289428,2.7107506540342,PPG_1,PPG_2,184023.0,184023.0,321.2704056420771,136.64589144342554,1.344042136819261
62861.59985566422,2.720753423978749,PPG_1,PPG_2,183993.0,183993.0,291.190972647717,125.09860247007741,1.2303857450561024
62861.60985843416,2.7307561939160223,PPG_1,PPG_2,183997.0,183997.0,295.1115396533278,110.63195540101748,1.0879950150262745
62861.619861204104,2.7407589638605714,PPG_1,PPG_2,183962.0,183962.0,260.0321066589677,93.64912361631974,0.920838257537615
62861.62986397404,2.7507617337978445,PPG_1,PPG_2,183900.0,183900.0,197.95267366460757,74.70140259335764,0.7343417033615398
62861.639866743986,2.7607645037423936,PPG_1,PPG_2,183881.0,183881.0,178.87324067024747,54.44022255263169,0.5349171785568283
62861.64986951393,2.770767273686942,PPG_1,PPG_2,183864.0,183864.0,161.79380767588736,33.56111024333625,0.3294105376674037
62861.65987228387,2.780770043624216,PPG_1,PPG_2,183849.0,183849.0,146.71437468152726,12.750221094672156,0.12457539623468558
62861.66987505381,2.790772813568765,PPG_1,PPG_2,183864.0,183864.0,161.63494168716716,-7.359540471509661,-0.07335876338537618
62861.67987782375,2.800775583506038,PPG_1,PPG_2,183789.0,183789.0,86.55550869280705,-26.221704641064772,-0.25901320793110505
62861.689880593694,2.810778353450587,PPG_1,PPG_2,183821.0,183821.0,118.47607569841784,-43.400808965460485,-0.42810181528649527
62861.69988336363,2.82078112338786,PPG_1,PPG_2,183759.0,183759.0,56.39664270405774,-58.58953058175605,-0.5775997016204772
62861.709886133576,2.830783893332409,PPG_1,PPG_2,183761.0,183761.0,58.317209709697636,-71.61730547296396,-0.705828058099205
62861.71988890351,2.8407866632696823,PPG_1,PPG_2,183763.0,183763.0,60.23777671533753,-82.44841284677567,-0.8124352960186908
62861.72989167346,2.8507894332142314,PPG_1,PPG_2,183741.0,183741.0,38.15834372097743,-91.1682112021607,-0.8982615726679387
62861.739894443395,2.8607922031515045,PPG_1,PPG_2,183761.0,183761.0,58.07891072661732,-97.95831913819706,-0.9650945037111907
62861.74989721334,2.8707949730960536,PPG_1,PPG_2,183734.0,183734.0,30.99947773225722,-103.0638216558387,-1.0153463849650657
62861.75989998328,2.8807977430333267,PPG_1,PPG_2,183779.0,183779.0,75.92004473786801,-106.75677450502663,-1.0516949769816795
62861.76990275322,2.890800512977876,PPG_1,PPG_2,183749.0,183749.0,45.84061174350791,-109.30106165479155,-1.0767376080026132
62861.77990552316,2.900803282915149,PPG_1,PPG_2,183762.0,183762.0,58.7611787491478,-110.9244989508459,-1.092716598893821
62861.7899082931,2.910806052859698,PPG_1,PPG_2,183719.0,183719.0,15.681745754787698,-111.80325167709586,-1.101365890025976
62861.79991106304,2.920808822796971,PPG_1,PPG_2,183747.0,183747.0,43.602312760427594,-112.060008569619,-1.1038930686591473
62861.809913832985,2.93081159274152,PPG_1,PPG_2,183715.0,183715.0,11.52287976606749,-111.77316164165352,-1.1010697231192417
62861.81991660292,2.9408143626787933,PPG_1,PPG_2,183749.0,183749.0,45.443446771707386,-110.99256840767231,-1.0933865854915432
62861.82991937287,2.9508171326233423,PPG_1,PPG_2,183675.0,183675.0,-28.63598622265272,-109.75805635513724,-1.0812356654095125
62861.8399221428,2.960819902560615,PPG_1,PPG_2,183750.0,183750.0,46.28458078295807,-108.1169321877127,-1.065082588117059
62861.84992491275,2.9708226725051645,PPG_1,PPG_2,183722.0,183722.0,18.20514778859797,-106.13624023444655,-1.0455872501964316
62861.85992768269,2.9808254424497136,PPG_1,PPG_2,183733.0,183733.0,29.125714794237865,-103.90721590321085,-1.0236476535322045
62861.86993045263,2.9908282123869867,PPG_1,PPG_2,183742.0,183742.0,38.04628179987776,-101.54279323477476,-1.0003753729373641
62861.879933222575,3.000830982331536,PPG_1,PPG_2,183714.0,183714.0,9.966848805517657,-99.1703032698512,-0.977023688439827
62861.88993599251,3.010833752268809,PPG_1,PPG_2,183751.0,183751.0,46.88741581115755,-96.92024468684961,-0.9548770581450509
62861.89993876246,3.020836522213358,PPG_1,PPG_2,183755.0,183755.0,50.80798281679745,-94.91113297606952,-0.935101993346429
62861.909941532394,3.030839292150631,PPG_1,PPG_2,183778.0,183778.0,73.72854982240824,-93.23195919960506,-0.918574405527612
62861.91994430234,3.04084206209518,PPG_1,PPG_2,183746.0,183746.0,41.649116828048136,-91.92679681626085,-0.9057280961039641
62861.92994707227,3.0508448320324533,PPG_1,PPG_2,183736.0,183736.0,31.569683833688032,-90.98668158484143,-0.8964748328236103
62861.93994984222,3.0608476019770023,PPG_1,PPG_2,183760.0,183760.0,55.49025083932793,-90.35016308008579,-0.8902097781680991
62861.94995261216,3.0708503719142755,PPG_1,PPG_2,183765.0,183765.0,60.41081784496782,-89.91004831806497,-0.8858778647702062
62861.9599553821,3.0808531418588245,PPG_1,PPG_2,183736.0,183736.0,31.33138485060772,-89.5242096140484,-0.8820801738141462
62861.96995815204,3.0908559117960976,PPG_1,PPG_2,183750.0,183750.0,45.251951856247615,-89.03039145106501,-0.8772196744604586
62861.979960921984,3.1008586817406467,PPG_1,PPG_2,183729.0,183729.0,24.17251886188751,-88.2641789004625,-0.8696780814487892
62861.98996369192,3.11086145167792,PPG_1,PPG_2,183735.0,183735.0,30.093085867498303,-87.07683876203502,-0.8579914599187741
62861.999966461866,3.120864221622469,PPG_1,PPG_2,183750.0,183750.0,45.0136528731382,-85.34899265316163,-0.8409848053949441
62862.0099692318,3.130866991559742,PPG_1,PPG_2,183772.0,183772.0,66.9342198787781,-82.99773015451308,-0.817842056278574
62862.01997200175,3.140869761504291,PPG_1,PPG_2,183742.0,183742.0,36.85478688441799,-79.97793512991777,-0.7881191484036596
62862.029974771685,3.150872531441564,PPG_1,PPG_2,183740.0,183740.0,34.775353890057886,-76.28060771623122,-0.7517274989025057
62862.03997754163,3.1608753013861133,PPG_1,PPG_2,183796.0,183796.0,90.69592089569778,-71.92950940626913,-0.7089009847953006
62862.049980311574,3.1708780713306624,PPG_1,PPG_2,183754.0,183754.0,48.61648790133768,-66.97563684458719,-0.6601415502722005
62862.05998308151,3.1808808412679355,PPG_1,PPG_2,183775.0,183775.0,69.53705490694847,-61.490233378263085,-0.6061504215504299
62862.069985851456,3.1908836112124845,PPG_1,PPG_2,183778.0,183778.0,72.45762191258837,-55.55813534372593,-0.5477626164347044
62862.07998862139,3.2008863811497577,PPG_1,PPG_2,183787.0,183787.0,81.37818891822826,-49.27180097786391,-0.4858881727371672
62862.08999139134,3.2108891510943067,PPG_1,PPG_2,183800.0,183800.0,94.29875592386816,-42.7255017669806,-0.4214549755228017
62862.099994161275,3.22089192103158,PPG_1,PPG_2,183799.0,183799.0,93.21932292950805,-36.01019223300177,-0.3553582620027389
62862.10999693122,3.230894690976129,PPG_1,PPG_2,183780.0,183780.0,74.13988993514795,-29.210075963644538,-0.2884268220319422
62862.11999970116,3.240897460913402,PPG_1,PPG_2,183801.0,183801.0,95.06045694078784,-22.40037505594244,-0.22140104343212644
62862.1300024711,3.250900230857951,PPG_1,PPG_2,183847.0,183847.0,140.98102394642774,-15.643930081257352,-0.15489944649959764
62862.14000524104,3.260903000795224,PPG_1,PPG_2,183836.0,183836.0,129.90159095203853,-8.985561582779976,-0.08936318597012774
62862.15000801098,3.2709057707397733,PPG_1,PPG_2,183810.0,183810.0,103.82215795767843,-2.4471564583907734,-0.02500768780609836
62862.16001078092,3.2809085406770464,PPG_1,PPG_2,183846.0,183846.0,139.74272496331832,3.972767659934802,0.038181638482199715
62862.170013550865,3.2909113106215955,PPG_1,PPG_2,183845.0,183845.0,138.66329196895822,10.295067056779192,0.1004100748494051
62862.1800163208,3.3009140805588686,PPG_1,PPG_2,183862.0,183862.0,155.58385897459812,16.5537630143483,0.16201248224752168
62862.19001909075,3.3109168505034177,PPG_1,PPG_2,183831.0,183831.0,124.50442598023801,22.788200560391044,0.22337612160836512
62862.200021860685,3.320919620440691,PPG_1,PPG_2,183859.0,183859.0,152.4249929858779,29.03349308377445,0.28484660315182453
62862.21002463063,3.33092239038524,PPG_1,PPG_2,183849.0,183849.0,142.3455599914887,35.311252236930706,0.34663664368451597
62862.220027400566,3.340925160322513,PPG_1,PPG_2,183851.0,183851.0,144.2661269971286,41.62408725341674,0.40877192508484667
62862.23003017051,3.350927930267062,PPG_1,PPG_2,183906.0,183906.0,199.1866940027685,47.95644037320405,0.4710993171355996
62862.240032940455,3.360930700211611,PPG_1,PPG_2,183894.0,183894.0,187.1072610084084,54.281606799318205,0.5333559727846323
62862.25003571039,3.370933470148884,PPG_1,PPG_2,183883.0,183883.0,176.02782801404828,60.571379260026625,0.5952642565857369
62862.26003848034,3.3809362400934333,PPG_1,PPG_2,183868.0,183868.0,160.94839501968818,66.80405879817894,0.6566105924189749
62862.270041250275,3.3909390100307064,PPG_1,PPG_2,183915.0,183915.0,207.86896202532807,72.97048249616185,0.7173047925219761
62862.28004402022,3.4009417799752555,PPG_1,PPG_2,183927.0,183927.0,219.78952903096797,79.0809593069668,0.7774483247286681
62862.29004679016,3.4109445499125286,PPG_1,PPG_2,183931.0,183931.0,223.71009603657876,85.17342835165272,0.8374146120664104
62862.3000495601,3.4209473198570777,PPG_1,PPG_2,183911.0,183911.0,203.63066304221866,91.3186813301797,0.8979004353296232
62862.31005233004,3.430950089794351,PPG_1,PPG_2,183933.0,183933.0,225.55123004785855,97.61873169431715,0.9599098813534217
62862.32005509998,3.4409528597389,PPG_1,PPG_2,183950.0,183950.0,242.47179705349845,104.19835537503721,1.0246710810112878
62862.33005786992,3.450955629676173,PPG_1,PPG_2,183951.0,183951.0,243.39236405913834,111.19159194464181,1.0935033443314435
62862.340060639865,3.460958399620722,PPG_1,PPG_2,183977.0,183977.0,269.31293106477824,118.72325920004805,1.1676352142609097
62862.3500634098,3.470961169557995,PPG_1,PPG_2,183961.0,183961.0,253.23349807041814,126.8839148652138,1.247958022451219
62862.360066179746,3.480963939502544,PPG_1,PPG_2,183910.0,183910.0,202.15406507602893,135.69796663655745,1.3347120063046372
62862.37006894968,3.490966709439818,PPG_1,PPG_2,183958.0,183958.0,250.07463208166882,145.08925405362885,1.4271475419787392
62862.38007171963,3.5009694793843664,PPG_1,PPG_2,183958.0,183958.0,249.99519908730872,154.8535035040377,1.5232540275244193
62862.390074489565,3.5109722493216395,PPG_1,PPG_2,183983.0,183983.0,274.9157660929486,164.64687173494679,1.619647120215018
62862.40007725951,3.5209750192661886,PPG_1,PPG_2,183971.0,183971.0,262.8363330985885,173.9940956479114,1.711648952454766
62862.41008002945,3.5309777892034617,PPG_1,PPG_2,184000.0,184000.0,291.7569001042284,182.31504758483084,1.7935495072401995
62862.42008279939,3.540980559148011,PPG_1,PPG_2,184036.0,184036.0,327.6774671098683,188.96724113099904,1.8590249896250859
62862.43008556933,3.550983329085284,PPG_1,PPG_2,184020.0,184020.0,311.5980341155082,193.30033388884033,1.9016742806550406
62862.440088339274,3.560986099029833,PPG_1,PPG_2,184026.0,184026.0,317.518601121119,194.71597488196855,1.9156079968443842
62862.45009110922,3.570988868974382,PPG_1,PPG_2,184036.0,184036.0,327.4391681267589,192.72588234346352,1.8960201318725005
62862.460093879155,3.580991638911655,PPG_1,PPG_2,184036.0,184036.0,327.3597351323988,187.00306355073778,1.839692197567154
62862.4700966491,3.590994408856204,PPG_1,PPG_2,184036.0,184036.0,327.2803021380387,177.42200584862388,1.7453888117066074
62862.48009941904,3.600997178793478,PPG_1,PPG_2,184018.0,184018.0,309.2008691436786,164.08291231662622,1.6140962421920373
62862.49010218898,3.6109999487380264,PPG_1,PPG_2,183991.0,183991.0,282.12143614931847,147.31533064310065,1.4490581249330379
62862.50010495892,3.621002718675299,PPG_1,PPG_2,183970.0,183970.0,261.04200315495837,127.65902487905568,1.2555871904400078
62862.510107728864,3.6310054886198486,PPG_1,PPG_2,183937.0,183937.0,227.96257016056916,105.82349120485205,1.0406667900446458
62862.5201104988,3.6410082585571217,PPG_1,PPG_2,183901.0,183901.0,191.88313716620905,82.63049543666092,0.8123853103592465
62862.530113268745,3.651011028501671,PPG_1,PPG_2,183843.0,183843.0,133.80370417184895,58.94619950788063,0.5792681152384661
62862.54011603868,3.661013798438944,PPG_1,PPG_2,183856.0,183856.0,146.72427117748884,35.61154632700868,0.3495923454795294
62862.55011880863,3.671016568383493,PPG_1,PPG_2,183835.0,183835.0,125.64483818312874,13.380182737674192,0.13077591372914318
62862.560121578565,3.681019338320766,PPG_1,PPG_2,183774.0,183774.0,64.56540518876864,-7.129723849528622,-0.07109674949780054
62862.57012434851,3.691022108265315,PPG_1,PPG_2,183788.0,183788.0,78.48597219440853,-25.467178029387306,-0.2515866359997647
62862.58012711845,3.701024878202588,PPG_1,PPG_2,183777.0,183777.0,67.40653920004843,-41.361852194665914,-0.4080329947984618
62862.59012988839,3.711027648147138,PPG_1,PPG_2,183786.0,183786.0,76.32710620565922,-54.71843497756192,-0.5394977055971321
62862.60013265833,3.7210304180844105,PPG_1,PPG_2,183789.0,183789.0,79.24767321129912,-65.59491691717503,-0.6465515513254906
62862.61013542827,3.73103318802896,PPG_1,PPG_2,183723.0,183723.0,13.168240216939012,-74.17194814979003,-0.7309726153682209
62862.62013819821,3.7410359579662327,PPG_1,PPG_2,183785.0,183785.0,75.08880722257891,-80.71994779359838,-0.7954225494176256
62862.630140968155,3.7510387279107817,PPG_1,PPG_2,183743.0,183743.0,33.0093742282188,-85.56714851363184,-0.843132046015687
62862.6401437381,3.761041497855331,PPG_1,PPG_2,183720.0,183720.0,9.929941233858699,-89.06991646292985,-0.8776087069202265
62862.65014650804,3.771044267792604,PPG_1,PPG_2,183767.0,183767.0,56.850508239498595,-91.58654321720796,-0.9023790852285944
62862.66014927798,3.781047037737153,PPG_1,PPG_2,183708.0,183708.0,-2.2289247548906133,-93.45474288717381,-0.9207671964182874
62862.67015204792,3.791049807674426,PPG_1,PPG_2,183741.0,183741.0,30.691642250749283,-94.97237144525842,-0.9357047446468574
62862.68015481786,3.801052577618975,PPG_1,PPG_2,183745.0,183745.0,34.61220925638918,-96.38121370861083,-0.949571543043057
62862.6901575878,3.811055347556248,PPG_1,PPG_2,183737.0,183737.0,26.532776262029074,-97.85431532982089,-0.964070826411961
62862.700160357745,3.8210581175007974,PPG_1,PPG_2,183759.0,183759.0,48.45334326766897,-99.48876065527769,-0.9801581659298633
62862.71016312768,3.8310608874380705,PPG_1,PPG_2,183723.0,183723.0,12.373910273308866,-101.30694615102347,-0.9980540030808631
62862.72016589763,3.841063657382619,PPG_1,PPG_2,183712.0,183712.0,1.2944772789487615,-103.26814923698777,-1.0173575181119625
62862.73016866757,3.8510664273198927,PPG_1,PPG_2,183697.0,183697.0,-13.784955715411343,-105.28852002547086,-1.037243402528008
62862.74017143751,3.8610691972644418,PPG_1,PPG_2,183718.0,183718.0,7.135611290199449,-107.26374541078943,-1.056684934712095
62862.750174207446,3.871071967201715,PPG_1,PPG_2,183727.0,183727.0,16.056178295839345,-109.08810342971523,-1.074641526098512
62862.76017697739,3.881074737146264,PPG_1,PPG_2,183705.0,183705.0,-6.023254698520759,-110.66732973631926,-1.0901853619027728
62862.77017974733,3.891077507083537,PPG_1,PPG_2,183711.0,183711.0,-0.10268769288086332,-111.92650128616752,-1.1025789977853502
62862.78018251727,3.901080277028086,PPG_1,PPG_2,183724.0,183724.0,12.817879312759032,-112.81443101828685,-1.1113186153462198
62862.79018528721,3.9110830469653592,PPG_1,PPG_2,183716.0,183716.0,4.738446318398928,-113.30489499419059,-1.1161461004745208
62862.800188057154,3.921085816909908,PPG_1,PPG_2,183718.0,183718.0,6.659013324038824,-113.39540204247483,-1.1170369333410803
62862.81019082709,3.9310885868471814,PPG_1,PPG_2,183694.0,183694.0,-17.420419670350384,-113.10480940978502,-1.1141767199887767
62862.82019359704,3.9410913567917305,PPG_1,PPG_2,183701.0,183701.0,-10.499852664710488,-112.46964380278828,-1.1079249814872179
62862.83019636698,3.95109412673628,PPG_1,PPG_2,183731.0,183731.0,19.420714340929408,-111.53694511068223,-1.0987447169080893
62862.84019913692,3.9610968966735527,PPG_1,PPG_2,183738.0,183738.0,26.341281346569303,-110.35219039789082,-1.0870835429224843
62862.85020190686,3.9710996666181018,PPG_1,PPG_2,183738.0,183738.0,26.2618483522092,-108.94485503040136,-1.0732315764359166
62862.8602046768,3.981102436555375,PPG_1,PPG_2,183725.0,183725.0,13.182415357849095,-107.31730301631951,-1.057212085648568
62862.870207446744,3.991105206499924,PPG_1,PPG_2,183717.0,183717.0,5.102982363488991,-105.44127213678607,-1.0387468942866676
62862.88021021668,4.001107976437197,PPG_1,PPG_2,183739.0,183739.0,27.023549369128887,-103.26191920872209,-1.0172961978717838
62862.890212986626,4.011110746381746,PPG_1,PPG_2,183729.0,183729.0,16.94411637473968,-100.70671266381814,-0.9921460906237806
62862.90021575656,4.021113516319019,PPG_1,PPG_2,183742.0,183742.0,29.864683380379574,-97.69707069021857,-0.962523116087698
62862.91021852651,4.031116286263568,PPG_1,PPG_2,183736.0,183736.0,23.78525038601947,-94.16224065422249,-0.9277308779862157
62862.920221296445,4.041119056200841,PPG_1,PPG_2,183706.0,183706.0,-6.294182608340634,-90.05487003666195,-0.8873033001276016
62862.93022406639,4.0511218261453905,PPG_1,PPG_2,183735.0,183735.0,22.62638439729926,-85.36566161070635,-0.841148872785425
62862.94022683633,4.061124596082664,PPG_1,PPG_2,183726.0,183726.0,13.546951402939158,-80.13225054146403,-0.7896380272426906
62862.95022960627,4.071127366027213,PPG_1,PPG_2,183755.0,183755.0,42.46751840857905,-74.43774124040918,-0.7335887345027706
62862.96023237621,4.081130135964486,PPG_1,PPG_2,183781.0,183781.0,68.38808541418985,-68.39779615192423,-0.6741394242110436
62862.97023514615,4.091132905909035,PPG_1,PPG_2,183787.0,183787.0,74.30865241982974,-62.139625766573985,-0.6125421898576257
62862.98023791609,4.101135675846308,PPG_1,PPG_2,183800.0,183800.0,87.22921942546964,-55.779445107458564,-0.549940899949204
62862.990240686035,4.111138445790857,PPG_1,PPG_2,183795.0,183795.0,82.14978643110953,-49.405397353209366,-0.4872031205149051
62863.00024345597,4.12114121572813,PPG_1,PPG_2,183770.0,183770.0,57.07035343674943,-43.0701989246319,-0.42484772297028367
62863.01024622592,4.131143985672679,PPG_1,PPG_2,183811.0,183811.0,97.99092044238932,-36.79329106102122,-0.3630660614171362
62863.02024899586,4.141146755617228,PPG_1,PPG_2,183790.0,183790.0,76.91148744802922,-30.568878906399178,-0.301801098881435
62863.0302517658,4.1511495255545015,PPG_1,PPG_2,183807.0,183807.0,93.83205445366912,-24.37600573543632,-0.24084656480135264
62863.04025453574,4.1611522954990505,PPG_1,PPG_2,183832.0,183832.0,118.75262145927991,-18.18861381453757,-0.17994598096933942
62863.05025730568,4.171155065436324,PPG_1,PPG_2,183783.0,183783.0,69.6731884649198,-11.984881249822623,-0.11888456123727009
62863.060260075625,4.181157835380873,PPG_1,PPG_2,183841.0,183841.0,127.5937554705597,-5.755092846101265,-0.05756668194550103
62863.07026284556,4.191160605318146,PPG_1,PPG_2,183832.0,183832.0,118.5143224761996,0.49353976510870484,0.003936675048760368
62863.08026561551,4.201163375262695,PPG_1,PPG_2,183809.0,183809.0,95.43488948183949,6.73657896556116,0.0653849778319584
62863.09026838544,4.211166145199968,PPG_1,PPG_2,183883.0,183883.0,169.3554564874794,12.936787267290038,0.12641170933412843
62863.10027115539,4.221168915144517,PPG_1,PPG_2,183863.0,183863.0,149.27602349311928,19.052342771857536,0.18660522955179457
62863.110273925326,4.23117168508179,PPG_1,PPG_2,183863.0,183863.0,149.19659049873007,25.04608164394493,0.24559974635520626
62863.12027669527,4.241174455026339,PPG_1,PPG_2,183851.0,183851.0,137.11715750436997,30.891822741715266,0.30313756686768084
62863.13027946521,4.251177224963612,PPG_1,PPG_2,183879.0,183879.0,165.03772451000987,36.576521036046444,0.35909029290468464
62863.14028223515,4.2611799949081615,PPG_1,PPG_2,183891.0,183891.0,176.95829151564976,42.10048552116594,0.41346096580077274
62863.15028500509,4.271182764845435,PPG_1,PPG_2,183891.0,183891.0,176.87885852128966,47.4772166734514,0.4663824665668652
62863.160287775034,4.281185534789984,PPG_1,PPG_2,183888.0,183888.0,173.79942552692955,52.73159036909552,0.518099640753856
62863.17029054497,4.291188304727257,PPG_1,PPG_2,183870.0,183870.0,155.71999253256945,57.89499336259787,0.5689214184728568
62863.180293314916,4.301191074671806,PPG_1,PPG_2,183889.0,183889.0,174.64055953820935,62.99902366614452,0.6191588091790088
62863.19029608485,4.311193844609079,PPG_1,PPG_2,183909.0,183909.0,194.56112654382014,68.07186635117056,0.6690892298078621
62863.2002988548,4.321196614553628,PPG_1,PPG_2,183903.0,183903.0,188.48169354946003,73.14040085742816,0.718977246366373
62863.210301624735,4.331199384490901,PPG_1,PPG_2,183940.0,183940.0,225.40226055509993,78.23750709640157,0.769146485647758
62863.22030439468,4.34120215443545,PPG_1,PPG_2,183918.0,183918.0,203.32282756073982,83.41129163327328,0.8200704456853115
62863.230307164624,4.351204924379999,PPG_1,PPG_2,183958.0,183958.0,243.24339456637972,88.73237451982405,0.872444217793545
62863.24030993456,4.361207694317272,PPG_1,PPG_2,183949.0,183949.0,234.16396157201962,94.29589865284917,0.9272042640612316
62863.250312704506,4.3712104642618215,PPG_1,PPG_2,183928.0,183928.0,213.0845285776595,100.21580149598171,0.9854720356820728
62863.26031547444,4.381213234199095,PPG_1,PPG_2,183976.0,183976.0,261.0050955832703,106.61065466442447,1.0484145963695157
62863.27031824439,4.391216004143644,PPG_1,PPG_2,183950.0,183950.0,234.9256625889102,113.58265472017357,1.1170378352559696
62863.280321014325,4.401218774080917,PPG_1,PPG_2,183971.0,183971.0,255.8462295945501,121.1921320927295,1.1919355660882256
62863.29032378427,4.411221544025466,PPG_1,PPG_2,183942.0,183942.0,226.76679660019,129.42972183483175,1.2730156125886192
62863.30032655421,4.421224313962739,PPG_1,PPG_2,183943.0,183943.0,227.6873636058299,138.18990822001993,1.359239416116119
62863.31032932415,4.431227083907288,PPG_1,PPG_2,183992.0,183992.0,276.6079306114698,147.2523864881185,1.4484385850952142
62863.32033209409,4.441229853844561,PPG_1,PPG_2,183983.0,183983.0,267.5284976171097,156.27755857618683,1.5372705608896153
62863.33033486403,4.45123262378911,PPG_1,PPG_2,183977.0,183977.0,261.4490646227496,164.818421144822,1.6213356279661029
62863.34033763397,4.461235393726383,PPG_1,PPG_2,184043.0,184043.0,327.36963162836037,172.34726816931862,1.6954397392355178
62863.350340403915,4.471238163670932,PPG_1,PPG_2,184013.0,184013.0,297.29019863400026,178.29424712031349,1.7539740126066594
62863.36034317385,4.4812409336082055,PPG_1,PPG_2,184025.0,184025.0,309.21076563964016,182.09348270116496,1.7913687126591502
62863.3703459438,4.491243703552755,PPG_1,PPG_2,184028.0,184028.0,312.13133264528005,183.23164776139296,1.8025713191129233
62863.380348713734,4.501246473490028,PPG_1,PPG_2,184047.0,184047.0,331.05189965091995,181.2952854003541,1.7835123036496723
62863.39035148368,4.511249243434577,PPG_1,PPG_2,184054.0,184054.0,337.97246665655985,176.01388734362425,1.7315291370398889
62863.400354253616,4.52125201337185,PPG_1,PPG_2,184049.0,184049.0,332.89303366219974,167.29365046524714,1.6456985441445422
62863.41035702356,4.531254783316399,PPG_1,PPG_2,184004.0,184004.0,287.81360066781053,155.23523427107372,1.5270112853280853
62863.420359793505,4.541257553260948,PPG_1,PPG_2,184029.0,184029.0,312.73416767345043,140.13088630897334,1.3783438627607787
62863.43036256344,4.551260323198221,PPG_1,PPG_2,183913.0,183913.0,196.65473467909032,122.44098597864182,1.2042276483977443
62863.44036533339,4.56126309314277,PPG_1,PPG_2,183945.0,183945.0,228.57530168473022,102.75504293506211,1.0104650033342617
62863.45036810333,4.571265863080043,PPG_1,PPG_2,183955.0,183955.0,238.49586869037012,81.74579182333892,0.8036774464872946
62863.46037087327,4.581268633024592,PPG_1,PPG_2,183918.0,183918.0,201.41643569601,60.12380130491643,0.5908588852879397
62863.470373643206,4.5912714029618655,PPG_1,PPG_2,183858.0,183858.0,141.3370027016499,38.59395092749069,0.3789472309813118
62863.48037641315,4.601274172906415,PPG_1,PPG_2,183864.0,183864.0,147.2575697072898,17.81240251836411,0.17440088136762533
62863.49037918309,4.611276942843688,PPG_1,PPG_2,183837.0,183837.0,120.1781367129006,-1.653445076161955,-0.017195432304942387
62863.50038195303,4.621279712788237,PPG_1,PPG_2,183815.0,183815.0,98.09870371854049,-19.35667816916279,-0.19144287692476916
62863.51038472297,4.63128248272551,PPG_1,PPG_2,183808.0,183808.0,91.01927072418039,-34.99078202457144,-0.3453245228035088
62863.520387492914,4.641285252670059,PPG_1,PPG_2,183799.0,183799.0,81.93983772982028,-48.396719425077414,-0.4772750158292755
62863.53039026285,4.651288022607332,PPG_1,PPG_2,183783.0,183783.0,65.86040473546018,-59.55738174863776,-0.5871259611299977
62863.5403930328,4.661290792551881,PPG_1,PPG_2,183777.0,183777.0,59.780971741100075,-68.58065091066295,-0.6759392070122651
62863.55039580273,4.671293562489154,PPG_1,PPG_2,183816.0,183816.0,98.70153874673997,-75.67319879525353,-0.7457489608714218
62863.56039857268,4.681296332433703,PPG_1,PPG_2,183764.0,183764.0,46.62210575235076,-81.10852032465807,-0.7992471485872189
62863.570401342615,4.6912991023709765,PPG_1,PPG_2,183801.0,183801.0,83.54267275799066,-85.19445681934673,-0.8394637570077381
62863.58040411256,4.7013018723155255,PPG_1,PPG_2,183747.0,183747.0,29.463239763630554,-88.24512287855327,-0.8694905189225061
62863.5904068825,4.711304642252799,PPG_1,PPG_2,183777.0,183777.0,59.38380676927045,-90.5591671561121,-0.8922669406068127
62863.60040965244,4.721307412197348,PPG_1,PPG_2,183773.0,183773.0,55.304373774910346,-92.4035461115527,-0.9104205918753582
62863.610412422386,4.731310182141897,PPG_1,PPG_2,183756.0,183756.0,38.22494078055024,-94.00161151329134,-0.9261498550627929
62863.62041519232,4.74131295207917,PPG_1,PPG_2,183779.0,183779.0,61.14550778619014,-95.52545015521034,-0.9411485272246767
62863.63041796227,4.751315722023719,PPG_1,PPG_2,183749.0,183749.0,31.066074791830033,-97.09291493358236,-0.9565765979464531
62863.640420732205,4.761318491960992,PPG_1,PPG_2,183761.0,183761.0,42.986641797440825,-98.76915219626702,-0.9730752825689141
62863.65042350215,4.771321261905541,PPG_1,PPG_2,183760.0,183760.0,41.90720880308072,-100.57158315771606,-0.9908160527144715
62863.66042627209,4.781324031842814,PPG_1,PPG_2,183744.0,183744.0,25.827775808720617,-102.47687086154873,-1.0095692099436826
62863.67042904203,4.791326801787363,PPG_1,PPG_2,183772.0,183772.0,53.74834281436051,-104.42864294100056,-1.028779898496344
62863.68043181197,4.8013295717246365,PPG_1,PPG_2,183762.0,183762.0,43.66890982000041,-106.34557008371762,-1.0476476191203747
62863.69043458191,4.8113323416691856,PPG_1,PPG_2,183746.0,183746.0,27.589476825640304,-108.13054139081207,-1.0652165392914528
62863.70043735185,4.821335111606459,PPG_1,PPG_2,183738.0,183738.0,19.5100438312802,-109.68183008104447,-1.0804853937837717
62863.710440121795,4.831337881551008,PPG_1,PPG_2,183736.0,183736.0,17.430610836890992,-110.90502615758555,-1.0925249342161094
62863.72044289173,4.841340651488281,PPG_1,PPG_2,183763.0,183763.0,44.35117784253089,-111.72226521477845,-1.1005687653407008
62863.73044566168,4.85134342143283,PPG_1,PPG_2,183759.0,183759.0,40.27174484817078,-112.07629816805245,-1.1040534021352981
62863.740448431614,4.861346191370103,PPG_1,PPG_2,183743.0,183743.0,24.19231185381068,-111.93041406978995,-1.1026175101036355
62863.75045120156,4.871348961314652,PPG_1,PPG_2,183737.0,183737.0,18.112878859450575,-111.26677626944686,-1.096085528614411
62863.760453971496,4.881351731251925,PPG_1,PPG_2,183776.0,183776.0,57.03344586509047,-110.08376060042464,-1.0844414714984352
62863.77045674144,4.891354501196474,PPG_1,PPG_2,183759.0,183759.0,39.95401287073037,-108.39131852424666,-1.0677832879117501
62863.78045951138,4.901357271133747,PPG_1,PPG_2,183788.0,183788.0,68.87457987637026,-106.20527901501144,-1.04626677754773
62863.79046228132,4.9113600410782965,PPG_1,PPG_2,183726.0,183726.0,6.795146881981054,-103.54371002154355,-1.0200697776350698
62863.80046505127,4.921362811022846,PPG_1,PPG_2,183770.0,183770.0,50.71571388762095,-100.42683874542527,-0.9893913782591235
62863.8104678212,4.931365580960119,PPG_1,PPG_2,183794.0,183794.0,74.63628089326085,-96.87831693036622,-0.9544643762135927
62863.82047059115,4.941368350904668,PPG_1,PPG_2,183791.0,183791.0,71.55684789890074,-92.92546693820604,-0.915557697050467
62863.830473361086,4.951371120841941,PPG_1,PPG_2,183771.0,183771.0,51.47741490454064,-88.60008966227477,-0.8729843471212007
62863.84047613103,4.96137389078649,PPG_1,PPG_2,183772.0,183772.0,52.39798191018053,-83.94284799502012,-0.8271445586919931
62863.85047890097,4.971376660723763,PPG_1,PPG_2,183773.0,183773.0,53.31854891582043,-79.01027870544958,-0.7785948056834475
62863.86048167091,4.981379430668312,PPG_1,PPG_2,183793.0,183793.0,73.23911592143122,-73.87958469431187,-0.7280949723552375
62863.87048444085,4.991382200605585,PPG_1,PPG_2,183806.0,183806.0,86.15968292707112,-68.64704788085352,-0.676592731841624
62863.880487210794,5.001384970550134,PPG_1,PPG_2,183802.0,183802.0,82.08024993271101,-63.419543446573684,-0.6251400234788673
62863.89048998073,5.011387740487407,PPG_1,PPG_2,183828.0,183828.0,108.00081693835091,-58.30151684690392,-0.5747648715614845
62863.90049275067,5.0213905104319565,PPG_1,PPG_2,183821.0,183821.0,100.9213839439908,-53.38046979969705,-0.5263285284186743
62863.91049552061,5.03139328036923,PPG_1,PPG_2,183846.0,183846.0,125.8419509496307,-48.71370028362172,-0.4803949603221592
62863.92049829056,5.041396050313779,PPG_1,PPG_2,183831.0,183831.0,110.7625179552706,-44.31886318316834,-0.4371379388362266
62863.930501060495,5.051398820251052,PPG_1,PPG_2,183841.0,183841.0,120.68308496091049,-40.170371994047876,-0.39630562391755225
62863.94050383044,5.061401590195601,PPG_1,PPG_2,183861.0,183861.0,140.60365196652128,-36.202386185305116,-0.35724996759596656
62863.95050660038,5.071404360132874,PPG_1,PPG_2,183844.0,183844.0,123.52421897216118,-32.31817152941541,-0.31901884480680515
62863.96050937032,5.081407130077423,PPG_1,PPG_2,183839.0,183839.0,118.44478597780108,-28.405400803537933,-0.28050665345815434
62863.97051214026,5.091409900014696,PPG_1,PPG_2,183823.0,183823.0,102.36535298344097,-24.35567549268031,-0.2406464605136146
62863.9805149102,5.101412669959245,PPG_1,PPG_2,183862.0,183862.0,141.28591998908087,-20.083766930221024,-0.1985993865838033
62863.99051768014,5.111415439896518,PPG_1,PPG_2,183847.0,183847.0,126.20648699472076,-15.541080604319806,-0.1538871309274811
62864.000520450085,5.121418209841067,PPG_1,PPG_2,183869.0,183869.0,148.12705400036066,-10.720474725627657,-0.10643939912229372
62864.01052322003,5.1314209797856165,PPG_1,PPG_2,183869.0,183869.0,148.04762100597145,-5.652920047016543,-0.056561026704074736
62864.02052598997,5.14142374972289,PPG_1,PPG_2,183876.0,183876.0,154.96818801161135,-0.3977953176045177,-0.0048364603241329365
62864.03052875991,5.151426519667439,PPG_1,PPG_2,183917.0,183917.0,195.88875501725124,4.971235377514053,0.04800924722516771
62864.04053152985,5.161429289604712,PPG_1,PPG_2,183910.0,183910.0,188.80932202289114,10.381822165771025,0.1012639785386424
62864.05053429979,5.171432059549261,PPG_1,PPG_2,183886.0,183886.0,164.72988902853103,15.775566012433327,0.1543529299904763
62864.06053706973,5.181434829486534,PPG_1,PPG_2,183931.0,183931.0,209.65045603417093,21.114011071263114,0.20689759258728754
62864.070539839675,5.191437599431083,PPG_1,PPG_2,183894.0,183894.0,172.57102303981083,26.37765191839959,0.25870598047846244
62864.08054260961,5.201440369368356,PPG_1,PPG_2,183925.0,183925.0,203.49159004545072,31.559981596262137,0.3097140476942781
62864.09054537956,5.211443139312905,PPG_1,PPG_2,183894.0,183894.0,172.4121570510615,36.65896070405017,0.35990172104379875
62864.100548149494,5.221445909250178,PPG_1,PPG_2,183910.0,183910.0,188.3327240567014,41.668887851873,0.40921288351076995
62864.11055091944,5.2314486791947274,PPG_1,PPG_2,183957.0,183957.0,235.2532910623413,46.57632989134245,0.45751531677283547
62864.120553689376,5.241451449132001,PPG_1,PPG_2,183942.0,183942.0,220.1738580679812,51.3619407138771,0.5046186030703724
62864.13055645932,5.25145421907655,PPG_1,PPG_2,183933.0,183933.0,211.0944250736211,56.005987428207,0.5503285176614546
62864.14055922926,5.261456989013823,PPG_1,PPG_2,183927.0,183927.0,205.014992079261,60.49405234844216,0.5945031517257855
62864.1505619992,5.271459758958372,PPG_1,PPG_2,183942.0,183942.0,219.9355590849009,64.82285116774972,0.6371101788476211
62864.16056476914,5.281462528895645,PPG_1,PPG_2,184010.0,184010.0,287.8561260905117,69.00895898122145,0.6783127425583663
62864.17056753909,5.291465298840194,PPG_1,PPG_2,183966.0,183966.0,243.77669309615158,73.1002215595041,0.7185817739714095
62864.18057030902,5.301468068777467,PPG_1,PPG_2,183968.0,183968.0,245.69726010179147,77.18430275216461,0.7587801212282358
62864.190573078966,5.311470838722016,PPG_1,PPG_2,183978.0,183978.0,255.61782710743137,81.38885474270069,0.8001642252658069
62864.20057584891,5.321473608666565,PPG_1,PPG_2,183994.0,183994.0,271.53839411307126,85.87296336733283,0.8442999187368933
62864.21057861885,5.331476378603838,PPG_1,PPG_2,184017.0,184017.0,294.45896111871116,90.81213763333346,0.8929146824843628
62864.22058138879,5.3414791485483875,PPG_1,PPG_2,183944.0,183944.0,221.37952812435105,96.37729871366894,0.9476908407178302
62864.23058415873,5.351481918485661,PPG_1,PPG_2,184014.0,184014.0,291.30009512999095,102.70807027933117,1.010002666020782
62864.240586928674,5.36148468843021,PPG_1,PPG_2,183973.0,183973.0,250.22066213560174,109.88431741974539,1.0806362457521528
62864.25058969861,5.371487458367483,PPG_1,PPG_2,184029.0,184029.0,306.14122914124164,117.90195963420727,1.1595514168063246
62864.26059246856,5.381490228312032,PPG_1,PPG_2,184006.0,184006.0,283.06179614688153,126.65673445031773,1.2457219559341397
62864.27059523849,5.391492998249305,PPG_1,PPG_2,184019.0,184019.0,295.98236315252143,135.93652924361626,1.3370601042166663
62864.28059800844,5.401495768193854,PPG_1,PPG_2,184043.0,184043.0,319.9029301581613,145.42226507269038,1.430425266380654
62864.290600778375,5.411498538131127,PPG_1,PPG_2,184055.0,184055.0,331.8234971638012,154.69774446914641,1.521720939547569
62864.30060354832,5.421501308075676,PPG_1,PPG_2,184029.0,184029.0,305.7440641694411,163.26821048801918,1.6060773842232066
62864.31060631826,5.431504078012949,PPG_1,PPG_2,184071.0,184071.0,347.6646311750519,170.58668891855618,1.6781109025261751
62864.3206090882,5.441506847957498,PPG_1,PPG_2,184074.0,184074.0,350.5851981806918,176.08784542853294,1.7322570835814397
62864.33061185814,5.4515096178947715,PPG_1,PPG_2,184088.0,184088.0,364.5057651863317,179.22866573945086,1.7631712058952824
62864.34061462808,5.461512387839321,PPG_1,PPG_2,184099.0,184099.0,375.4263321919716,179.53250138813902,1.7661617661556708
62864.35061739802,5.471515157776594,PPG_1,PPG_2,184072.0,184072.0,348.3468991976115,176.63094432018582,1.7376026378962495
62864.360620167965,5.481517927721143,PPG_1,PPG_2,184071.0,184071.0,347.2674662032514,170.29883827357406,1.6752776777103005
62864.3706229379,5.491520697658416,PPG_1,PPG_2,184097.0,184097.0,373.1880332088913,160.48028302780938,1.5786366770272389
62864.38062570785,5.501523467602965,PPG_1,PPG_2,184060.0,184060.0,336.1086002145312,147.304612411029,1.4489526286917855
62864.39062847779,5.511526237547514,PPG_1,PPG_2,184087.0,184087.0,363.02916722014197,131.08967998750472,1.2893540669692187
62864.40063124773,5.521529007484787,PPG_1,PPG_2,184004.0,184004.0,279.94973422578187,112.32830240769471,1.1046916336353838
62864.41063401767,5.531531777429336,PPG_1,PPG_2,183991.0,183991.0,266.87030123142176,91.65582516077241,0.9012188377164361
62864.42063678761,5.541534547366609,PPG_1,PPG_2,183981.0,183981.0,256.79086823706166,69.80199564210659,0.6861183569861461
62864.430639557555,5.551537317311158,PPG_1,PPG_2,183927.0,183927.0,202.71143524270155,47.534508252524944,0.46694636984935356
62864.44064232749,5.5615400872484315,PPG_1,PPG_2,183929.0,183929.0,204.63200224834145,25.601753763534326,0.25106905506149085
62864.45064509744,5.571542857192981,PPG_1,PPG_2,183893.0,183893.0,168.55256925398135,4.6804310424967,0.045146950152370566
62864.460647867374,5.581545627130254,PPG_1,PPG_2,183848.0,183848.0,123.47313625959214,-14.667457444469546,-0.1452883285299241
62864.47065063732,5.591548397074803,PPG_1,PPG_2,183881.0,183881.0,156.39370326523203,-32.0240349919938,-0.3161237498969775
62864.480653407256,5.601551167012076,PPG_1,PPG_2,183835.0,183835.0,110.31427027087193,-47.12798799175351,-0.46478728497219585
62864.4906561772,5.611553936956625,PPG_1,PPG_2,183882.0,183882.0,157.23483727651183,-59.86939750143067,-0.5901970356235483
62864.50065894714,5.621556706893898,PPG_1,PPG_2,183857.0,183857.0,132.15540428215172,-70.27081751618655,-0.6925749938455013
62864.51066171708,5.631559476838447,PPG_1,PPG_2,183806.0,183806.0,81.07597128779162,-78.46156867358634,-0.7731940226520568
62864.52066448702,5.64156224677572,PPG_1,PPG_2,183825.0,183825.0,99.99653829343151,-84.65099299725736,-0.8341146107955789
62864.53066725696,5.651565016720269,PPG_1,PPG_2,183848.0,183848.0,122.91710529907141,-89.10176701595309,-0.8779222020566726
62864.5406700269,5.6615677866575425,PPG_1,PPG_2,183829.0,183829.0,103.8376723046822,-92.10239874917612,-0.9074564915851763
62864.550672796846,5.6715705566020915,PPG_1,PPG_2,183838.0,183838.0,112.7582393103221,-93.94121140875605,-0.9255553555261966
62864.56067556678,5.681573326539365,PPG_1,PPG_2,183813.0,183813.0,87.67880631596199,-94.88648060676911,-0.934859347704706
62864.57067833673,5.691576096483914,PPG_1,PPG_2,183832.0,183832.0,106.59937332160189,-95.1752257966891,-0.9377013772495646
62864.580681106665,5.701578866421187,PPG_1,PPG_2,183843.0,183843.0,117.51994032724178,-95.01014573548915,-0.9360765452953861
62864.59068387661,5.711581636365736,PPG_1,PPG_2,183776.0,183776.0,50.44050733288168,-94.56348834592877,-0.9316802348394034
62864.600686646554,5.721584406310285,PPG_1,PPG_2,183785.0,183785.0,59.361074338521576,-93.98579368953774,-0.925994165118813
62864.61068941649,5.731587176247558,PPG_1,PPG_2,183825.0,183825.0,99.28164134413237,-93.41396482814626,-0.9203658306030842
62864.62069218643,5.741589946192107,PPG_1,PPG_2,183854.0,183854.0,128.20220834977226,-92.97191149150609,-0.9160148364151541
62864.63069495637,5.75159271612938,PPG_1,PPG_2,183811.0,183811.0,85.12277535541216,-92.76299867779085,-0.9139585722431249
62864.64069772632,5.761595486073929,PPG_1,PPG_2,183843.0,183843.0,117.04334236105205,-92.86037615620718,-0.9149170286272459
62864.650700496255,5.7715982560112025,PPG_1,PPG_2,183821.0,183821.0,94.96390936669195,-93.30096845256398,-0.9192536422478227
62864.6607032662,5.7816010259557515,PPG_1,PPG_2,183816.0,183816.0,89.88447637233185,-94.08446605108239,-0.9269653666368316
62864.67070603614,5.791603795893025,PPG_1,PPG_2,183820.0,183820.0,93.80504337797174,-95.17594076054215,-0.9377084144175064
62864.68070880608,5.801606565837574,PPG_1,PPG_2,183845.0,183845.0,118.72561038361164,-96.51014046221754,-0.9508405291791532
62864.69071157602,5.811609335774847,PPG_1,PPG_2,183825.0,183825.0,98.64617738922243,-97.99666194328246,-0.9654719000754926
62864.70071434596,5.821612105719396,PPG_1,PPG_2,183793.0,183793.0,66.56674439486233,-99.52716006420971,-0.9805361194283099
62864.7107171159,5.831614875656669,PPG_1,PPG_2,183796.0,183796.0,69.48731140050222,-100.98487273537123,-0.994883934124387
62864.720719885845,5.841617645601218,PPG_1,PPG_2,183854.0,183854.0,127.40787840614212,-102.2531277969615,-1.0073669762019177
62864.73072265578,5.851620415538491,PPG_1,PPG_2,183829.0,183829.0,102.32844541178201,-103.21952148580596,-1.0168788902061712
62864.74072542573,5.86162318548304,PPG_1,PPG_2,183804.0,183804.0,77.24901241742191,-103.7776540779697,-1.0223724165825494
62864.750728195664,5.871625955420313,PPG_1,PPG_2,183856.0,183856.0,129.1695794230618,-103.83117982554126,-1.0228992539509958
62864.76073096561,5.8816287253648625,PPG_1,PPG_2,183783.0,183783.0,56.0901464286726,-103.30212952793254,-1.0176919755996687
62864.770733735546,5.891631495302136,PPG_1,PPG_2,183812.0,183812.0,85.01071343431249,-102.14188201864671,-1.0062720184337937
62864.78073650549,5.901634265246685,PPG_1,PPG_2,183801.0,183801.0,73.93128043995239,-100.34100705406384,-0.9885465634838472
62864.790739275435,5.911637035191234,PPG_1,PPG_2,183814.0,183814.0,86.85184744559228,-97.93298699458954,-0.9648451672613363
62864.80074204537,5.921639805128507,PPG_1,PPG_2,183859.0,183859.0,131.77241445123218,-94.9885098788006,-0.9358635902537654
62864.81074481532,5.931642575073056,PPG_1,PPG_2,183841.0,183841.0,113.69298145687208,-91.60175495484954,-0.9025288096545424
62864.820747585254,5.941645345010329,PPG_1,PPG_2,183840.0,183840.0,112.61354846251197,-87.8742596625695,-0.8658402270606081
62864.8307503552,5.951648114954878,PPG_1,PPG_2,183824.0,183824.0,96.53411546815187,-83.90183138751222,-0.8267408449179225
62864.840753125136,5.961650884892151,PPG_1,PPG_2,183869.0,183869.0,141.45468247376266,-79.76580330838493,-0.7860312005338854
62864.85075589508,5.9716536548367,PPG_1,PPG_2,183864.0,183864.0,136.37524947940256,-75.52702416605577,-0.7443102092336754
62864.86075866502,5.981656424773973,PPG_1,PPG_2,183852.0,183852.0,124.29581648504245,-71.22250403550775,-0.7019421497316438
62864.87076143496,5.9916591947185225,PPG_1,PPG_2,183841.0,183841.0,113.21638349068235,-66.86644003186447,-0.6590667598382945
62864.8807642049,6.001661964655796,PPG_1,PPG_2,183890.0,183890.0,162.13695049632224,-62.45541758642363,-0.6156504310106159
62864.89076697485,6.011664734600345,PPG_1,PPG_2,183856.0,183856.0,128.05751750196214,-57.97526874264745,-0.5715537124370402
62864.90076974478,6.021667504537618,PPG_1,PPG_2,183861.0,183861.0,132.97808450760203,-53.40793658740632,-0.5265988755098023
62864.910772514726,6.031670274482167,PPG_1,PPG_2,183878.0,183878.0,149.89865151321283,-48.737710187313475,-0.4806312823737234
62864.92077528466,6.04167304441944,PPG_1,PPG_2,183880.0,183880.0,151.81921851885272,-43.955210210328026,-0.4335586151661971
62864.93077805461,6.051675814363989,PPG_1,PPG_2,183902.0,183902.0,173.73978552449262,-39.057642373237194,-0.38535337062232183
62864.940780824545,6.061678584301262,PPG_1,PPG_2,183879.0,183879.0,150.6603525301325,-34.045971825918826,-0.33602504841365527
62864.95078359449,6.071681354245811,PPG_1,PPG_2,183931.0,183931.0,202.5809195357724,-28.92092306785795,-0.2855807795644137
62864.96078636443,6.081684124183084,PPG_1,PPG_2,183894.0,183894.0,165.5014865414123,-23.679484799630803,-0.23399092478629205
62864.97078913437,6.091686894127633,PPG_1,PPG_2,183928.0,183928.0,199.4220535470522,-18.31337892606097,-0.1811740053503354
62864.98079190432,6.1016896640721825,PPG_1,PPG_2,183892.0,183892.0,163.3426205526921,-12.810375587301834,-0.1270096465309139
62864.99079467425,6.111692434009456,PPG_1,PPG_2,183933.0,183933.0,204.2631875583029,-7.1575911561124475,-0.07137103877226017
62865.0007974442,6.121695203954005,PPG_1,PPG_2,183946.0,183946.0,217.18375456394278,-1.3446816064355689,-0.01415636902711406
62865.010800214135,6.131697973891278,PPG_1,PPG_2,183939.0,183939.0,210.10432156958268,4.6337772799360755,0.04468775160567669
62865.02080298408,6.141700743835827,PPG_1,PPG_2,183929.0,183929.0,200.02488857522258,10.775095988423269,0.10513485106644736
62865.03080575402,6.1517035137731,PPG_1,PPG_2,183948.0,183948.0,218.94545558086247,17.063327809027573,0.1670279708237973
62865.04080852396,6.161706283717649,PPG_1,PPG_2,183954.0,183954.0,224.86602258650237,23.46384385796243,0.23002626949140195
62865.0508112939,6.171709053654922,PPG_1,PPG_2,183953.0,183953.0,223.78658959214226,29.92024663374937,0.2935746439158463
62865.06081406384,6.181711823599471,PPG_1,PPG_2,183941.0,183941.0,211.70715659775306,36.3550378009232,0.3569103019649723
62865.07081683378,6.191714593536744,PPG_1,PPG_2,184001.0,184001.0,271.62772360339295,42.67499328006064,0.419115667875573
62865.080819603725,6.201717363481293,PPG_1,PPG_2,183967.0,183967.0,237.54829060903285,48.78189077853247,0.4792239700186791
62865.09082237366,6.2117201334185665,PPG_1,PPG_2,184010.0,184010.0,280.46885761467274,54.587094499519594,0.5363627936767961
62865.10082514361,6.221722903363116,PPG_1,PPG_2,183984.0,183984.0,254.38942462031264,60.026523718793484,0.5899014121127484
62865.110827913544,6.231725673300389,PPG_1,PPG_2,184003.0,184003.0,273.30999162595253,65.07310806196071,0.6395733800089953
62865.12083068349,6.241728443244938,PPG_1,PPG_2,184018.0,184018.0,288.23055863159243,69.74560932325053,0.6855633638998226
62865.130833453426,6.251731213182211,PPG_1,PPG_2,184025.0,184025.0,295.1511256372323,74.1132879608775,0.7285530730410302
62865.14083622337,6.26173398312676,PPG_1,PPG_2,184023.0,184023.0,293.0716926428431,78.29491642287762,0.7697115478814893
62865.15083899331,6.271736753064033,PPG_1,PPG_2,184012.0,184012.0,281.992259648483,82.45010024781706,0.8106097363433239
62865.16084176325,6.281739523008582,PPG_1,PPG_2,184036.0,184036.0,305.9128266541229,86.76254884909406,0.8530558333290745
62865.1708445332,6.291742292953131,PPG_1,PPG_2,183997.0,183997.0,266.8333936597628,91.41749280762888,0.898873006122437
62865.180847303134,6.301745062890404,PPG_1,PPG_2,184029.0,184029.0,298.7539606654027,96.57698624574437,0.9496563032976761
62865.19085007308,6.311747832834953,PPG_1,PPG_2,184012.0,184012.0,281.6745276710426,102.35757140586458,1.0065528140800182
62865.200852843016,6.321750602772227,PPG_1,PPG_2,184068.0,184068.0,337.5950946766825,108.81445223110461,1.070105893797285
62865.21085561296,6.331753372716776,PPG_1,PPG_2,184040.0,184040.0,309.5156616822933,115.93378091645056,1.1401792427902786
62865.2208583829,6.341756142654049,PPG_1,PPG_2,184072.0,184072.0,341.4362286879332,123.63128385808645,1.2159433820572432
62865.23086115284,6.351758912598598,PPG_1,PPG_2,184062.0,184062.0,331.3567956935731,131.75427367923263,1.295895457001519
62865.24086392278,6.361761682535871,PPG_1,PPG_2,184074.0,184074.0,343.277362699213,140.08544783744495,1.3778966259476124
62865.25086669272,6.37176445248042,PPG_1,PPG_2,184090.0,184090.0,359.19792970485287,148.34850188276258,1.4592273097039805
62865.26086946266,6.381767222417693,PPG_1,PPG_2,184108.0,184108.0,377.11849671049276,156.21587933050247,1.5366634711625515
62865.270872232606,6.391769992362242,PPG_1,PPG_2,184073.0,184073.0,342.03906371613266,163.3181373600511,1.6065687989734798
62865.28087500254,6.401772762299515,PPG_1,PPG_2,184095.0,184095.0,363.95963072177256,169.25442683011045,1.6649978590919041
62865.29087777249,6.411775532244064,PPG_1,PPG_2,184107.0,184107.0,375.88019772738335,173.6056192368092,1.7078252993641676
62865.300880542425,6.4217783021813375,PPG_1,PPG_2,184095.0,184095.0,363.80076473302324,175.95285471668754,1.7309284117810457
62865.31088331237,6.431781072125887,PPG_1,PPG_2,184096.0,184096.0,364.72133173866314,175.9027016475964,1.730434770643121
62865.32088608231,6.44178384206316,PPG_1,PPG_2,184109.0,184109.0,377.64189874430303,173.1183195206658,1.7030289590654273
62865.33088885225,6.451786612007709,PPG_1,PPG_2,184117.0,184117.0,385.56246574994293,167.35524317421516,1.646304782117488
62865.34089162219,6.461789381944982,PPG_1,PPG_2,184126.0,184126.0,394.4830327555828,158.49842181325775,1.5591298304296364
62865.35089439213,6.471792151889531,PPG_1,PPG_2,184131.0,184131.0,399.4035997612227,146.59381819572883,1.4419565012038875
62865.36089716207,6.481794921826804,PPG_1,PPG_2,184086.0,184086.0,354.3241667668335,131.86588537602805,1.2969940163920053
62865.370899932015,6.491797691771353,PPG_1,PPG_2,184070.0,184070.0,338.2447337724734,114.713804211102,1.128171389632273
62865.38090270196,6.501800461715902,PPG_1,PPG_2,184050.0,184050.0,318.1653007781133,95.68437301359306,0.9408705874954195
62865.3909054719,6.511803231653175,PPG_1,PPG_2,183973.0,183973.0,241.0858677837532,75.4250444231871,0.7414642859432294
62865.40090824184,6.521806001597724,PPG_1,PPG_2,183934.0,183934.0,202.0064347893931,54.6250039568112,0.5367359247328741
62865.41091101178,6.5318087715349975,PPG_1,PPG_2,183983.0,183983.0,250.927001795033,33.95587315255231,0.3332960668134206
62865.42091378172,6.541811541479547,PPG_1,PPG_2,183939.0,183939.0,206.8475688006729,14.02354620536859,0.13710834123651305
62865.43091655166,6.55181431141682,PPG_1,PPG_2,183930.0,183930.0,197.76813580631278,-4.664146216677384,-0.04682883189319165
62865.440919321605,6.561817081361369,PPG_1,PPG_2,183897.0,183897.0,164.68870281192358,-21.716513885249373,-0.21467000956718219
62865.45092209154,6.571819851298642,PPG_1,PPG_2,183895.0,183895.0,162.60926981756347,-36.869059870125135,-0.36381183035656595
62865.46092486149,6.581822621243191,PPG_1,PPG_2,183878.0,183878.0,145.52983682320337,-49.98293096623839,-0.4928876051355222
62865.470927631424,6.591825391180464,PPG_1,PPG_2,183866.0,183866.0,133.45040382884326,-61.03440898607419,-0.6016638831245362
62865.48093040137,6.601828161125013,PPG_1,PPG_2,183889.0,183889.0,156.37097083448316,-70.09537325636288,-0.6908481502917337
62865.490933171306,6.611830931062286,PPG_1,PPG_2,183856.0,183856.0,123.29153784012306,-77.3074010593206,-0.7618339080112865
62865.50093594125,6.621833701006835,PPG_1,PPG_2,183879.0,183879.0,146.21210484576295,-82.85373328334943,-0.8164247396391949
62865.51093871119,6.631836470944108,PPG_1,PPG_2,183877.0,183877.0,144.13267185137374,-86.93391470453807,-0.8565847026523069
62865.52094148113,6.6418392408886575,PPG_1,PPG_2,183834.0,183834.0,101.05323885701364,-89.74533433707512,-0.8842566360302431
62865.53094425107,6.651842010825931,PPG_1,PPG_2,183851.0,183851.0,117.97380586265353,-91.47405312136928,-0.9012718800281682
62865.540947021014,6.66184478077048,PPG_1,PPG_2,183877.0,183877.0,143.89437286829343,-92.29427440073978,-0.9093450642427295
62865.55094979095,6.671847550707753,PPG_1,PPG_2,183784.0,183784.0,50.81493987393333,-92.37398751978525,-0.9101296558042471
62865.560952560896,6.681850320652302,PPG_1,PPG_2,183820.0,183820.0,86.73550687957322,-91.88374009839137,-0.9053043021549685
62865.57095533084,6.691853090596851,PPG_1,PPG_2,183839.0,183839.0,105.65607388521312,-91.00302007648682,-0.8966356475405151
62865.58095810078,6.701855860534124,PPG_1,PPG_2,183856.0,183856.0,122.57664089085301,-89.91769178691133,-0.8859530970685957
62865.59096087072,6.711858630478673,PPG_1,PPG_2,183851.0,183851.0,117.4972078964638,-88.80731644089646,-0.8750240161715903
62865.60096364066,6.721861400415946,PPG_1,PPG_2,183872.0,183872.0,138.4177749021037,-87.8278538768471,-0.8653834692731902
62865.61096641061,6.731864170360495,PPG_1,PPG_2,183851.0,183851.0,117.3383419077436,-87.0966134767468,-0.8581860963158949
62865.62096918054,6.7418669402977685,PPG_1,PPG_2,183845.0,183845.0,111.2589089133835,-86.68378305164242,-0.8541227342024404
62865.630971950486,6.7518697102423175,PPG_1,PPG_2,183840.0,183840.0,106.17947591902339,-86.61143196642153,-0.85341060486149
62865.64097472042,6.761872480179591,PPG_1,PPG_2,183849.0,183849.0,115.10004292466328,-86.85779324824318,-0.8558354627157121
62865.65097749037,6.77187525012414,PPG_1,PPG_2,183844.0,183844.0,110.02060993030318,-87.36360382512295,-0.8608139996880251
62865.660980260305,6.781878020061413,PPG_1,PPG_2,183863.0,183863.0,128.94117693591397,-88.03878578664946,-0.8674596067831443
62865.67098303025,6.791880790005962,PPG_1,PPG_2,183856.0,183856.0,121.86174394155387,-88.77002215481927,-0.8746569400553955
62865.68098580019,6.801883559943235,PPG_1,PPG_2,183820.0,183820.0,85.78231094719376,-89.4309401727011,-0.8811621515675594
62865.69098857013,6.811886329887784,PPG_1,PPG_2,183845.0,183845.0,110.70287795283366,-89.89533739624666,-0.8857330697194166
62865.70099134007,6.821889099825057,PPG_1,PPG_2,183836.0,183836.0,101.62344495847356,-90.05097300550966,-0.8872649428560048
62865.71099411001,6.831891869769606,PPG_1,PPG_2,183843.0,183843.0,108.54401196411345,-89.81043338894713,-0.8848973858512662
62865.72099687995,6.841894639706879,PPG_1,PPG_2,183844.0,183844.0,109.46457896975335,-89.11757581968307,-0.8780778032193515
62865.730999649895,6.8518974096514285,PPG_1,PPG_2,183848.0,183848.0,113.38514597539324,-87.95014326668401,-0.8665871258918009
62865.74100241983,6.861900179588702,PPG_1,PPG_2,183842.0,183842.0,107.30571298100404,-86.31967196295366,-0.8505389014398902
62865.75100518978,6.871902949533251,PPG_1,PPG_2,183819.0,183819.0,84.22627998664393,-84.26924453733636,-0.8303571788463218
62865.76100795972,6.8819057194778,PPG_1,PPG_2,183871.0,183871.0,136.14684699228383,-81.86827923242882,-0.8067252203897386
62865.77101072966,6.891908489415073,PPG_1,PPG_2,183829.0,183829.0,94.06741399792372,-79.20283096461186,-0.7804900379802006
62865.7810134996,6.901911259359622,PPG_1,PPG_2,183866.0,183866.0,130.98798100356362,-76.36124821006531,-0.7525212183270682
62865.79101626954,6.911914029296895,PPG_1,PPG_2,183892.0,183892.0,156.9085480092035,-73.41711098814037,-0.7235429867896118
62865.801019039485,6.921916799241444,PPG_1,PPG_2,183869.0,183869.0,133.8291150148434,-70.41308535511264,-0.6939752921556589
62865.81102180942,6.931919569178717,PPG_1,PPG_2,183894.0,183894.0,158.7496820204542,-67.35079594909774,-0.6638341252353959
62865.82102457937,6.941922339123266,PPG_1,PPG_2,183876.0,183876.0,140.6702490260941,-64.19132119066818,-0.6327363929677879
62865.831027349304,6.951925109060539,PPG_1,PPG_2,183843.0,183843.0,107.590816031734,-60.86764715071316,-0.6000224979877581
62865.84103011925,6.9619278790050885,PPG_1,PPG_2,183845.0,183845.0,109.51138303737389,-57.30586967315626,-0.5649650245585619
62865.851032889186,6.971930648942362,PPG_1,PPG_2,183853.0,183853.0,117.43195004301379,-53.44761215869786,-0.5269893898794129
62865.86103565913,6.981933418886911,PPG_1,PPG_2,183880.0,183880.0,144.35251704865368,-49.264925564764404,-0.4858205001737998
62865.87103842907,6.991936188824184,PPG_1,PPG_2,183907.0,183907.0,171.27308405429358,-44.76314686413668,-0.44151088561314217
62865.88104119901,7.001938958768733,PPG_1,PPG_2,183880.0,183880.0,144.19365105993347,-39.973905945301816,-0.39437186940114755
62865.89104396895,7.011941728706006,PPG_1,PPG_2,183912.0,183912.0,176.11421806554426,-34.944181791202304,-0.34486585112808077
62865.901046738894,7.021944498650555,PPG_1,PPG_2,183910.0,183910.0,174.03478507118416,-29.726233750253495,-0.2935072033874131
62865.91104950883,7.031947268587828,PPG_1,PPG_2,183878.0,183878.0,141.95535207682406,-24.37044301319162,-0.24079181264782357
62865.921052278776,7.041950038532377,PPG_1,PPG_2,183924.0,183924.0,187.87591908246395,-18.920938693830152,-0.18715402811970458
62865.93105504871,7.05195280846965,PPG_1,PPG_2,183942.0,183942.0,205.79648608810385,-13.412546927946705,-0.13293663267968397
62865.94105781866,7.061955578414199,PPG_1,PPG_2,183925.0,183925.0,188.71705309374374,-7.868763964251745,-0.07837089263230859
62865.951060588595,7.0719583483514725,PPG_1,PPG_2,183903.0,183903.0,166.63762009938364,-2.3031008757671523,-0.023589793287988534
62865.96106335854,7.081961118296022,PPG_1,PPG_2,183927.0,183927.0,190.55818710499443,3.2750128785901165,0.03131385410734187
62865.97106612848,7.091963888240571,PPG_1,PPG_2,183919.0,183919.0,182.47875411063433,8.85312972511434,0.08621753193791463
62865.98106889842,7.101966658177844,PPG_1,PPG_2,183955.0,183955.0,218.39932111627422,14.412369496447392,0.14093540855937053
62865.991071668366,7.111969428122393,PPG_1,PPG_2,183968.0,183968.0,231.31988812191412,19.92929900082561,0.19523683831717542
62866.0010744383,7.121972198059666,PPG_1,PPG_2,183946.0,183946.0,209.24045512755401,25.380477391764625,0.2488911002137483
62866.01107720825,7.131974968004215,PPG_1,PPG_2,183927.0,183927.0,190.1610221331939,30.74588492532352,0.3017011461050963
62866.021079978185,7.141977737941488,PPG_1,PPG_2,183964.0,183964.0,227.0815891388338,36.01080172934703,0.35352209284503305
62866.03108274813,7.151980507886037,PPG_1,PPG_2,183974.0,183974.0,237.0021561444737,41.16957812704199,0.4042983324133192
62866.04108551807,7.16198327782331,PPG_1,PPG_2,183996.0,183996.0,258.9227231500845,46.233484252253334,0.4541407932495617
62866.05108828801,7.171986047767859,PPG_1,PPG_2,183979.0,183979.0,241.8432901557244,51.23985966425657,0.5034169970800354
62866.06109105795,7.1819888177051325,PPG_1,PPG_2,184004.0,184004.0,266.7638571613643,56.257376085124896,0.5528028584129003
62866.07109382789,7.191991587649682,PPG_1,PPG_2,184000.0,184000.0,262.6844241670042,61.38394391148668,0.6032620789813136
62866.08109659783,7.201994357586955,PPG_1,PPG_2,183981.0,183981.0,243.60499117264408,66.73637127413461,0.655944365067428
62866.091099367775,7.211997127531504,PPG_1,PPG_2,183995.0,183995.0,257.525558178284,72.43294509857654,0.7120139782721279
62866.10110213771,7.221999897468777,PPG_1,PPG_2,183993.0,183993.0,255.44612518392387,78.57234727697183,0.7724422139203229
62866.11110490766,7.232002667413326,PPG_1,PPG_2,184024.0,184024.0,286.36669218953466,85.21339750196518,0.8378080160434684
62866.121107677594,7.242005437350599,PPG_1,PPG_2,184011.0,184011.0,273.28725919517456,92.3584529977936,0.9081345860702271
62866.13111044754,7.252008207295148,PPG_1,PPG_2,183998.0,183998.0,260.20782620081445,99.94095500201679,0.982766806700196
62866.14111321747,7.262010977232421,PPG_1,PPG_2,184040.0,184040.0,302.12839320645435,107.81769559581632,1.060295126707769
62866.15111598742,7.27201374717697,PPG_1,PPG_2,184030.0,184030.0,292.04896021209424,115.76784056292716,1.1385459432449998
62866.161118757365,7.282016517121519,PPG_1,PPG_2,184064.0,184064.0,325.96952721773414,123.49998555534266,1.2146510534969268
62866.1711215273,7.292019287058792,PPG_1,PPG_2,184043.0,184043.0,304.89009422337404,130.6657920779391,1.2851818694582313
62866.18112429725,7.302022057003342,PPG_1,PPG_2,184055.0,184055.0,316.81066122901393,136.87759851126063,1.3463227577803316
62866.191127067184,7.312024826940615,PPG_1,PPG_2,184079.0,184079.0,340.7312282346247,141.72864550667575,1.3940701120766474
62866.20112983713,7.322027596885164,PPG_1,PPG_2,184045.0,184045.0,306.6517952402646,144.81570629178367,1.4244550960151914
62866.211132607066,7.332030366822437,PPG_1,PPG_2,184079.0,184079.0,340.5723622459045,145.76373048310094,1.4337862047401917
62866.22113537701,7.342033136766986,PPG_1,PPG_2,184056.0,184056.0,317.4929292515444,144.25185872569568,1.4189053189191205
62866.23113814695,7.352035906704259,PPG_1,PPG_2,184089.0,184089.0,350.4134962571843,140.0399927791036,1.3774492258755795
62866.24114091689,7.362038676648808,PPG_1,PPG_2,184041.0,184041.0,302.3340632628242,132.99394450082588,1.3080971532508774
62866.25114368683,7.372041446586081,PPG_1,PPG_2,184059.0,184059.0,320.2546302684641,123.10620792628794,1.2107752221586179
62866.261146456774,7.38204421653063,PPG_1,PPG_2,184055.0,184055.0,316.1751972740749,110.51002641326266,1.0867949057338222
62866.27114922671,7.392046986467904,PPG_1,PPG_2,184045.0,184045.0,306.0957642797148,95.4849022495411,0.9389072584961442
62866.281151996656,7.4020497564124526,PPG_1,PPG_2,184007.0,184007.0,268.0163312853547,78.45066503546322,0.77124453327481
62866.29115476659,7.412052526349726,PPG_1,PPG_2,183986.0,183986.0,246.93689829099458,59.94734299943246,0.58912206079656
62866.30115753654,7.422055296294275,PPG_1,PPG_2,183952.0,183952.0,212.85746529663447,40.601396228031504,0.3987058938196614
62866.311160306475,7.432058066231548,PPG_1,PPG_2,183943.0,183943.0,203.77803230227437,21.08279068044597,0.20659029994241634
62866.32116307642,7.442060836176097,PPG_1,PPG_2,183916.0,183916.0,176.69859930791426,2.0587551505577397,0.019342605692127438
62866.33116584636,7.45206360611337,PPG_1,PPG_2,183876.0,183876.0,136.61916631355416,-15.850848648343705,-0.15693608191922886
62866.3411686163,7.462066376057919,PPG_1,PPG_2,183899.0,183899.0,159.53973331916495,-32.112580345304195,-0.31699527440700587
62866.351171386246,7.472069146002468,PPG_1,PPG_2,183881.0,183881.0,141.46030032480485,-46.30976433942295,-0.45673376278237227
62866.36117415618,7.482071915939741,PPG_1,PPG_2,183825.0,183825.0,85.38086733044474,-58.16307059273532,-0.5734021879274084
62866.37117692613,7.49207468588429,PPG_1,PPG_2,183856.0,183856.0,116.30143433608464,-67.54176894447866,-0.6657138133274921
62866.381179696065,7.5020774558215635,PPG_1,PPG_2,183796.0,183796.0,56.222001341724535,-74.4645204415309,-0.7338523138919085
62866.39118246601,7.512080225766113,PPG_1,PPG_2,183853.0,183853.0,113.14256834736443,-79.08670750965445,-0.7793470707504037
62866.40118523595,7.522082995703386,PPG_1,PPG_2,183880.0,183880.0,140.06313535300433,-81.67311536316913,-0.8048042828230259
62866.41118800589,7.532085765647935,PPG_1,PPG_2,183831.0,183831.0,90.98370235861512,-82.56018540276192,-0.8135354386964105
62866.42119077583,7.542088535585208,PPG_1,PPG_2,183876.0,183876.0,135.90426936425501,-82.11676138849977,-0.8091709533528383
62866.43119354577,7.552091305529757,PPG_1,PPG_2,183835.0,183835.0,94.82483636989491,-80.71149218049908,-0.795339323434693
62866.44119631571,7.56209407546703,PPG_1,PPG_2,183835.0,183835.0,94.7454033755348,-78.69021478539538,-0.7754445155702536
62866.451199085655,7.572096845411579,PPG_1,PPG_2,183840.0,183840.0,99.6659703811747,-76.36234462113468,-0.7525320099619118
62866.46120185559,7.582099615348852,PPG_1,PPG_2,183847.0,183847.0,106.5865373868146,-73.9930482248491,-0.7292117587721475
62866.47120462554,7.592102385293401,PPG_1,PPG_2,183859.0,183859.0,118.5071043924545,-71.79826263812454,-0.7076091634740953
62866.481207395474,7.602105155230674,PPG_1,PPG_2,183859.0,183859.0,118.42767139809439,-69.94218024838442,-0.6893403189236643
62866.49121016542,7.612107925175224,PPG_1,PPG_2,183827.0,183827.0,86.34823840370518,-68.5387464385783,-0.6755267542619378
62866.50121293536,7.622110695112497,PPG_1,PPG_2,183836.0,183836.0,95.26880540934508,-67.657538154496,-0.6668532938339738
62866.5112157053,7.632113465057046,PPG_1,PPG_2,183851.0,183851.0,110.18937241498497,-67.33122582525573,-0.6636415025628902
62866.52121847524,7.642116234994319,PPG_1,PPG_2,183817.0,183817.0,76.10993942062487,-67.56045614562277,-0.6658977456651252
62866.53122124518,7.652119004938868,PPG_1,PPG_2,183873.0,183873.0,132.03050642626476,-68.31377596412511,-0.6733124395047155
62866.54122401513,7.662121774883417,PPG_1,PPG_2,183879.0,183879.0,137.95107343190466,-69.52321088306546,-0.6852165331215284
62866.551226785065,7.67212454482069,PPG_1,PPG_2,183852.0,183852.0,110.87164043754456,-71.07952752583873,-0.7005348761946796
62866.56122955501,7.682127314765239,PPG_1,PPG_2,183836.0,183836.0,94.79220744315535,-72.83324071630584,-0.7177961323974119
62866.571232324946,7.692130084702512,PPG_1,PPG_2,183849.0,183849.0,107.71277444879524,-74.60454861241733,-0.7352305678426739
62866.58123509489,7.702132854647061,PPG_1,PPG_2,183835.0,183835.0,93.63334145443514,-76.20001479583746,-0.7509342477285937
62866.59123786483,7.712135624584334,PPG_1,PPG_2,183833.0,183833.0,91.55390846007504,-77.43188248397662,-0.763059140150241
62866.60124063477,7.7221383945288835,PPG_1,PPG_2,183837.0,183837.0,95.47447546571493,-78.13718656075477,-0.7700012299037294
62866.61124340471,7.732141164466157,PPG_1,PPG_2,183782.0,183782.0,40.39504247135483,-78.19445037649542,-0.7705648599203243
62866.621246174655,7.742143934410706,PPG_1,PPG_2,183851.0,183851.0,109.31560947699472,-77.53468348930414,-0.7640709786313009
62866.63124894459,7.752146704347979,PPG_1,PPG_2,183837.0,183837.0,95.23617648263462,-76.1429437024044,-0.7503725146180297
62866.641251714536,7.762149474292528,PPG_1,PPG_2,183835.0,183835.0,93.15674348824541,-74.04963509608085,-0.7297687258334388
62866.65125448447,7.772152244229801,PPG_1,PPG_2,183871.0,183871.0,129.0773104938853,-71.31512426440315,-0.7028537819809818
62866.66125725442,7.78215501417435,PPG_1,PPG_2,183837.0,183837.0,94.9978774995252,-68.01280891684767,-0.6703501140002515
62866.671260024355,7.792157784111623,PPG_1,PPG_2,183859.0,183859.0,116.9184445051651,-64.21452115767093,-0.6329647430631777
62866.6812627943,7.802160554056172,PPG_1,PPG_2,183871.0,183871.0,128.839011510805,-59.98034804601949,-0.5912890874974754
62866.69126556424,7.812163323993445,PPG_1,PPG_2,183836.0,183836.0,93.75957851644489,-55.35349826626429,-0.5457484370113843
62866.70126833418,7.822166093937994,PPG_1,PPG_2,183885.0,183885.0,142.68014552208479,-50.35998336437841,-0.4965988152019847
62866.71127110412,7.832168863875268,PPG_1,PPG_2,183870.0,183870.0,127.60071252769558,-45.01233013945133,-0.4439635194759784
62866.72127387406,7.842171633819817,PPG_1,PPG_2,183859.0,183859.0,116.52127953333547,-39.31658280800805,-0.387902041186085
62866.731276644,7.85217440375709,PPG_1,PPG_2,183885.0,183885.0,142.44184653897537,-33.28208258878403,-0.32850632305744043
62866.741279413945,7.862177173701639,PPG_1,PPG_2,183859.0,183859.0,116.36241354461526,-26.93248917554592,-0.2660092401336974
62866.75128218389,7.872179943646188,PPG_1,PPG_2,183902.0,183902.0,159.28298055025516,-20.315328300547563,-0.20087857348938706
62866.76128495383,7.882182713583461,PPG_1,PPG_2,183894.0,183894.0,151.20354755589506,-13.50793917795156,-0.13387554907493007
62866.77128772377,7.89218548352801,PPG_1,PPG_2,183864.0,183864.0,121.12411456153495,-6.6192381332575305,-0.06607219657529921
62866.78129049371,7.902188253465283,PPG_1,PPG_2,183911.0,183911.0,168.04468156717485,0.21315463695942705,0.0011769310046778085
62866.791293263654,7.912191023409832,PPG_1,PPG_2,183921.0,183921.0,177.96524857278564,6.832105776353451,0.06632521866739198
62866.80129603359,7.922193793347105,PPG_1,PPG_2,183907.0,183907.0,163.88581557842554,13.077302622856502,0.12779475849292773
62866.811298803535,7.9321965632916545,PPG_1,PPG_2,183946.0,183946.0,202.80638258406543,18.80639805010521,0.18418447176941974
62866.82130157347,7.942199333228928,PPG_1,PPG_2,183941.0,183941.0,197.72694958970533,23.917022951249933,0.23448677105886406
62866.83130434342,7.952202103173477,PPG_1,PPG_2,183945.0,183945.0,201.64751659534522,28.36591402414428,0.27827582906716014
62866.841307113355,7.96220487311075,PPG_1,PPG_2,183970.0,183970.0,226.56808360098512,32.18151338222997,0.3158315927147812
62866.8513098833,7.972207643055299,PPG_1,PPG_2,183947.0,183947.0,203.48865060662501,35.466840037368854,0.34816804625363684
62866.86131265324,7.982210412992572,PPG_1,PPG_2,183931.0,183931.0,187.4092176122358,38.39085520950581,0.37694822268230876
62866.87131542318,7.992213182937121,PPG_1,PPG_2,183960.0,183960.0,216.3297846178757,41.16922283170763,0.4042948353512983
62866.88131819312,8.002215952874394,PPG_1,PPG_2,183904.0,183904.0,160.2503516235156,44.038520626031186,0.4325364455638336
62866.89132096306,8.012218722818943,PPG_1,PPG_2,183928.0,183928.0,184.1709186291555,47.22977023278661,0.46394692782998004
62866.901323733,8.022221492756216,PPG_1,PPG_2,183961.0,183961.0,217.0914856347954,50.94749201733644,0.5005393128119857
62866.911326502945,8.032224262700765,PPG_1,PPG_2,183978.0,183978.0,234.0120526404353,55.35848536463831,0.5439553552356876
62866.92132927288,8.042227032638039,PPG_1,PPG_2,183972.0,183972.0,227.93261964607518,60.58900034485107,0.5954376954703723
62866.93133204283,8.052229802582588,PPG_1,PPG_2,183995.0,183995.0,250.85318665171508,66.7240609288244,0.6558231981482883
62866.94133481277,8.062232572527137,PPG_1,PPG_2,183965.0,183965.0,220.77375365732587,73.80308208274944,0.7254998125836941
62866.95133758271,8.07223534246441,PPG_1,PPG_2,183984.0,183984.0,239.69432066296577,81.80993216626025,0.804308760032813
62866.96134035265,8.082238112408959,PPG_1,PPG_2,183984.0,183984.0,239.61488766860566,90.65952598886096,0.8914125732973648
62866.97134312259,8.092240882346232,PPG_1,PPG_2,183980.0,183980.0,235.53545467424556,100.18512599170874,0.985170106186827
62866.981345892535,8.102243652290781,PPG_1,PPG_2,184022.0,184022.0,277.45602167988545,110.13042181134733,1.0830585751154436
62866.99134866247,8.112246422228054,PPG_1,PPG_2,183982.0,183982.0,237.37658868552535,120.14902104845665,1.1816685468966224
62867.00135143242,8.122249192172603,PPG_1,PPG_2,184024.0,184024.0,279.29715569116524,129.81267818396927,1.2767849334176227
62867.011354202354,8.132251962109876,PPG_1,PPG_2,184081.0,184081.0,336.21772269677604,138.6287708263122,1.3635590049326873
62867.0213569723,8.142254732054425,PPG_1,PPG_2,183986.0,183986.0,241.13828970241593,146.06563907300725,1.4367577975573673
62867.03135974224,8.152257501991699,PPG_1,PPG_2,184050.0,184050.0,305.0588567080558,151.58252755452511,1.4910588235398534
62867.04136251218,8.162260271936248,PPG_1,PPG_2,184037.0,184037.0,291.9794237136957,154.66284341003978,1.5213774192238005
62867.05136528212,8.17226304187352,PPG_1,PPG_2,184046.0,184046.0,300.8999907193356,154.85236096869025,1.523242781902581
62867.06136805206,8.18226581181807,PPG_1,PPG_2,184075.0,184075.0,329.8205577249755,151.80210626019922,1.493220068785603
62867.071370822,8.192268581755343,PPG_1,PPG_2,184070.0,184070.0,324.7411247306154,145.3110097333883,1.4293302145066908
62867.081373591944,8.202271351699892,PPG_1,PPG_2,184054.0,184054.0,308.6616917362553,135.3603812764487,1.3313892580794402
62867.09137636188,8.212274121637165,PPG_1,PPG_2,184053.0,184053.0,307.5822587418661,122.1320219375682,1.201186610958217
62867.101379131826,8.222276891581714,PPG_1,PPG_2,183972.0,183972.0,226.502825747506,106.00477401062066,1.0424511005992634
62867.11138190176,8.232279661518987,PPG_1,PPG_2,184008.0,184008.0,262.4233927531459,87.52962690264937,0.8606059452184563
62867.12138467171,8.242282431463536,PPG_1,PPG_2,183956.0,183956.0,210.3439597587858,67.38814546299008,0.6623595767002753
62867.13138744165,8.252285201408085,PPG_1,PPG_2,183899.0,183899.0,153.26452676442568,46.34039591045963,0.45519309161476146
62867.14139021159,8.262287971345359,PPG_1,PPG_2,183918.0,183918.0,172.18509377006558,25.168266747950454,0.24680237652065257
62867.151392981534,8.272290741289908,PPG_1,PPG_2,183886.0,183886.0,140.10566077570547,4.620569068439749,0.04455774726753446
62867.16139575147,8.28229351122718,PPG_1,PPG_2,183860.0,183860.0,114.02622778131627,-14.634653681709535,-0.14496545124503388
62867.171398521416,8.29229628117173,PPG_1,PPG_2,183820.0,183820.0,73.94679478695616,-32.04806367549788,-0.31636025679242247
62867.18140129135,8.302299051109003,PPG_1,PPG_2,183823.0,183823.0,76.86736179259606,-47.21527415144233,-0.46564641562909653
62867.1914040613,8.312301821053552,PPG_1,PPG_2,183853.0,183853.0,106.78792879823595,-59.88837883368356,-0.5903838630026587
62867.201406831235,8.322304590990825,PPG_1,PPG_2,183829.0,183829.0,82.70849580387585,-69.97228874011633,-0.6896366674899449
62867.21140960118,8.332307360935374,PPG_1,PPG_2,183785.0,183785.0,38.629062809515744,-77.51077498641513,-0.763835654636457
62867.22141237112,8.342310130872647,PPG_1,PPG_2,183781.0,183781.0,34.54962981515564,-82.66808776167913,-0.8145974882221104
62867.23141514106,8.352312900817196,PPG_1,PPG_2,183779.0,183779.0,32.470196820795536,-85.70673203429715,-0.8445059234119343
62867.241417911,8.36231567075447,PPG_1,PPG_2,183821.0,183821.0,74.39076382640633,-86.95786325656945,-0.8568204208384649
62867.25142068094,8.372318440699019,PPG_1,PPG_2,183845.0,183845.0,98.31133083204622,-86.78385981448145,-0.8551077588077719
62867.26142345088,8.382321210636292,PPG_1,PPG_2,183840.0,183840.0,93.23189783768612,-85.54016070884765,-0.8428664134052571
62867.271426220825,8.39232398058084,PPG_1,PPG_2,183779.0,183779.0,32.152464843326015,-83.54778890375725,-0.8232561143177504
62867.28142899076,8.402326750518114,PPG_1,PPG_2,183783.0,183783.0,36.07303184896591,-81.08366950063834,-0.7990025496171106
62867.29143176071,8.412329520462663,PPG_1,PPG_2,183784.0,183784.0,36.99359885460581,-78.38564459886477,-0.7724467254812034
62867.30143453064,8.422332290399936,PPG_1,PPG_2,183794.0,183794.0,46.9141658602457,-75.66243602751015,-0.7456430262793353
62867.31143730059,8.432335060344485,PPG_1,PPG_2,183810.0,183810.0,62.834732865856495,-73.10066539332409,-0.7204283107319522
62867.32144007053,8.442337830289034,PPG_1,PPG_2,183799.0,183799.0,51.75529987149639,-70.8669018648219,-0.6984420676156957
62867.33144284047,8.452340600226307,PPG_1,PPG_2,183787.0,183787.0,39.675866877136286,-69.10630934265423,-0.6811131002800184
62867.341445610415,8.462343370170856,PPG_1,PPG_2,183808.0,183808.0,60.59643388277618,-67.93913744231786,-0.6696249884759612
62867.35144838035,8.47234614010813,PPG_1,PPG_2,183795.0,183795.0,47.51700088841608,-67.45453849080234,-0.6648552309676329
62867.3614511503,8.482348910052679,PPG_1,PPG_2,183822.0,183822.0,74.43756789405597,-67.70121326439596,-0.6672831744243485
62867.371453920234,8.492351679989952,PPG_1,PPG_2,183835.0,183835.0,87.35813489969587,-68.67662144617994,-0.6768838152928419
62867.38145669018,8.5023544499345,PPG_1,PPG_2,183782.0,183782.0,34.278701905335765,-70.31890360749848,-0.6930482903608238
62867.391459460116,8.512357219871774,PPG_1,PPG_2,183829.0,183829.0,81.19926891094656,-72.50577297130114,-0.7145729687265316
62867.40146223006,8.522359989816323,PPG_1,PPG_2,183799.0,183799.0,51.11983591658645,-75.06201173945057,-0.7397332358284925
62867.411465,8.532362759753596,PPG_1,PPG_2,183765.0,183765.0,17.04040292222635,-77.77468841733157,-0.7664332728622614
62867.42146776994,8.542365529698145,PPG_1,PPG_2,183785.0,183785.0,36.960969927866245,-80.413766168052,-0.7924088984330439
62867.43147053988,8.552368299635418,PPG_1,PPG_2,183755.0,183755.0,6.8815369335061405,-82.75371676067769,-0.8154403079591872
62867.441473309824,8.562371069579967,PPG_1,PPG_2,183786.0,183786.0,37.802103939146036,-84.59071053868813,-0.833521269211818
62867.45147607976,8.57237383951724,PPG_1,PPG_2,183794.0,183794.0,45.72267094478593,-85.75226143186414,-0.8449540551819591
62867.461478849706,8.58237660946179,PPG_1,PPG_2,183783.0,183783.0,34.643237950396724,-86.10036356091304,-0.8483803167091528
62867.47148161964,8.592379379399063,PPG_1,PPG_2,183761.0,183761.0,12.56380495603662,-85.53191262504573,-0.8427852300689737
62867.48148438959,8.602382149343612,PPG_1,PPG_2,183785.0,183785.0,36.484371961676516,-83.97918090334962,-0.8275021722645401
62867.491487159525,8.612384919280885,PPG_1,PPG_2,183753.0,183753.0,4.404938967316411,-81.40970622787994,-0.8022116282230135
62867.50148992947,8.622387689225434,PPG_1,PPG_2,183814.0,183814.0,65.32550597295631,-77.82335415265345,-0.7669122746341882
62867.51149269941,8.632390459162707,PPG_1,PPG_2,183786.0,183786.0,37.2460729785962,-73.24598976760491,-0.721858693573684
62867.52149546935,8.642393229107256,PPG_1,PPG_2,183810.0,183810.0,61.1666399842361,-67.7221497270758,-0.6674892455471867
62867.531498239296,8.652395999051805,PPG_1,PPG_2,183807.0,183807.0,58.087206989875995,-61.3105668255282,-0.604382019274233
62867.54150100923,8.662398768989078,PPG_1,PPG_2,183788.0,183788.0,39.00777399548679,-54.08508938675633,-0.5332638809516925
62867.55150377918,8.672401538933627,PPG_1,PPG_2,183814.0,183814.0,64.92834100112668,-46.140639208259735,-0.455069116456395
62867.561506549115,8.6824043088709,PPG_1,PPG_2,183816.0,183816.0,66.84890800676658,-37.60145344237515,-0.3710205536304524
62867.57150931906,8.69240707881545,PPG_1,PPG_2,183777.0,183777.0,27.769475012406474,-28.62817655423309,-0.2826993662286393
62867.581512089,8.702409848752723,PPG_1,PPG_2,183815.0,183815.0,65.69004201804637,-19.42020857202066,-0.19206818701900435
62867.59151485894,8.712412618697272,PPG_1,PPG_2,183840.0,183840.0,90.61060902368627,-10.208869113966536,-0.10140382341604837
62867.60151762888,8.722415388634545,PPG_1,PPG_2,183858.0,183858.0,108.53117602932616,-1.23841588728898,-0.01311042844017675
62867.61152039882,8.732418158579094,PPG_1,PPG_2,183903.0,183903.0,153.45174303493695,7.262348752566069,0.0705599671326493
62867.62152316876,8.742420928516367,PPG_1,PPG_2,183866.0,183866.0,116.37231004057685,15.109610625445427,0.14779813721314305
62867.631525938705,8.752423698460916,PPG_1,PPG_2,183873.0,183873.0,123.29287704621674,22.186376575147687,0.2174525543713142
62867.64152870864,8.76242646839819,PPG_1,PPG_2,183883.0,183883.0,133.21344405185664,28.452338684522392,0.2791264802529583
62867.65153147859,8.772429238342738,PPG_1,PPG_2,183890.0,183890.0,140.13401105749654,33.94292328309032,0.3331686052559719
62867.66153424853,8.782432008280011,PPG_1,PPG_2,183874.0,183874.0,124.05457806313643,38.760430927350164,0.38058584209846935
62867.67153701847,8.79243477822456,PPG_1,PPG_2,183911.0,183911.0,160.97514506877633,43.05910284357637,0.4228963394368097
62867.681539788406,8.802437548161834,PPG_1,PPG_2,183869.0,183869.0,118.89571207441622,47.02532966745344,0.46193468261472487
62867.69154255835,8.812440318106383,PPG_1,PPG_2,183867.0,183867.0,116.81627908002702,50.854785170487496,0.49962682800893715
62867.70154532829,8.822443088043656,PPG_1,PPG_2,183871.0,183871.0,120.73684608566691,54.73013583191662,0.537770705243811
62867.71154809823,8.832445857988205,PPG_1,PPG_2,183891.0,183891.0,140.6574130913068,58.80503975289323,0.5778787234555923
62867.72155086818,8.842448627932754,PPG_1,PPG_2,183911.0,183911.0,160.5779800969467,63.19891560401632,0.6211262836618499
62867.731553638114,8.852451397870027,PPG_1,PPG_2,183920.0,183920.0,169.4985471025866,68.00197782419157,0.6684013386655856
62867.74155640806,8.862454167814576,PPG_1,PPG_2,183914.0,183914.0,163.4191141082265,73.2854806227709,0.7204052215980278
62867.751559178,8.87245693775185,PPG_1,PPG_2,183941.0,183941.0,190.3396811138664,79.11121282855082,0.7777461007788998
62867.76156194794,8.882459707696398,PPG_1,PPG_2,183944.0,183944.0,193.26024811947718,85.53596403986653,0.8409829386496334
62867.77156471788,8.892462477633671,PPG_1,PPG_2,183923.0,183923.0,172.18081512511708,92.60825044483518,0.9105932650353004
62867.78156748782,8.90246524757822,PPG_1,PPG_2,183943.0,183943.0,192.10138213075697,100.35611145439151,0.9868530631802244
62867.79157025776,8.912468017515494,PPG_1,PPG_2,183930.0,183930.0,179.02194913639687,108.76757117776764,1.0696444580978204
62867.801573027704,8.922470787460043,PPG_1,PPG_2,183972.0,183972.0,220.94251614203677,117.76768482197645,1.1582297913842834
62867.81157579764,8.932473557397316,PPG_1,PPG_2,183902.0,183902.0,150.86308314767666,127.19607841641539,1.2510305516787663
62867.821578567586,8.942476327341865,PPG_1,PPG_2,183929.0,183929.0,177.78365015331656,136.78895527843426,1.3454502698725188
62867.83158133752,8.952479097279138,PPG_1,PPG_2,183977.0,183977.0,225.70421715895645,146.1717452317432,1.4378021676405628
62867.84158410747,8.962481867223687,PPG_1,PPG_2,183988.0,183988.0,236.62478416456725,154.86849582436832,1.5234015922936799
62867.851586877405,8.97248463716096,PPG_1,PPG_2,183968.0,183968.0,216.54535117020714,162.32815070331017,1.5968246666876638
62867.86158964735,8.98248740710551,PPG_1,PPG_2,183975.0,183975.0,223.46591817584704,167.9623183269347,1.6522800349709001
62867.87159241729,8.992490177042782,PPG_1,PPG_2,183990.0,183990.0,238.38648518148693,171.1902489889002,1.6840515575115962
62867.88159518723,9.002492946987331,PPG_1,PPG_2,184013.0,184013.0,261.3070521871268,171.48978907387283,1.6869998378677036
62867.89159795717,9.012495716924604,PPG_1,PPG_2,184010.0,184010.0,258.2276191927667,168.4516335838707,1.6570962136139016
62867.90160072711,9.022498486869154,PPG_1,PPG_2,183997.0,183997.0,245.14818619840662,161.83022469614806,1.5919237350950017
62867.91160349706,9.032501256813704,PPG_1,PPG_2,184038.0,184038.0,286.0687532040174,151.58307858742631,1.4910642471861688
62867.921606266995,9.042504026750976,PPG_1,PPG_2,183992.0,183992.0,239.9893202096573,137.89108693138286,1.3562982106498926
62867.93160903694,9.052506796695525,PPG_1,PPG_2,183945.0,183945.0,192.9098872152972,121.1534536731297,1.191554866374123
62867.94161180688,9.062509566632798,PPG_1,PPG_2,183919.0,183919.0,166.8304542209371,101.95454855423486,1.0025859848770724
62867.95161457682,9.072512336577349,PPG_1,PPG_2,183863.0,183863.0,110.751021226577,81.00739528802075,0.7964096379056974
62867.96161734676,9.08251510651462,PPG_1,PPG_2,183849.0,183849.0,96.67158823221689,59.085069343649174,0.5806349680551424
62867.9716201167,9.09251787645917,PPG_1,PPG_2,183837.0,183837.0,84.59215523785679,36.952742743584686,0.3627933267406321
62867.98162288664,9.102520646396442,PPG_1,PPG_2,183823.0,183823.0,70.51272224349668,15.309922994315086,0.14976974986818298
62867.991625656585,9.112523416340991,PPG_1,PPG_2,183768.0,183768.0,15.433289249107474,-5.252767215832183,-0.052622446224171865
62868.00162842652,9.122526186278265,PPG_1,PPG_2,183769.0,183769.0,16.35385625474737,-24.281251349565153,-0.2399139267053712
62868.01163119647,9.132528956222814,PPG_1,PPG_2,183767.0,183767.0,14.274423260387266,-41.46905902736995,-0.4090881984748936
62868.0216339664,9.142531726160088,PPG_1,PPG_2,183761.0,183761.0,8.194990266027162,-56.6512107541647,-0.558521419419738
62868.03163673635,9.152534496104636,PPG_1,PPG_2,183765.0,183765.0,12.115557271667058,-69.78405511553909,-0.6877839421769014
62868.041639506286,9.162537266041909,PPG_1,PPG_2,183713.0,183713.0,-39.96387572269305,-80.91788216416552,-0.7973707561713057
62868.05164227623,9.172540035986458,PPG_1,PPG_2,183737.0,183737.0,-16.04330871705315,-90.16889918429592,-0.8884256537385504
62868.06164504617,9.182542805923733,PPG_1,PPG_2,183719.0,183719.0,-34.12274171144236,-97.69396748849387,-0.9624925722334863
62868.07164781611,9.19254557586828,PPG_1,PPG_2,183687.0,183687.0,-66.20217470580246,-103.66920463686081,-1.0213049822961453
62868.08165058605,9.202548345805551,PPG_1,PPG_2,183728.0,183728.0,-25.281607700162567,-108.27309725146989,-1.0666196725103803
62868.091653355994,9.212551115750102,PPG_1,PPG_2,183699.0,183699.0,-54.36104069452267,-111.67468296805842,-1.100100428011769
62868.10165612593,9.222553885687375,PPG_1,PPG_2,183665.0,183665.0,-88.44047368888278,-114.02758147899944,-1.1232592798908283
62868.11165889587,9.232556655631925,PPG_1,PPG_2,183710.0,183710.0,-43.51990668324288,-115.47020952466283,-1.1374586212864475
62868.12166166582,9.242559425576474,PPG_1,PPG_2,183657.0,183657.0,-96.59933967760298,-116.13045293076604,-1.14395719280365
62868.13166443576,9.252562195513748,PPG_1,PPG_2,183700.0,183700.0,-53.67877267196309,-116.13199588373676,-1.143972379612235
62868.1416672057,9.262564965458296,PPG_1,PPG_2,183664.0,183664.0,-89.7582056663523,-115.6004821587717,-1.1387408545078095
62868.15166997564,9.272567735395567,PPG_1,PPG_2,183652.0,183652.0,-101.8376386607124,-114.66824246176868,-1.1295651076754325
62868.161672745584,9.282570505340118,PPG_1,PPG_2,183685.0,183685.0,-68.9170716550725,-113.47541565307206,-1.1178244825479473
62868.17167551552,9.292573275277393,PPG_1,PPG_2,183679.0,183679.0,-74.99650464943261,-112.16473236239213,-1.1049238325419788
62868.181678285466,9.30257604522194,PPG_1,PPG_2,183691.0,183691.0,-63.07593764379271,-110.86931391671025,-1.0921734296812327
62868.1916810554,9.312578815159211,PPG_1,PPG_2,183709.0,183709.0,-45.15537063815282,-109.69653043127636,-1.0806300847817079
62868.20168382535,9.322581585103762,PPG_1,PPG_2,183707.0,183707.0,-47.23480363251292,-108.71318504469161,-1.07095132046273
62868.211686595285,9.332584355041035,PPG_1,PPG_2,183683.0,183683.0,-71.31423662690213,-107.93738088177923,-1.0633153201794623
62868.22168936523,9.342587124985585,PPG_1,PPG_2,183680.0,183680.0,-74.39366962126223,-107.3403800314264,-1.0574392255664973
62868.23169213517,9.352589894922858,PPG_1,PPG_2,183666.0,183666.0,-88.47310261562234,-106.85751518899724,-1.052686536357242
62868.24169490511,9.362592664867408,PPG_1,PPG_2,183673.0,183673.0,-81.55253560998244,-106.40336234102605,-1.0482164504237814
62868.25169767505,9.37259543480468,PPG_1,PPG_2,183681.0,183681.0,-73.63196860434255,-105.88573613549451,-1.0431216158752952
62868.26170044499,9.382598204749227,PPG_1,PPG_2,183678.0,183678.0,-76.71140159870265,-105.21531911223269,-1.0365229085928842
62868.27170321493,9.392600974686502,PPG_1,PPG_2,183688.0,183688.0,-66.79083459306275,-104.31068237217042,-1.0276188491232394
62868.281705984875,9.402603744631053,PPG_1,PPG_2,183688.0,183688.0,-66.87026758742286,-103.10029286639305,-1.0157053598036108
62868.29170875481,9.412606514568324,PPG_1,PPG_2,183671.0,183671.0,-83.94970058181207,-101.52342037340063,-1.0001846918582817
62868.30171152476,9.422609284512871,PPG_1,PPG_2,183695.0,183695.0,-60.02913357617217,-99.53104335145144,-0.9805743414228485
62868.3117142947,9.432612054457422,PPG_1,PPG_2,183686.0,183686.0,-69.10856657053228,-97.08674438346098,-0.9565158631312416
62868.32171706464,9.442614824394695,PPG_1,PPG_2,183689.0,183689.0,-66.18799956489238,-94.16742811633462,-0.9277819365703937
62868.33171983458,9.452617594339245,PPG_1,PPG_2,183689.0,183689.0,-66.26743255925248,-90.76423648394652,-0.8942853745367811
62868.34172260452,9.462620364276518,PPG_1,PPG_2,183695.0,183695.0,-60.34686555361259,-86.88386187019927,-0.8560920480940294
62868.351725374465,9.472623134221068,PPG_1,PPG_2,183676.0,183676.0,-79.42629854797269,-82.5496689748908,-0.8134319287514505
62868.3617281444,9.48262590415834,PPG_1,PPG_2,183700.0,183700.0,-55.5057315423619,-77.80132537560343,-0.7666954521990488
62868.37173091435,9.492628674102887,PPG_1,PPG_2,183697.0,183697.0,-58.585164536722004,-72.69120948661481,-0.7163981629587303
62868.38173368429,9.502631444040162,PPG_1,PPG_2,183725.0,183725.0,-30.66459753108211,-67.27661439939766,-0.6631039791990603
62868.39173645423,9.512634213984713,PPG_1,PPG_2,183737.0,183737.0,-18.744030525442213,-61.60913870733444,-0.6073207699062088
62868.401739224166,9.522636983921984,PPG_1,PPG_2,183732.0,183732.0,-23.823463519802317,-55.725230520392444,-0.5494072825467915
62868.41174199411,9.532639753866532,PPG_1,PPG_2,183731.0,183731.0,-24.90289651416242,-49.64254125715715,-0.4895372545712661
62868.42174476405,9.542642523803806,PPG_1,PPG_2,183715.0,183715.0,-40.982329508522525,-43.36444904093253,-0.4277439358018676
62868.43174753399,9.552645293748355,PPG_1,PPG_2,183718.0,183718.0,-38.06176250288263,-36.890932513797736,-0.36402711601919086
62868.44175030393,9.562648063685629,PPG_1,PPG_2,183731.0,183731.0,-25.141195497271838,-30.23066708210381,-0.2984721845631246
62868.451753073874,9.572650833630178,PPG_1,PPG_2,183749.0,183749.0,-7.220628491631942,-23.408974206472344,-0.23132837273419876
62868.46175584381,9.58265360356745,PPG_1,PPG_2,183747.0,183747.0,-9.300061485992046,-16.469066682453782,-0.16302101070572056
62868.47175861376,9.592656373512,PPG_1,PPG_2,183789.0,183789.0,32.62050551964785,-9.467626159856325,-0.09410799841517774
62868.48176138369,9.602659143449271,PPG_1,PPG_2,183754.0,183754.0,-2.4589274747122545,-2.4679442193399987,-0.025212295303821606
62868.49176415364,9.612661913393822,PPG_1,PPG_2,183757.0,183757.0,0.4616395309276413,4.466159373445269,0.04303794042570101
62868.50176692358,9.622664683338373,PPG_1,PPG_2,183788.0,183788.0,31.382206536567537,11.274838940573412,0.11005366628632708
62868.51176969352,9.632667453275644,PPG_1,PPG_2,183809.0,183809.0,52.30277354217833,17.906663179213997,0.17532865988101803
62868.521772463464,9.642670223220192,PPG_1,PPG_2,183765.0,183765.0,8.223340547818225,24.32328119423849,0.23848544521768109
62868.5317752334,9.652672993157466,PPG_1,PPG_2,183804.0,183804.0,47.14390755345812,30.50239530545561,0.29930455313077625
62868.541778003346,9.662675763102015,PPG_1,PPG_2,183808.0,183808.0,51.06447455909802,36.43829385326078,0.3577297655224337
62868.55178077328,9.672678533039289,PPG_1,PPG_2,183809.0,183809.0,51.98504156473791,42.14098172592422,0.41385955741163055
62868.56178354323,9.682681302983838,PPG_1,PPG_2,183781.0,183781.0,23.905608570377808,47.63421779990586,0.46792778006657504
62868.571786313165,9.69268407292111,PPG_1,PPG_2,183812.0,183812.0,54.826175576017704,52.95281849941444,0.520277120775928
62868.58178908311,9.70268684286566,PPG_1,PPG_2,183841.0,183841.0,83.7467425816576,58.14145376347639,0.5713472519252808
