timestamp,time_from_segment_start_sec,selected_channel_name,backup_channel_name,selected_channel_raw,selected_channel_clipped,selected_channel_detrended,selected_channel_filtered,selected_channel_filtered_z
63856.46400421514,0.0,PPG_1,PPG_2,126615.0,126615.0,-70.88745057053166,-7.2768369427974,-0.3568356411859428
63856.47405486471,0.0100506495728041,PPG_1,PPG_2,126613.0,126613.0,-72.85851937654661,-9.45879067253868,-0.4640164521508473
63856.484105514275,0.0201012991383322,PPG_1,PPG_2,126629.0,126629.0,-56.82958818257612,-11.54904578746742,-0.5666928908341582
63856.49415616385,0.0301519487111363,PPG_1,PPG_2,126600.0,126600.0,-85.80065698860562,-13.438503745741471,-0.6595058746713168
63856.50420681341,0.0402025982766645,PPG_1,PPG_2,126579.0,126579.0,-106.77172579463513,-15.035393769793952,-0.737947486638957
63856.51425746298,0.0502532478421926,PPG_1,PPG_2,126627.0,126627.0,-58.742794600650086,-16.27376682784145,-0.7987782122540036
63856.52430811255,0.0603038974149967,PPG_1,PPG_2,126582.0,126582.0,-103.7138634066796,-17.11835980561159,-0.8402658749201597
63856.53435876212,0.0703545469805249,PPG_1,PPG_2,126615.0,126615.0,-70.6849322127091,-17.563965795127114,-0.8621547035768313
63856.54440941169,0.080405196553329,PPG_1,PPG_2,126602.0,126602.0,-83.6560010187386,-17.629906481289815,-0.8653938081106102
63856.554460061256,0.0904558461188571,PPG_1,PPG_2,126640.0,126640.0,-45.62706982475356,-17.35130620898612,-0.8517085485592567
63856.56451071082,0.1005064956843853,PPG_1,PPG_2,126602.0,126602.0,-83.59813863078307,-16.76990633689673,-0.8231493225151639
63856.574561360394,0.1105571452571894,PPG_1,PPG_2,126618.0,126618.0,-67.56920743681258,-15.928027048185632,-0.7817949602898423
63856.58461200996,0.1206077948227175,PPG_1,PPG_2,126595.0,126595.0,-90.54027624282753,-14.867616252592569,-0.7297060055707703
63856.59466265953,0.1306584443955216,PPG_1,PPG_2,126611.0,126611.0,-74.51134504885704,-13.632958827924517,-0.6690577973910976
63856.6047133091,0.1407090939610498,PPG_1,PPG_2,126593.0,126593.0,-92.48241385488654,-12.273673443916996,-0.6022876785728848
63856.61476395866,0.1507597435265779,PPG_1,PPG_2,126625.0,126625.0,-60.45348266091605,-10.844965436759088,-0.5321074172997028
63856.62481460824,0.160810393099382,PPG_1,PPG_2,126619.0,126619.0,-66.424551466931,-9.403839005614884,-0.4613171445787
63856.6348652578,0.1708610426649102,PPG_1,PPG_2,126640.0,126640.0,-45.395620272960514,-8.002487843044664,-0.3924806921811978
63856.64491590737,0.1809116922304383,PPG_1,PPG_2,126600.0,126600.0,-85.36668907899002,-6.682062419002469,-0.3276194323669023
63856.65496655694,0.1909623418032424,PPG_1,PPG_2,126644.0,126644.0,-41.33775788501953,-5.469540056437879,-0.26805853134442076
63856.665017206506,0.2010129913687706,PPG_1,PPG_2,126619.0,126619.0,-66.30882669103448,-4.37817736096362,-0.21444917328913105
63856.67506785608,0.2110636409415747,PPG_1,PPG_2,126609.0,126609.0,-76.27989549706399,-3.4107343740248486,-0.16692693553998225
63856.68511850565,0.2211142905071028,PPG_1,PPG_2,126608.0,126608.0,-77.2509643030935,-2.564160701826945,-0.1253419782189728
63856.69516915521,0.231164940072631,PPG_1,PPG_2,126651.0,126651.0,-34.22203310910845,-1.8332543927911664,-0.08943877373117243
63856.70521980478,0.2412155896454351,PPG_1,PPG_2,126627.0,126627.0,-58.19310191513796,-1.2112791315374636,-0.05888642425069802
63856.71527045435,0.2512662392109632,PPG_1,PPG_2,126629.0,126629.0,-56.164170721167466,-0.6888493612743637,-0.03322389727509291
63856.72532110392,0.2613168887837673,PPG_1,PPG_2,126618.0,126618.0,-67.13523952719697,-0.25404964923294016,-0.011865889032895913
63856.735371753486,0.2713675383492955,PPG_1,PPG_2,126648.0,126648.0,-37.10630833321193,0.10547117372468051,0.005794308265575986
63856.74542240305,0.2814181879148236,PPG_1,PPG_2,126624.0,126624.0,-61.077377139241435,0.39959732701125356,0.020242222172064128
63856.755473052624,0.2914688374876277,PPG_1,PPG_2,126619.0,126619.0,-66.04844594527094,0.6325010981484429,0.031682801652284535
63856.76552370219,0.3015194870531559,PPG_1,PPG_2,126619.0,126619.0,-66.01951475130045,0.7993090658491201,0.03987665700763439
63856.77557435176,0.31157013662596,PPG_1,PPG_2,126638.0,126638.0,-46.990583557315404,0.88447910555111,0.04406033597421577
63856.78562500133,0.3216207861914881,PPG_1,PPG_2,126644.0,126644.0,-40.96165236334491,0.8637432449238907,0.04304175967363394
63856.795675650894,0.3316714357570163,PPG_1,PPG_2,126600.0,126600.0,-84.93272116937442,0.7090151435652072,0.035441285311306366
63856.80572630047,0.3417220853298204,PPG_1,PPG_2,126633.0,126633.0,-51.90378997538937,0.3946186822414707,0.019997663739564835
63856.81577695003,0.3517727348953485,PPG_1,PPG_2,126657.0,126657.0,-27.87485878141888,-0.09502537666997185,-0.004054380354192653
63856.825827599605,0.3618233844681526,PPG_1,PPG_2,126641.0,126641.0,-43.84592758744839,-0.7561496262758494,-0.03652978634262483
63856.83587824917,0.3718740340336808,PPG_1,PPG_2,126634.0,126634.0,-50.81699639347789,-1.5580388209928515,-0.07591977570044384
63856.845928898736,0.3819246835992089,PPG_1,PPG_2,126646.0,126646.0,-38.78806519949285,-2.4414600421471633,-0.1193147394048999
63856.85597954831,0.391975333172013,PPG_1,PPG_2,126613.0,126613.0,-71.75913400552236,-3.3245305485120022,-0.1626924754775136
63856.866030197874,0.4020259827375412,PPG_1,PPG_2,126616.0,126616.0,-68.73020281155186,-4.114122737908927,-0.20147841765290134
63856.87608084745,0.4120766323103453,PPG_1,PPG_2,126622.0,126622.0,-62.70127161758137,-4.719011959420362,-0.23119147546059954
63856.88613149701,0.4221272818758734,PPG_1,PPG_2,126638.0,126638.0,-46.672340423596324,-5.060596714444451,-0.24797062643786208
63856.89618214658,0.4321779314414016,PPG_1,PPG_2,126627.0,126627.0,-57.64340922962583,-5.079222307655571,-0.2488855432657762
63856.90623279615,0.4422285810142057,PPG_1,PPG_2,126634.0,126634.0,-50.61447803565534,-4.73733285023654,-0.23209142485389408
63856.91628344572,0.4522792305797338,PPG_1,PPG_2,126634.0,126634.0,-50.58554684167029,-4.021665826439069,-0.19693679671219294
63856.92633409528,0.462329880145262,PPG_1,PPG_2,126609.0,126609.0,-75.5566156476998,-2.945425167424618,-0.14407025556869685
63856.936384744855,0.4723805297180661,PPG_1,PPG_2,126625.0,126625.0,-59.52768445372931,-1.5494721637757642,-0.0754989687624825
63856.94643539442,0.4824311792835942,PPG_1,PPG_2,126645.0,126645.0,-39.498753259758814,0.09985477008930312,0.005518422169486605
63856.95648604399,0.4924818288563983,PPG_1,PPG_2,126674.0,126674.0,-10.46982206577377,1.9176371189416053,0.09481059351666744
63856.96653669356,0.5025324784219265,PPG_1,PPG_2,126615.0,126615.0,-69.44089087180328,3.8094193984006015,0.1877377514658385
63856.97658734312,0.5125831279874546,PPG_1,PPG_2,126621.0,126621.0,-63.41195967783278,5.678053999594512,0.2795278610465729
63856.9866379927,0.5226337775602587,PPG_1,PPG_2,126657.0,126657.0,-27.38302848386229,7.427997266177257,0.3654876758209916
63856.99668864226,0.5326844271257869,PPG_1,PPG_2,126645.0,126645.0,-39.354097289877245,8.970783585184277,0.4412716333645547
63857.006739291835,0.542735076698591,PPG_1,PPG_2,126646.0,126646.0,-38.32516609590675,10.23349397192854,0.5032978447458134
63857.0167899414,0.5527857262641191,PPG_1,PPG_2,126644.0,126644.0,-40.29623490193626,11.168262663521547,0.5492150725329585
63857.02684059097,0.5628363758296473,PPG_1,PPG_2,126661.0,126661.0,-23.267303707951214,11.76077846402599,0.5783203295060821
63857.03689124054,0.5728870254024514,PPG_1,PPG_2,126661.0,126661.0,-23.23837251398072,12.037018385480255,0.5918896451147411
63857.046941890105,0.5829376749679795,PPG_1,PPG_2,126660.0,126660.0,-24.209441320010228,12.066840471176901,0.5933545502985967
63857.05699253968,0.5929883245407837,PPG_1,PPG_2,126673.0,126673.0,-11.180510126039735,11.962013816379343,0.5882053091763881
63857.06704318924,0.6030389741063118,PPG_1,PPG_2,126655.0,126655.0,-29.15157893205469,11.8665698598291,0.5835169601406975
63857.07709383881,0.61308962367184,PPG_1,PPG_2,126646.0,126646.0,-38.1226477380842,11.93876529399958,0.5870633071951206
63857.08714448838,0.623140273244644,PPG_1,PPG_2,126632.0,126632.0,-52.093716544113704,12.32634813884012,0.6061019527263525
63857.09719513795,0.6331909228101722,PPG_1,PPG_2,126638.0,126638.0,-46.06478535014321,13.139848144454385,0.6460622823764363
63857.10724578751,0.6432415723757003,PPG_1,PPG_2,126631.0,126631.0,-53.035854156158166,14.430286835691946,0.7094505492961622
63857.117296437085,0.6532922219485044,PPG_1,PPG_2,126658.0,126658.0,-26.006922962187673,16.176623191202275,0.7952331872365582
63857.12734708665,0.6633428715140326,PPG_1,PPG_2,126649.0,126649.0,-34.97799176821718,18.285203993557015,0.898809810929769
63857.137397736224,0.6733935210868367,PPG_1,PPG_2,126674.0,126674.0,-9.949060574232135,20.600122399135863,1.0125220444412213
63857.14744838579,0.6834441706523648,PPG_1,PPG_2,126658.0,126658.0,-25.920129380261642,22.921140554476356,1.1265339067290425
63857.157499035355,0.693494820217893,PPG_1,PPG_2,126662.0,126662.0,-21.89119818629115,25.025498031235138,1.2299030743904529
63857.16754968493,0.7035454697906971,PPG_1,PPG_2,126675.0,126675.0,-8.862266992320656,26.691177777787185,1.3117237397922046
63857.17760033449,0.7135961193562252,PPG_1,PPG_2,126692.0,126692.0,8.166664201664389,27.720287017011355,1.362275115528573
63857.187650984066,0.7236467689290293,PPG_1,PPG_2,126677.0,126677.0,-6.804404604365118,27.96039939097807,1.374069792296312
63857.19770163363,0.7336974184945575,PPG_1,PPG_2,126662.0,126662.0,-21.775473410394625,27.320399681914683,1.3426320551437234
63857.2077522832,0.7437480680600856,PPG_1,PPG_2,126680.0,126680.0,-3.7465422164241318,25.77862357646136,1.2668977207917327
63857.21780293277,0.7537987176328897,PPG_1,PPG_2,126693.0,126693.0,9.282388977560913,23.383741684007145,1.1492575619287655
63857.227853582335,0.7638493671984179,PPG_1,PPG_2,126635.0,126635.0,-48.688679828468594,20.249181483645096,0.9952833049526774
63857.23790423191,0.773900016771222,PPG_1,PPG_2,126666.0,126666.0,-17.6597486344981,16.541196873750664,0.8131415885098663
63857.24795488147,0.7839506663367501,PPG_1,PPG_2,126668.0,126668.0,-15.630817440513056,12.462238757241137,0.6127771019214138
63857.25800553104,0.7940013159022783,PPG_1,PPG_2,126654.0,126654.0,-29.601886246542563,8.232412149960727,0.40500173078052315
63857.26805618061,0.8040519654750824,PPG_1,PPG_2,126612.0,126612.0,-71.57295505257207,4.070211290613889,0.2005482369126616
63857.27810683018,0.8141026150406105,PPG_1,PPG_2,126635.0,126635.0,-48.54402385860158,0.1737117616648898,0.009146387393771232
63857.28815747975,0.8241532646134146,PPG_1,PPG_2,126663.0,126663.0,-20.51509266461653,-3.2939930253130174,-0.1611924269399514
63857.29820812931,0.8342039141789428,PPG_1,PPG_2,126640.0,126640.0,-43.48616147064604,-6.212114114926835,-0.304534873030999
63857.30825877888,0.8442545637444709,PPG_1,PPG_2,126626.0,126626.0,-57.457230276675546,-8.50407692045296,-0.4171194933413553
63857.318309428454,0.854305213317275,PPG_1,PPG_2,126639.0,126639.0,-44.42829908270505,-10.137675144874446,-0.497364266682669
63857.32836007802,0.8643558628828032,PPG_1,PPG_2,126622.0,126622.0,-61.39936788872001,-11.124184770286652,-0.5458230860586882
63857.33841072759,0.8744065124556073,PPG_1,PPG_2,126649.0,126649.0,-34.370436694749515,-11.514944030750506,-0.5650177618474953
63857.34846137716,0.8844571620211354,PPG_1,PPG_2,126633.0,126633.0,-50.34150550077902,-11.394905121324035,-0.5591212721629054
63857.35851202672,0.8945078115866636,PPG_1,PPG_2,126629.0,126629.0,-54.31257430679398,-10.874362375948795,-0.5335514386551017
63857.368562676296,0.9045584611594676,PPG_1,PPG_2,126632.0,126632.0,-51.28364311282348,-10.080119903623547,-0.49453706766902006
63857.37861332586,0.9146091107249958,PPG_1,PPG_2,126629.0,126629.0,-54.25471191885299,-9.145924091002112,-0.4486479805486182
63857.38866397543,0.924659760290524,PPG_1,PPG_2,126644.0,126644.0,-39.2257807248825,-8.201081556280815,-0.40223591061092423
63857.398714625,0.934710409863328,PPG_1,PPG_2,126670.0,126670.0,-13.196849530897452,-7.3572975673405425,-0.36078798667875916
63857.408765274566,0.9447610594288562,PPG_1,PPG_2,126639.0,126639.0,-44.16791833692696,-6.696319615391926,-0.3283197670487423
63857.41881592414,0.9548117090016603,PPG_1,PPG_2,126655.0,126655.0,-28.138987142956466,-6.262599826360481,-0.3070148062302424
63857.428866573704,0.9648623585671884,PPG_1,PPG_2,126636.0,126636.0,-47.11005594898597,-6.0637163023759575,-0.2972453518657143
63857.43891722327,0.9749130081327166,PPG_1,PPG_2,126636.0,126636.0,-47.08112475500093,-6.077889963554308,-0.29794158317379876
63857.44896787284,0.9849636577055207,PPG_1,PPG_2,126621.0,126621.0,-62.052193561030435,-6.265467075481608,-0.3071556497696135
63857.45901852241,0.9950143072710488,PPG_1,PPG_2,126643.0,126643.0,-40.02326236705994,-6.580352003532361,-0.32262326555315585
63857.46906917198,1.005064956843853,PPG_1,PPG_2,126640.0,126640.0,-42.9943311730749,-6.977957449834496,-0.34215423616809126
63857.479119821546,1.0151156064093811,PPG_1,PPG_2,126650.0,126650.0,-32.965399979104404,-7.418605996902716,-0.36379954788186386
63857.48917047111,1.0251662559749093,PPG_1,PPG_2,126645.0,126645.0,-37.93646878513391,-7.868074261493713,-0.38587809723202054
63857.499221120685,1.0352169055477134,PPG_1,PPG_2,126653.0,126653.0,-29.90753759116342,-8.298057013451201,-0.40699948923385254
63857.50927177025,1.0452675551132415,PPG_1,PPG_2,126617.0,126617.0,-65.87860639717837,-8.688503746393854,-0.42617881320620515
63857.51932241982,1.0553182046860456,PPG_1,PPG_2,126648.0,126648.0,-34.84967520320788,-9.031782480292627,-0.44304117494411366
63857.52937306939,1.0653688542515738,PPG_1,PPG_2,126608.0,126608.0,-74.82074400923739,-9.336433065817053,-0.45800606460807214
63857.539423718954,1.075419503817102,PPG_1,PPG_2,126648.0,126648.0,-34.791812815266894,-9.627381580579229,-0.472297888186266
63857.54947436853,1.085470153389906,PPG_1,PPG_2,126652.0,126652.0,-30.76288162128185,-9.940704633025124,-0.4876887823181651
63857.55952501809,1.0955208029554342,PPG_1,PPG_2,126632.0,126632.0,-50.733950427311356,-10.31384263823812,-0.506017875852746
63857.56957566766,1.1055714525209623,PPG_1,PPG_2,126651.0,126651.0,-31.705019233340863,-10.774542043284253,-0.5286481155186203
63857.57962631723,1.1156221020937664,PPG_1,PPG_2,126641.0,126641.0,-41.67608803935582,-11.331603481397178,-0.5560118015035191
63857.5896769668,1.1256727516592946,PPG_1,PPG_2,126628.0,126628.0,-54.647156845385325,-11.968708593197016,-0.5873073517353243
63857.59972761637,1.1357234012320987,PPG_1,PPG_2,126672.0,126672.0,-10.618225651414832,-12.641522139321598,-0.6203569533464256
63857.609778265934,1.1457740507976268,PPG_1,PPG_2,126646.0,126646.0,-36.58929445744434,-13.278594863568351,-0.6516509126534749
63857.6198289155,1.155824700363155,PPG_1,PPG_2,126614.0,126614.0,-68.5603632634593,-13.787672697402941,-0.6766575726623093
63857.62987956507,1.165875349935959,PPG_1,PPG_2,126634.0,126634.0,-48.5314320694888,-14.068108865786966,-0.6904330141584286
63857.63993021464,1.1759259995014872,PPG_1,PPG_2,126626.0,126626.0,-56.50250087551831,-14.026303219498146,-0.6883794586631528
63857.64998086421,1.1859766490742911,PPG_1,PPG_2,126651.0,126651.0,-31.473569681547815,-13.589259916644055,-0.666911241904846
63857.66003151378,1.1960272986398195,PPG_1,PPG_2,126628.0,126628.0,-54.44463848756277,-12.71405654772473,-0.6239199513190862
63857.67008216334,1.2060779482053476,PPG_1,PPG_2,126611.0,126611.0,-71.41570729359228,-11.393873620189442,-0.5590706032937127
63857.680132812915,1.2161285977781515,PPG_1,PPG_2,126637.0,126637.0,-45.386776099621784,-9.660384768841691,-0.4739190538572803
63857.69018346248,1.22617924734368,PPG_1,PPG_2,126648.0,126648.0,-34.35784490565129,-7.580131054981149,-0.371733898862832
63857.70023411205,1.236229896916484,PPG_1,PPG_2,126688.0,126688.0,5.671086288333754,-5.243907304157218,-0.25697511511975496
63857.71028476162,1.246280546482012,PPG_1,PPG_2,126635.0,126635.0,-47.29998251769575,-2.7530743820899937,-0.13462169903842347
63857.720335411184,1.2563311960475405,PPG_1,PPG_2,126670.0,126670.0,-12.27105132372526,-0.20924099862877335,-0.009664821501291053
63857.73038606076,1.2663818456203444,PPG_1,PPG_2,126641.0,126641.0,-41.242120129740215,2.2892630267101417,0.11306541057684563
63857.74043671032,1.2764324951858723,PPG_1,PPG_2,126634.0,126634.0,-48.21318893576972,4.645593263820409,0.2288118548172329
63857.750487359895,1.2864831447586766,PPG_1,PPG_2,126638.0,126638.0,-44.18425774179923,6.7616012319561944,0.33275331193506325
63857.76053800946,1.2965337943242048,PPG_1,PPG_2,126678.0,126678.0,-4.155326547828736,8.538893926560874,0.42005657127242646
63857.77058865903,1.306584443889733,PPG_1,PPG_2,126659.0,126659.0,-23.12639535384369,9.886248940988915,0.48624065260083815
63857.7806393086,1.316635093462537,PPG_1,PPG_2,126648.0,126648.0,-34.0974641598732,10.73154149819218,0.5277626796487658
63857.790689958165,1.3266857430280652,PPG_1,PPG_2,126689.0,126689.0,6.931467034097295,11.034439309346974,0.5426414704299591
63857.80074060774,1.3367363926008693,PPG_1,PPG_2,126703.0,126703.0,20.96039822806779,10.797083676312536,0.5309822088750701
63857.8107912573,1.3467870421663974,PPG_1,PPG_2,126648.0,126648.0,-34.01067057794717,10.069355923126173,0.49523513977593264
63857.82084190687,1.3568376917319256,PPG_1,PPG_2,126642.0,126642.0,-39.981739383976674,8.944700183273776,0.43999037788631756
63857.83089255644,1.3668883413047297,PPG_1,PPG_2,126649.0,126649.0,-32.95280819000618,7.546976187888274,0.37133209733318784
63857.84094320601,1.3769389908702578,PPG_1,PPG_2,126661.0,126661.0,-20.923876996021136,6.0145892213884835,0.29605897144477955
63857.85099385557,1.386989640435786,PPG_1,PPG_2,126660.0,126660.0,-21.894945802050643,4.487659308813105,0.22105390415776371
63857.861044505145,1.39704029000859,PPG_1,PPG_2,126654.0,126654.0,-27.86601460808015,3.0989673028967437,0.1528392883545936
63857.87109515471,1.4070909395741182,PPG_1,PPG_2,126660.0,126660.0,-21.837083414109657,1.9664824455624978,0.0972099485752615
63857.88114580429,1.4171415891469223,PPG_1,PPG_2,126631.0,126631.0,-50.80815222012461,1.1860125829219756,0.05887210865168184
63857.89119645385,1.4271922387124505,PPG_1,PPG_2,126661.0,126661.0,-20.77922102615412,0.8245094337075932,0.04111453654049017
63857.901247103415,1.4372428882779786,PPG_1,PPG_2,126632.0,126632.0,-49.750289832183626,0.9158627892385455,0.04560194917289906
63857.91129775299,1.4472935378507827,PPG_1,PPG_2,126665.0,126665.0,-16.721358638213133,1.460827331483387,0.0723714176491375
63857.92134840255,1.4573441874163109,PPG_1,PPG_2,126666.0,126666.0,-15.692427444228088,2.4312172535898977,0.12003841323473075
63857.931399052126,1.467394836989115,PPG_1,PPG_2,126659.0,126659.0,-22.663496250257595,3.77649116750338,0.1861202678120388
63857.94144970169,1.4774454865546431,PPG_1,PPG_2,126646.0,126646.0,-35.6345650562871,5.42977696925694,0.26733212422006625
63857.95150035126,1.4874961361201713,PPG_1,PPG_2,126672.0,126672.0,-9.605633862302057,7.311713859450888,0.35977566201207745
63857.96155100083,1.4975467856929754,PPG_1,PPG_2,126637.0,126637.0,-44.57670266833156,9.332925830298638,0.4590605988164531
63857.971601650395,1.5075974352585035,PPG_1,PPG_2,126671.0,126671.0,-10.54777147436107,11.396901166712343,0.5604461357107726
63857.98165229997,1.5176480848313076,PPG_1,PPG_2,126676.0,126676.0,-5.518840280390577,13.404473040845932,0.6590610506867582
63857.991702949534,1.5276987343968358,PPG_1,PPG_2,126642.0,126642.0,-39.48990908640553,15.25985453783931,0.7502001480866872
63858.0017535991,1.537749383962364,PPG_1,PPG_2,126680.0,126680.0,-1.4609778924350394,16.877289138129978,0.8296509401813508
63858.01180424867,1.547800033535168,PPG_1,PPG_2,126675.0,126675.0,-6.432046698464546,18.187887929479402,0.8940295011892008
63858.02185489824,1.5578506831006962,PPG_1,PPG_2,126671.0,126671.0,-10.403115504494053,19.14645415439306,0.9411156991912065
63858.03190554781,1.5679013326735003,PPG_1,PPG_2,126688.0,126688.0,6.625815689490992,19.736818563709168,0.9701152766308345
63858.041956197376,1.5779519822390284,PPG_1,PPG_2,126673.0,126673.0,-8.345253116538515,19.973542119995862,0.9817434896362096
63858.05200684694,1.5880026318045566,PPG_1,PPG_2,126683.0,126683.0,1.6836780774319777,19.898559976152068,0.9780602552598243
63858.062057496514,1.5980532813773607,PPG_1,PPG_2,126658.0,126658.0,-23.287390728582977,19.572407400324263,0.9620391558666389
63858.07210814608,1.6081039309428888,PPG_1,PPG_2,126675.0,126675.0,-6.258459534612484,19.06110216518327,0.9369230825943103
63858.082158795645,1.618154580508417,PPG_1,PPG_2,126670.0,126670.0,-11.229528340641991,18.421098981013905,0.9054851747393499
63858.09220944522,1.628205230081221,PPG_1,PPG_2,126633.0,126633.0,-48.2005971466715,17.684962668511297,0.8693250647061737
63858.10226009478,1.6382558796467492,PPG_1,PPG_2,126669.0,126669.0,-12.171665952686453,16.850410335551196,0.8283306134398204
63858.11231074436,1.6483065292195531,PPG_1,PPG_2,126649.0,126649.0,-32.14273475871596,15.87592264087069,0.7804623291735168
63858.12236139392,1.6583571787850817,PPG_1,PPG_2,126674.0,126674.0,-7.113803564745467,14.685277072128972,0.7219760487863341
63858.13241204349,1.6684078283506096,PPG_1,PPG_2,126651.0,126651.0,-30.084872370774974,13.180477451928597,0.6480580543603568
63858.14246269306,1.6784584779234135,PPG_1,PPG_2,126684.0,126684.0,2.944058823210071,11.260262651852921,0.5537342487298285
63858.152513342626,1.688509127488942,PPG_1,PPG_2,126656.0,126656.0,-25.027009982819436,8.840769352651696,0.43488514097936837
63858.1625639922,1.698559777061746,PPG_1,PPG_2,126670.0,126670.0,-10.998078788848943,5.874903518056364,0.2891974020360117
63858.17261464176,1.708610426627274,PPG_1,PPG_2,126673.0,126673.0,-7.969147594863898,2.3673259716427184,0.11689997848272617
63858.18266529133,1.7186610761928025,PPG_1,PPG_2,126658.0,126658.0,-22.940216400893405,-1.6174255909656992,-0.07883694212772219
63858.1927159409,1.7287117257656064,PPG_1,PPG_2,126653.0,126653.0,-27.911285206922912,-5.955662476958394,-0.29193758732503916
63858.20276659047,1.7387623753311343,PPG_1,PPG_2,126631.0,126631.0,-49.88235401295242,-10.474836778313907,-0.513926147352145
63858.21281724004,1.7488130249039386,PPG_1,PPG_2,126612.0,126612.0,-68.85342281896737,-14.971435471804703,-0.734805759959338
63858.222867889606,1.7588636744694668,PPG_1,PPG_2,126633.0,126633.0,-47.82449162499688,-19.231803911383416,-0.9440813913071552
63858.23291853917,1.768914324034995,PPG_1,PPG_2,126624.0,126624.0,-56.79556043102639,-23.050716830368845,-1.131672071201977
63858.242969188745,1.778964973607799,PPG_1,PPG_2,126643.0,126643.0,-37.766629237055895,-26.245177163528915,-1.288588711750497
63858.25301983831,1.7890156231733272,PPG_1,PPG_2,126614.0,126614.0,-66.73769804307085,-28.664699643675196,-1.4074392529123596
63858.26307048788,1.7990662727461313,PPG_1,PPG_2,126620.0,126620.0,-60.70876684910036,-30.200727904849437,-1.4828912446084384
63858.27312113745,1.8091169223116592,PPG_1,PPG_2,126590.0,126590.0,-90.67983565512986,-30.795864405467622,-1.5121252342671632
63858.283171787014,1.8191675718771876,PPG_1,PPG_2,126607.0,126607.0,-73.65090446114482,-30.45036940131085,-1.4951540060394057
63858.29322243659,1.8292182214499917,PPG_1,PPG_2,126652.0,126652.0,-28.621973267174326,-29.22206391018377,-1.4348178142782468
63858.30327308615,1.83926887101552,PPG_1,PPG_2,126633.0,126633.0,-47.59304207320383,-27.218638318308397,-1.3364065708507762
63858.31332373572,1.849319520581048,PPG_1,PPG_2,126614.0,126614.0,-66.56411087923334,-24.58638614255015,-1.207106430789898
63858.32337438529,1.859370170153852,PPG_1,PPG_2,126606.0,126606.0,-74.5351796852483,-21.500230193045077,-1.0555098625751633
63858.333425034856,1.86942081971938,PPG_1,PPG_2,126633.0,126633.0,-47.5062484912778,-18.154980059548365,-0.8911862028653187
63858.34347568443,1.8794714692921843,PPG_1,PPG_2,126636.0,126636.0,-44.47731729730731,-14.753943508782047,-0.7241222314053748
63858.353526333995,1.8895221188577125,PPG_1,PPG_2,126660.0,126660.0,-20.448386103336816,-11.493189308544698,-0.5639491375515021
63858.36357698356,1.8995727684232409,PPG_1,PPG_2,126658.0,126658.0,-22.41945490935177,-8.544508696542897,-0.41910556229002394
63858.37362763313,1.9096234179960447,PPG_1,PPG_2,126629.0,126629.0,-51.39052371538128,-6.042260758992161,-0.29619142367822676
63858.3836782827,1.9196740675615729,PPG_1,PPG_2,126640.0,126640.0,-40.361592521410785,-4.077174289935623,-0.19966345495974522
63858.39372893227,1.929724717134377,PPG_1,PPG_2,126661.0,126661.0,-19.33266132742574,-2.6959474991734056,-0.13181554162296671
63858.40377958184,1.9397753666999051,PPG_1,PPG_2,126632.0,126632.0,-48.30373013345525,-1.903554490473113,-0.0928920190396128
63858.4138302314,1.9498260162654333,PPG_1,PPG_2,126674.0,126674.0,-6.274798939484754,-1.666888652845558,-0.08126664126058104
63858.423880880975,1.9598766658382376,PPG_1,PPG_2,126635.0,126635.0,-45.24586774551426,-1.9204218161418332,-0.09372056715194924
63858.43393153054,1.9699273154037655,PPG_1,PPG_2,126651.0,126651.0,-29.216936551529216,-2.5747651194371626,-0.12586288297684242
63858.44398218011,1.9799779649765696,PPG_1,PPG_2,126609.0,126609.0,-71.18800535755872,-3.527690954107496,-0.1726720166249172
63858.45403282968,1.9900286145420976,PPG_1,PPG_2,126662.0,126662.0,-18.15907416358823,-4.674974244319226,-0.22902827742700013
63858.464083479244,2.000079264107626,PPG_1,PPG_2,126649.0,126649.0,-31.130142969617737,-5.917749222790347,-0.29007523191728646
63858.47413412882,2.01012991368043,PPG_1,PPG_2,126641.0,126641.0,-39.10121177563269,-7.165881767708153,-0.3513853580361583
63858.48418477838,2.020180563245958,PPG_1,PPG_2,126640.0,126640.0,-40.0722805816622,-8.339987915751866,-0.4090591974906396
63858.494235427956,2.0302312128187623,PPG_1,PPG_2,126642.0,126642.0,-38.043349387691705,-9.374269115967962,-0.45986462763972913
63858.50428607752,2.0402818623842904,PPG_1,PPG_2,126614.0,126614.0,-66.01441819370666,-10.219834684026953,-0.5014000653867563
63858.51433672709,2.0503325119498186,PPG_1,PPG_2,126640.0,126640.0,-39.98548699973617,-10.846667549250956,-0.5321910275957165
63858.52438737666,2.0603831615226227,PPG_1,PPG_2,126646.0,126646.0,-33.956555805765674,-11.242232609661029,-0.5516217714223329
63858.534438026225,2.070433811088151,PPG_1,PPG_2,126669.0,126669.0,-10.927624611795181,-11.40651327643316,-0.5596914819989087
63858.54448867579,2.080484460653679,PPG_1,PPG_2,126602.0,126602.0,-77.89869341781014,-11.346486132068186,-0.5567428594294888
63858.55453932536,2.090535110226483,PPG_1,PPG_2,126646.0,126646.0,-33.86976222383964,-11.07344639588307,-0.543330741678745
63858.56458997493,2.1005857597920112,PPG_1,PPG_2,126622.0,126622.0,-57.84083102986915,-10.602712885300766,-0.5202076118319219
63858.5746406245,2.1106364093648153,PPG_1,PPG_2,126667.0,126667.0,-12.811899835898657,-9.952531770795266,-0.4882697489080239
63858.58469127407,2.1206870589303435,PPG_1,PPG_2,126628.0,126628.0,-51.78296864191361,-9.14117392988047,-0.4484146455725864
63858.59474192363,2.1307377084958716,PPG_1,PPG_2,126647.0,126647.0,-32.75403744794312,-8.184399960157233,-0.40141648580995626
63858.604792573205,2.1407883580686757,PPG_1,PPG_2,126645.0,126645.0,-34.725106253972626,-7.095374770861688,-0.34792194953317407
63858.61484322277,2.150839007634204,PPG_1,PPG_2,126635.0,126635.0,-44.69617505998758,-5.887117874023659,-0.2885705745283547
63858.624893872344,2.160889657207008,PPG_1,PPG_2,126624.0,126624.0,-55.66724386601709,-4.57633711668047,-0.2241830750803747
63858.63494452191,2.170940306772536,PPG_1,PPG_2,126649.0,126649.0,-30.638312672046595,-3.186697257834215,-0.1559218993321806
63858.644995171475,2.1809909563380643,PPG_1,PPG_2,126660.0,126660.0,-19.609381478076102,-1.7493353140799706,-0.08531654382817622
63858.65504582105,2.1910416059108684,PPG_1,PPG_2,126650.0,126650.0,-29.580450284091057,-0.300482870345664,-0.014146757883017945
63858.66509647061,2.2010922554763965,PPG_1,PPG_2,126632.0,126632.0,-47.551519090120564,1.121318708624165,0.05569424937025559
63858.675147120186,2.2111429050492006,PPG_1,PPG_2,126654.0,126654.0,-25.52258789615007,2.476590844130518,0.12226723145587143
63858.68519776975,2.221193554614729,PPG_1,PPG_2,126634.0,126634.0,-45.49365670217958,3.7260404537747176,0.18364205375209286
63858.69524841932,2.231244204180257,PPG_1,PPG_2,126657.0,126657.0,-22.464725508194533,4.833728273825757,0.23805332619603
63858.70529906889,2.241294853753061,PPG_1,PPG_2,126688.0,126688.0,8.56420568577596,5.772911818172337,0.2841874181136875
63858.715349718455,2.251345503318589,PPG_1,PPG_2,126656.0,126656.0,-23.406863120253547,6.532220830394682,0.3214858056063504
63858.72540036803,2.2613961528913933,PPG_1,PPG_2,126635.0,126635.0,-44.3779319262685,7.117875505878451,0.3502540339184977
63858.735451017594,2.2714468024569214,PPG_1,PPG_2,126637.0,126637.0,-42.34900073229801,7.550043179673912,0.3714827525291834
63858.74550166716,2.2814974520224496,PPG_1,PPG_2,126671.0,126671.0,-8.320069538327516,7.8567141998186685,0.38654688894533323
63858.75555231673,2.2915481015952537,PPG_1,PPG_2,126655.0,126655.0,-24.291138344357023,8.069779130140985,0.3970129550716917
63858.7656029663,2.301598751160782,PPG_1,PPG_2,126652.0,126652.0,-27.262207150371978,8.223928033693886,0.40458497837674584
63858.77565361586,2.31164940072631,PPG_1,PPG_2,126655.0,126655.0,-24.233275956401485,8.355992792816828,0.4110721956764271
63858.78570426544,2.321700050299114,PPG_1,PPG_2,126653.0,126653.0,-26.204344762430992,8.503516651461966,0.41831878692661495
63858.795754915,2.3317506998646422,PPG_1,PPG_2,126664.0,126664.0,-15.175413568460499,8.703079000632277,0.42812158619343144
63858.805805564574,2.3418013494374463,PPG_1,PPG_2,126649.0,126649.0,-30.146482374475454,8.988699894843323,0.4421517091299481
63858.81585621414,2.3518519990029745,PPG_1,PPG_2,126651.0,126651.0,-28.11755118050496,9.39001901275257,0.46186510081508403
63858.825906863705,2.361902648568502,PPG_1,PPG_2,126671.0,126671.0,-8.088619986534468,9.930296129548088,0.48840431598477985
63858.83595751328,2.3719532981413067,PPG_1,PPG_2,126663.0,126663.0,-16.059688792549423,10.624461180952439,0.5225027352770326
63858.84600816285,2.382003947706835,PPG_1,PPG_2,126633.0,126633.0,-46.03075759857893,11.476624547634279,0.564362266700906
63858.85605881242,2.392054597279639,PPG_1,PPG_2,126671.0,126671.0,-8.001826404608437,12.476676089404052,0.6134862851402414
63858.86610946198,2.402105246845167,PPG_1,PPG_2,126623.0,126623.0,-55.972895210637944,13.597651904219028,0.6685502836413278
63858.87616011155,2.4121558964106953,PPG_1,PPG_2,126666.0,126666.0,-12.943964016652899,14.796800531088014,0.7274542468846315
63858.88621076112,2.4222065459834994,PPG_1,PPG_2,126687.0,126687.0,8.084967177317594,16.022177746466383,0.7876465973877483
63858.896261410686,2.4322571955490275,PPG_1,PPG_2,126686.0,126686.0,7.113898371288087,17.223340149819755,0.8466494803257075
63858.90631206026,2.4423078451218316,PPG_1,PPG_2,126634.0,126634.0,-44.85717043474142,18.36105912051095,0.9025359275343281
63858.916362709824,2.45235849468736,PPG_1,PPG_2,126666.0,126666.0,-12.828239240756375,19.41169016687976,0.9541444864326267
63858.92641335939,2.462409144252888,PPG_1,PPG_2,126682.0,126682.0,3.2006919532141183,20.367158548081186,1.001078513746137
63858.93646400896,2.472459793825692,PPG_1,PPG_2,126682.0,126682.0,3.2296231471846113,21.23381658266013,1.0436500448053385
63858.94651465853,2.48251044339122,PPG_1,PPG_2,126661.0,126661.0,-17.741445658830344,22.02996987807703,1.082758278262371
63858.9565653081,2.4925610929640243,PPG_1,PPG_2,126661.0,126661.0,-17.71251446485985,22.779594619354285,1.1195809599692739
63858.96661595767,2.5026117425295524,PPG_1,PPG_2,126664.0,126664.0,-14.683583270889358,23.502446753995027,1.155088531437205
63858.97666660723,2.512662392095081,PPG_1,PPG_2,126684.0,126684.0,5.345347923081135,24.203695518483794,1.1895349132470316
63858.986717256805,2.5227130416678847,PPG_1,PPG_2,126639.0,126639.0,-39.62572088293382,24.865578458064665,1.2220475872149275
63858.99676790637,2.532763691233413,PPG_1,PPG_2,126680.0,126680.0,1.4032103110366734,25.44187740241712,1.2503562481053847
63859.006818555936,2.542814340798941,PPG_1,PPG_2,126655.0,126655.0,-23.567858494992834,25.85615766693208,1.2707063105802354
63859.01686920551,2.552864990371745,PPG_1,PPG_2,126652.0,126652.0,-26.53892730102234,26.00526683880987,1.278030774773187
63859.026919855074,2.5629156399372732,PPG_1,PPG_2,126668.0,126668.0,-10.509996107037296,25.769165565546206,1.2664331292350084
63859.03697050465,2.5729662895100773,PPG_1,PPG_2,126702.0,126702.0,23.518935086933197,25.027218715246068,1.229987596947092
63859.04702115421,2.5830169390756055,PPG_1,PPG_2,126676.0,126676.0,-2.4521337190963095,23.678558442567937,1.1637393993929985
63859.05707180378,2.5930675886411336,PPG_1,PPG_2,126661.0,126661.0,-17.423202525111265,21.66093040805324,1.0646305108692933
63859.06712245335,2.6031182382139377,PPG_1,PPG_2,126670.0,126670.0,-8.394271331140772,18.96308297366859,0.9321082341887424
63859.07717310291,2.613168887779466,PPG_1,PPG_2,126675.0,126675.0,-3.3653401371702785,15.629972755281242,0.7683809051566435
63859.08722375249,2.62321953735227,PPG_1,PPG_2,126661.0,126661.0,-17.336408943199785,11.762102631398529,0.5783853745759695
63859.097274402055,2.633270186917798,PPG_1,PPG_2,126648.0,126648.0,-30.30747774921474,7.509124025511973,0.3694727428450667
63859.10732505162,2.6433208364833263,PPG_1,PPG_2,126660.0,126660.0,-18.278546555244247,3.0575076707331204,0.15080272958754282
63859.11737570119,2.6533714860561304,PPG_1,PPG_2,126649.0,126649.0,-29.249615361273754,-1.3866686028757238,-0.06750181582225512
63859.12742635076,2.6634221356216585,PPG_1,PPG_2,126613.0,126613.0,-65.22068416730326,-5.618263399019739,-0.2753640430287704
63859.13747700033,2.673472785194462,PPG_1,PPG_2,126625.0,126625.0,-53.191752973318216,-9.45489284246709,-0.46382498494309593
63859.1475276499,2.6835234347599908,PPG_1,PPG_2,126611.0,126611.0,-67.16282177934772,-12.756085079307857,-0.6259844552713665
63859.15757829946,2.693574084325519,PPG_1,PPG_2,126637.0,126637.0,-41.13389058537723,-15.43507467321844,-0.7575804067931813
63859.167628949035,2.703624733898323,PPG_1,PPG_2,126622.0,126622.0,-56.104959391392185,-17.461137418654324,-0.8571036208566378
63859.1776795986,2.713675383463851,PPG_1,PPG_2,126620.0,126620.0,-58.07602819742169,-18.853967022676954,-0.9255214816298694
63859.18773024817,2.7237260330366553,PPG_1,PPG_2,126647.0,126647.0,-31.0470970034512,-19.673094631667098,-0.9657582475239458
63859.19778089774,2.733776682602183,PPG_1,PPG_2,126623.0,126623.0,-55.018165809480706,-20.005161403372256,-0.9820698610108536
63859.207831547305,2.7438273321677116,PPG_1,PPG_2,126639.0,126639.0,-38.98923461549566,-19.9518422045517,-0.979450742698815
63859.21788219688,2.7538779817405157,PPG_1,PPG_2,126597.0,126597.0,-80.96030342152517,-19.620723696427852,-0.9631857093287393
63859.22793284644,2.763928631306044,PPG_1,PPG_2,126639.0,126639.0,-38.931372227554675,-19.11916910226313,-0.9385486020367699
63859.23798349601,2.773979280871572,PPG_1,PPG_2,126608.0,126608.0,-69.90244103358418,-18.54894995752818,-0.9105385899419429
63859.24803414558,2.784029930444376,PPG_1,PPG_2,126632.0,126632.0,-45.87350983959914,-17.99957254172143,-0.8835523545560291
63859.25808479515,2.794080580009904,PPG_1,PPG_2,126647.0,126647.0,-30.844578645628644,-17.540146687310184,-0.8609846735906401
63859.26813544472,2.8041312295827083,PPG_1,PPG_2,126647.0,126647.0,-30.81564745165815,-17.21183213280533,-0.8448573745907737
63859.278186094285,2.8141818791482365,PPG_1,PPG_2,126604.0,126604.0,-73.7867162576731,-17.02446212199005,-0.8356534811094642
63859.28823674385,2.8242325287137646,PPG_1,PPG_2,126627.0,126627.0,-50.75778506370261,-16.959689156075523,-0.8324717367302448
63859.29828739342,2.8342831782865687,PPG_1,PPG_2,126640.0,126640.0,-37.72885386973212,-16.978962548645107,-0.8334184744256853
63859.30833804299,2.844333827852097,PPG_1,PPG_2,126605.0,126605.0,-72.69992267576163,-17.03272940360409,-0.8360595822727428
63859.31838869256,2.854384477424901,PPG_1,PPG_2,126618.0,126618.0,-59.67099148177658,-17.068855989323115,-0.8378341738701629
63859.32843934213,2.864435126990429,PPG_1,PPG_2,126633.0,126633.0,-44.64206028780609,-17.039113332766433,-0.8363731703637439
63859.33848999169,2.8744857765559573,PPG_1,PPG_2,126637.0,126637.0,-40.613129093835596,-16.902397686597773,-0.8296574945782242
63859.348540641266,2.884536426128762,PPG_1,PPG_2,126637.0,126637.0,-40.5841978998651,-16.625302395274495,-0.8160461619299801
63859.35859129083,2.8945870756942895,PPG_1,PPG_2,126624.0,126624.0,-53.55526670588006,-16.183000262923052,-0.7943196236488246
63859.3686419404,2.9046377252670936,PPG_1,PPG_2,126621.0,126621.0,-56.526335511909565,-15.562641464078117,-0.763846677204952
63859.37869258997,2.9146883748326218,PPG_1,PPG_2,126628.0,126628.0,-49.49740431793907,-14.768578752415635,-0.7248411363298632
63859.388743239535,2.92473902439815,PPG_1,PPG_2,126600.0,126600.0,-77.46847312395403,-13.82672849124918,-0.6785760513175896
63859.39879388911,2.934789673970954,PPG_1,PPG_2,126654.0,126654.0,-23.439541929983534,-12.7852444957374,-0.6274168091556774
63859.40884453867,2.944840323536482,PPG_1,PPG_2,126627.0,126627.0,-50.41061073601304,-11.710105584489945,-0.5746043875003886
63859.418895188246,2.9548909731092863,PPG_1,PPG_2,126615.0,126615.0,-62.38167954204255,-10.676612831877472,-0.5238376870697197
63859.42894583781,2.9649416226748144,PPG_1,PPG_2,126630.0,126630.0,-47.3527483480575,-9.758709891860224,-0.4787489300731247
63859.43899648738,2.9749922722403426,PPG_1,PPG_2,126665.0,126665.0,-12.32381715408701,-9.0165727047551,-0.4422940481583868
63859.44904713695,2.9850429218131467,PPG_1,PPG_2,126661.0,126661.0,-16.294885960116517,-8.483280834555398,-0.4160979586859615
63859.459097786515,2.995093571378675,PPG_1,PPG_2,126644.0,126644.0,-33.265954766146024,-8.155060490669129,-0.39997528745173627
63859.46914843608,3.005144220944203,PPG_1,PPG_2,126628.0,126628.0,-49.23702357216098,-7.990798627733017,-0.3919065005475401
63859.479199085654,3.015194870517007,PPG_1,PPG_2,126638.0,126638.0,-39.208092378190486,-7.9221266936181705,-0.38853323305399406
63859.48924973522,3.0252455200825352,PPG_1,PPG_2,126609.0,126609.0,-68.17916118421999,-7.8700353660094695,-0.38597442960127326
63859.49930038479,3.0352961696553393,PPG_1,PPG_2,126637.0,126637.0,-40.15022999023495,-7.762196360898897,-0.380677217353436
63859.50935103436,3.0453468192208675,PPG_1,PPG_2,126605.0,126605.0,-72.12129879626445,-7.54617137202931,-0.37006574875072085
63859.51940168392,3.0553974687863956,PPG_1,PPG_2,126658.0,126658.0,-19.09236760229396,-7.1955036582549186,-0.35284042933663556
63859.529452333496,3.0654481183591997,PPG_1,PPG_2,126646.0,126646.0,-31.06343640832347,-6.708265133826366,-0.3289065486728197
63859.53950298306,3.075498767924728,PPG_1,PPG_2,126646.0,126646.0,-31.034505214338424,-6.100945938077702,-0.29907412691811386
63859.549553632634,3.085549417497532,PPG_1,PPG_2,126615.0,126615.0,-62.00557402036793,-5.402202056872666,-0.2647507886990212
63859.5596042822,3.09560006706306,PPG_1,PPG_2,126645.0,126645.0,-31.976642826397438,-4.648551803173258,-0.22773036783749062
63859.569654931765,3.1056507166285883,PPG_1,PPG_2,126638.0,126638.0,-38.947711632426945,-3.88030887421829,-0.18999313307348378
63859.57970558134,3.1157013662013924,PPG_1,PPG_2,126640.0,126640.0,-36.9187804384419,-3.1355986762955794,-0.15341186104226845
63859.589756230904,3.1257520157669205,PPG_1,PPG_2,126650.0,126650.0,-26.889849244471407,-2.4426904498062716,-0.11937517885827743
63859.59980688048,3.1358026653397246,PPG_1,PPG_2,126664.0,126664.0,-12.860918050500914,-1.8125833674063128,-0.08842338223408168
63859.60985753004,3.1458533149052528,PPG_1,PPG_2,126662.0,126662.0,-14.831986856515869,-1.234545625328638,-0.06002930901441098
63859.61990817961,3.155903964470781,PPG_1,PPG_2,126633.0,126633.0,-43.803055662545376,-0.6777816857741497,-0.03268023660097311
63859.62995882918,3.165954614043585,PPG_1,PPG_2,126619.0,126619.0,-57.77412446857488,-0.10063368570027761,-0.004329868831247226
63859.640009478746,3.176005263609113,PPG_1,PPG_2,126644.0,126644.0,-32.74519327460439,0.5357860680819932,0.02693201559586054
63859.65006012832,3.1860559131819173,PPG_1,PPG_2,126636.0,126636.0,-40.716262080619344,1.2556382038339597,0.06229222265848359
63859.66011077789,3.1961065627474454,PPG_1,PPG_2,126646.0,126646.0,-30.68733088664885,2.0623134935410055,0.10191731211737062
63859.67016142745,3.2061572123129736,PPG_1,PPG_2,126656.0,126656.0,-20.65839969267836,2.9384653660442748,0.14495519460924855
63859.68021207702,3.2162078618857777,PPG_1,PPG_2,126638.0,126638.0,-38.629468498707865,3.850010929767006,0.18973166783118436
63859.69026272659,3.226258511451306,PPG_1,PPG_2,126657.0,126657.0,-19.60053730472282,4.751970689121498,0.23403727209199846
63859.700313376154,3.236309161016834,PPG_1,PPG_2,126658.0,126658.0,-18.571606110752327,5.594862580594917,0.27544137487037196
63859.71036402573,3.246359810589638,PPG_1,PPG_2,126629.0,126629.0,-47.542674916781834,6.33094699754858,0.31159893571703445
63859.72041467529,3.256410460155166,PPG_1,PPG_2,126650.0,126650.0,-26.51374372279679,6.92016049892388,0.3405419788476345
63859.730465324865,3.2664611097279703,PPG_1,PPG_2,126663.0,126663.0,-13.484812528826296,7.336684911876701,0.3610022772299735
63859.74051597443,3.2765117592934985,PPG_1,PPG_2,126659.0,126659.0,-17.455881334855803,7.576919138087081,0.3728029395610707
63859.750566624,3.2865624088590266,PPG_1,PPG_2,126689.0,126689.0,12.57304985911469,7.666950420058094,0.3772254099747798
63859.76061727357,3.2966130584318307,PPG_1,PPG_2,126636.0,126636.0,-40.398018946900265,7.6653259810688,0.3771456151166844
63859.770667923134,3.306663707997359,PPG_1,PPG_2,126672.0,126672.0,-4.369087752929772,7.657845908863244,0.37677818284984044
63859.78071857271,3.316714357570163,PPG_1,PPG_2,126656.0,126656.0,-20.34015655895928,7.744342547174881,0.38102702631229024
63859.79076922227,3.326765007135691,PPG_1,PPG_2,126621.0,126621.0,-55.311225364988786,8.02000924886214,0.3945681845138274
63859.80081987184,3.3368156567012193,PPG_1,PPG_2,126626.0,126626.0,-50.28229417100374,8.555282225108046,0.4208615888604159
63859.81087052141,3.3468663062740234,PPG_1,PPG_2,126637.0,126637.0,-39.25336297703325,9.380204157205956,0.46138298051956605
63859.82092117098,3.3569169558395515,PPG_1,PPG_2,126658.0,126658.0,-18.224431783062755,10.47959681894864,0.5153867824555575
63859.83097182055,3.3669676054123556,PPG_1,PPG_2,126666.0,126666.0,-10.19550058907771,11.801226556930578,0.5803071999609436
63859.841022470115,3.377018254977884,PPG_1,PPG_2,126686.0,126686.0,9.833430604892783,13.273101957951894,0.6526079077946814
63859.85107311968,3.387068904543412,PPG_1,PPG_2,126679.0,126679.0,2.862361798863276,14.822587148872486,0.7287209238853896
63859.86112376925,3.397119554116216,PPG_1,PPG_2,126672.0,126672.0,-4.108707007166231,16.390181848252652,0.8057235059537885
63859.87117441882,3.407170203681744,PPG_1,PPG_2,126652.0,126652.0,-24.079775813181186,17.933850993136158,0.8815508292168409
63859.88122506839,3.4172208532545483,PPG_1,PPG_2,126670.0,126670.0,-6.050844619210693,19.424391810574637,0.9547684100535759
63859.89127571796,3.4272715028200764,PPG_1,PPG_2,126658.0,126658.0,-18.0219134252402,20.835794336490775,1.0240986003612977
63859.90132636752,3.437322152385605,PPG_1,PPG_2,126647.0,126647.0,-28.992982231269707,22.134987963242633,1.0879169227288443
63859.911377017095,3.4473728019584087,PPG_1,PPG_2,126667.0,126667.0,-8.964051037284662,23.274300197818235,1.1438816334280624
63859.92142766666,3.457423451523937,PPG_1,PPG_2,126693.0,126693.0,17.06488015668583,24.188907692996757,1.1888085132750688
63859.931478316226,3.467474101089465,PPG_1,PPG_2,126643.0,126643.0,-32.906188649343676,24.79941587536166,1.2187975827932107
63859.9415289658,3.477524750662269,PPG_1,PPG_2,126669.0,126669.0,-6.877257455358631,25.017588946932115,1.2295145684115987
63859.951579615365,3.487575400227797,PPG_1,PPG_2,126675.0,126675.0,-0.8483262613881379,24.754184135175954,1.2165757324723825
63859.96163026494,3.4976260498006013,PPG_1,PPG_2,126685.0,126685.0,9.180604932582355,23.92944188534289,1.1760631670732027
63859.9716809145,3.5076766993661295,PPG_1,PPG_2,126654.0,126654.0,-21.790463873447152,22.48530220874667,1.1051248792560129
63859.98173156407,3.5177273489316576,PPG_1,PPG_2,126688.0,126688.0,12.238467320537893,20.396598801140065,1.0025246627431816
63859.99178221364,3.5277779985044617,PPG_1,PPG_2,126671.0,126671.0,-4.732601485491614,17.67921580871752,0.8690427704096434
63860.00183286321,3.53782864806999,PPG_1,PPG_2,126649.0,126649.0,-26.70367029152112,14.394209182743104,0.7076783613491585
63860.01188351278,3.547879297642794,PPG_1,PPG_2,126683.0,126683.0,7.325260902449372,10.647178184939472,0.5236186282846775
63860.021934162345,3.557929947208322,PPG_1,PPG_2,126650.0,126650.0,-25.645807903565583,6.582871707892305,0.3239738520081974
63860.03198481191,3.5679805967738503,PPG_1,PPG_2,126641.0,126641.0,-34.61687670959509,2.3754131128965277,0.11729723088370801
63860.04203546148,3.5780312463466544,PPG_1,PPG_2,126647.0,126647.0,-28.587945515624597,-1.7851374914607452,-0.08707520000574594
63860.05208611105,3.5880818959121825,PPG_1,PPG_2,126640.0,126640.0,-35.559014321654104,-5.707910850249284,-0.27976765910584395
63860.06213676062,3.5981325454849866,PPG_1,PPG_2,126649.0,126649.0,-26.53008312766906,-9.215799276037936,-0.45208035351619275
63860.07218741019,3.608183195050515,PPG_1,PPG_2,126635.0,126635.0,-40.501151933698566,-12.158878123002195,-0.5966487617512694
63860.08223805975,3.618233844616043,PPG_1,PPG_2,126616.0,126616.0,-59.47222073972807,-14.427204174130916,-0.7080723095464937
63860.092288709326,3.628284494188847,PPG_1,PPG_2,126607.0,126607.0,-68.44328954574303,-15.962224305296528,-0.7834747803978315
63860.10233935889,3.638335143754375,PPG_1,PPG_2,126628.0,126628.0,-47.414358351772535,-16.763470534489414,-0.8228331863332533
63860.112390008464,3.6483857933271793,PPG_1,PPG_2,126641.0,126641.0,-34.38542715780204,-16.886742950908328,-0.8288885106883437
63860.12244065803,3.6584364428927074,PPG_1,PPG_2,126646.0,126646.0,-29.35649596383155,-16.43344202606281,-0.8066216953687334
63860.132491307595,3.668487092458235,PPG_1,PPG_2,126620.0,126620.0,-55.327564769846504,-15.535059322509843,-0.7624918014066522
63860.14254195717,3.67853774203104,PPG_1,PPG_2,126657.0,126657.0,-18.29863357587601,-14.337589907029955,-0.7036703235231487
63860.15259260673,3.688588391596568,PPG_1,PPG_2,126637.0,126637.0,-38.26970238190552,-12.988289206124781,-0.6373906671824625
63860.1626432563,3.698639041162096,PPG_1,PPG_2,126616.0,126616.0,-59.240771187935024,-11.625466101766424,-0.5704467702813321
63860.17269390587,3.7086896907349,PPG_1,PPG_2,126658.0,126658.0,-17.21183999394998,-10.371154707110392,-0.5088331298776492
63860.18274455544,3.718740340300428,PPG_1,PPG_2,126653.0,126653.0,-22.182908799979487,-9.325636651526022,-0.4574757286878127
63860.19279520501,3.728790989873232,PPG_1,PPG_2,126612.0,126612.0,-63.15397760600899,-8.563532222312823,-0.42004002615680547
63860.202845854576,3.738841639438761,PPG_1,PPG_2,126648.0,126648.0,-27.12504641202395,-8.132210005376852,-0.39885283764394025
63860.21289650414,3.7488922890042886,PPG_1,PPG_2,126657.0,126657.0,-18.096115218053455,-8.051866107734973,-0.3949062259500439
63860.222947153714,3.7589429385770927,PPG_1,PPG_2,126622.0,126622.0,-53.06718402408296,-8.315854308172872,-0.40787371880859075
63860.23299780328,3.768993588142621,PPG_1,PPG_2,126645.0,126645.0,-30.03825283011247,-8.89149430647658,-0.4361500112895241
63860.24304845285,3.779044237715425,PPG_1,PPG_2,126655.0,126655.0,-20.009321636127424,-9.7220023895073,-0.4769458029870388
63860.25309910242,3.789094887280953,PPG_1,PPG_2,126647.0,126647.0,-27.98039044215693,-10.729603142602398,-0.5264406499095656
63860.26314975198,3.7991455368464817,PPG_1,PPG_2,126624.0,126624.0,-50.95145924818644,-11.82083192106466,-0.5800434297621408
63860.27320040155,3.809196186419286,PPG_1,PPG_2,126641.0,126641.0,-33.922528054215945,-12.895054950853577,-0.6328108619586087
63860.28325105112,3.8192468359848135,PPG_1,PPG_2,126635.0,126635.0,-39.8935968602309,-13.854931444603842,-0.6799614223137548
63860.293301700694,3.8292974855576176,PPG_1,PPG_2,126633.0,126633.0,-41.86466566626041,-14.616414327438081,-0.7173665935626174
63860.30335235026,3.8393481351231458,PPG_1,PPG_2,126615.0,126615.0,-59.835734472289914,-15.116903261177784,-0.741951354030266
63860.313402999825,3.849398784688674,PPG_1,PPG_2,126628.0,126628.0,-46.80680327830487,-15.320430234785498,-0.7519489015433812
63860.3234536494,3.859449434261478,PPG_1,PPG_2,126662.0,126662.0,-12.777872084334376,-15.218181405809133,-0.7469262870577853
63860.33350429896,3.869500083827006,PPG_1,PPG_2,126603.0,126603.0,-71.74894089036388,-14.823970672368887,-0.7275620697853112
63860.34355494854,3.8795507333998103,PPG_1,PPG_2,126665.0,126665.0,-9.72000969639339,-14.166615501498312,-0.6952718065475862
63860.3536055981,3.8896013829653384,PPG_1,PPG_2,126645.0,126645.0,-29.691078502408345,-13.281524095622148,-0.6517948008866445
63860.36365624767,3.8996520325308666,PPG_1,PPG_2,126652.0,126652.0,-22.662147308437852,-12.203464342176257,-0.598838903120354
63860.37370689724,3.9097026821036702,PPG_1,PPG_2,126635.0,126635.0,-39.63321611446736,-10.963038005626277,-0.537907317412798
63860.383757546806,3.919753331669199,PPG_1,PPG_2,126632.0,126632.0,-42.604284920496866,-9.58829495374728,-0.4703778949688903
63860.39380819637,3.929803981234727,PPG_1,PPG_2,126643.0,126643.0,-31.57535372651182,-8.109781554694269,-0.39775111880358216
63860.403858845944,3.939854630807531,PPG_1,PPG_2,126641.0,126641.0,-33.54642253254133,-6.565613461998145,-0.32189928648222277
63860.41390949551,3.949905280373059,PPG_1,PPG_2,126623.0,126623.0,-51.517491338570835,-5.004081424861827,-0.24519451139618323
63860.42396014508,3.9599559299458633,PPG_1,PPG_2,126671.0,126671.0,-3.48856014458579,-3.4826518209842887,-0.17045962744933463
63860.43401079465,3.970006579511391,PPG_1,PPG_2,126651.0,126651.0,-23.459628950615297,-2.063234035952388,-0.10073571569811407
63860.444061444214,3.98005722907692,PPG_1,PPG_2,126658.0,126658.0,-16.430697756644804,-0.8054372729936254,-0.03895086882194457
63860.45411209379,3.990107878649724,PPG_1,PPG_2,126633.0,126633.0,-41.40176656267431,0.2392434872199523,0.012365403174529322
63860.46416274335,4.000158528215252,PPG_1,PPG_2,126667.0,126667.0,-7.372835368689266,1.031145504732743,0.05126480754083042
63860.474213392925,4.010209177788056,PPG_1,PPG_2,126662.0,126662.0,-12.343904174718773,1.5451953406218932,0.07651569968211708
63860.48426404249,4.020259827353584,PPG_1,PPG_2,126660.0,126660.0,-14.31497298074828,1.7731115268503084,0.08771128157692025
63860.494314692056,4.030310476919112,PPG_1,PPG_2,126628.0,126628.0,-46.28604178677779,1.7236540392682531,0.08528185626185643
63860.50436534163,4.040361126491916,PPG_1,PPG_2,126670.0,126670.0,-4.257110592792742,1.420509817994878,0.07039096144931732
63860.514415991194,4.0504117760574445,PPG_1,PPG_2,126645.0,126645.0,-29.22817939882225,0.8997399060140641,0.04480996918013483
63860.52446664077,4.060462425630249,PPG_1,PPG_2,126650.0,126650.0,-24.199248204851756,0.208507604171187,0.010855610906258015
63860.53451729033,4.070513075195777,PPG_1,PPG_2,126673.0,126673.0,-1.170317010866711,-0.5951495725539373,-0.028621224356136777
63860.5445679399,4.080563724761305,PPG_1,PPG_2,126640.0,126640.0,-34.14138581689622,-1.4427462429948412,-0.07025643287166329
63860.55461858947,4.090614374334109,PPG_1,PPG_2,126644.0,126644.0,-30.112454622925725,-2.257135410189195,-0.11026043946041614
63860.56466923904,4.100665023899637,PPG_1,PPG_2,126658.0,126658.0,-16.083523428955232,-2.955726282946177,-0.1445762616770733
63860.57471988861,4.110715673472441,PPG_1,PPG_2,126670.0,126670.0,-4.054592234970187,-3.4540899510030685,-0.16905662593489632
63860.584770538175,4.120766323037969,PPG_1,PPG_2,126670.0,126670.0,-4.025661040999694,-3.670280115501646,-0.1796762082100627
63860.59482118774,4.130816972603498,PPG_1,PPG_2,126611.0,126611.0,-62.9967298470292,-3.532459395465026,-0.17290624955331174
63860.60487183731,4.140867622176302,PPG_1,PPG_2,126662.0,126662.0,-11.967798653058708,-2.9908464278134064,-0.146301415403647
63860.61492248688,4.15091827174183,PPG_1,PPG_2,126634.0,126634.0,-39.93886745907366,-2.0304915116470665,-0.09912735422818565
63860.62497313645,4.160968921307358,PPG_1,PPG_2,126635.0,126635.0,-38.90993626510317,-0.6797820161709945,-0.03277849580381927
63860.63502378602,4.171019570880162,PPG_1,PPG_2,126649.0,126649.0,-24.881005071132677,0.9883339530796715,0.04916184047865254
63860.64507443558,4.18107022044569,PPG_1,PPG_2,126658.0,126658.0,-15.852073877147632,2.8634318037888433,0.14126943448404353
63860.655125085155,4.191120870018494,PPG_1,PPG_2,126661.0,126661.0,-12.823142683177139,4.812456537306903,0.23700842687500137
63860.66517573472,4.2011715195840225,PPG_1,PPG_2,126681.0,126681.0,7.205788510793354,6.699495945843912,0.3297026079535856
63860.675226384286,4.211222169149551,PPG_1,PPG_2,126656.0,126656.0,-17.765280295236153,8.406138613192905,0.41353543292163014
63860.68527703386,4.221272818722355,PPG_1,PPG_2,126676.0,126676.0,2.2636508987488924,9.848577908903229,0.48439019550186585
63860.695327683425,4.231323468287883,PPG_1,PPG_2,126693.0,126693.0,19.292582092719385,10.989265539264279,0.5404224676867712
63860.705378333,4.241374117860687,PPG_1,PPG_2,126665.0,126665.0,-8.678486713310122,11.841745447833892,0.5822975481187529
63860.71542898256,4.251424767426215,PPG_1,PPG_2,126656.0,126656.0,-17.64955551933963,12.467302677313349,0.6130258492035413
63860.72547963213,4.261475416991743,PPG_1,PPG_2,126675.0,126675.0,1.3793756746454164,12.963801982028874,0.6374146331624161
63860.7355302817,4.271526066564547,PPG_1,PPG_2,126654.0,126654.0,-19.59169313138409,13.449984817994347,0.6612966568395063
63860.74558093127,4.2815767161300755,PPG_1,PPG_2,126674.0,126674.0,0.4372380625864025,14.049007256213846,0.6907215295301629
63860.75563158084,4.29162736570288,PPG_1,PPG_2,126672.0,126672.0,-1.5338307434285525,14.873274514493488,0.7312107626381013
63860.765682230405,4.301678015268408,PPG_1,PPG_2,126681.0,126681.0,7.4951004505419405,16.01096962042982,0.7870960375744849
63860.77573287997,4.311728664833936,PPG_1,PPG_2,126651.0,126651.0,-22.475968355487566,17.513750315881904,0.8609148594154301
63860.78578352954,4.32177931440674,PPG_1,PPG_2,126656.0,126656.0,-17.447037161517073,19.38577028550207,0.9528712633260558
63860.79583417911,4.331829963972268,PPG_1,PPG_2,126687.0,126687.0,13.581894032467972,21.57647304099187,1.0604818394423003
63860.80588482868,4.341880613545072,PPG_1,PPG_2,126679.0,126679.0,5.610825226438465,23.98017148507609,1.1785550804282923
63860.81593547825,4.3519312631106,PPG_1,PPG_2,126673.0,126673.0,-0.36024357959104236,26.442554727243664,1.2995110059387773
63860.82598612781,4.361981912676129,PPG_1,PPG_2,126662.0,126662.0,-11.33131238562055,28.77198281946745,1.4139359768287785
63860.836036777386,4.372032562248933,PPG_1,PPG_2,126703.0,126703.0,29.697618808364496,30.754736493772345,1.511331784933674
63860.84608742695,4.382083211814461,PPG_1,PPG_2,126685.0,126685.0,11.726550002334989,32.17472826312979,1.5810838916482686
63860.85613807652,4.392133861379989,PPG_1,PPG_2,126697.0,126697.0,23.75548119630548,32.83633808496284,1.613583149666366
63860.86618872609,4.402184510952793,PPG_1,PPG_2,126711.0,126711.0,37.78441239029053,32.58665053178834,1.6013181258611824
63860.876239375655,4.412235160518321,PPG_1,PPG_2,126705.0,126705.0,31.81334358426102,31.33296212844932,1.5397350877171494
63860.88629002523,4.422285810091125,PPG_1,PPG_2,126671.0,126671.0,-2.1577252217684872,29.05208203785899,1.4276948668403469
63860.89634067479,4.4323364596566535,PPG_1,PPG_2,126678.0,126678.0,4.871205972202006,25.789937935452915,1.2674534989256745
63860.90639132436,4.442387109222182,PPG_1,PPG_2,126659.0,126659.0,-14.09986283381295,21.653817344273254,1.0642811066019193
63860.91644197393,4.452437758794986,PPG_1,PPG_2,126696.0,126696.0,22.929068360157544,16.801990235980544,0.8259521461660898
63860.9264926235,4.462488408360514,PPG_1,PPG_2,126677.0,126677.0,3.957999554128037,11.433551560237552,0.5622464575263413
63860.93654327307,4.472539057933318,PPG_1,PPG_2,126668.0,126668.0,-5.01306925190147,5.777179270362829,0.2843970417094111
63860.94659392264,4.482589707498846,PPG_1,PPG_2,126639.0,126639.0,-33.984138057916425,0.07587340729793023,0.004340421977737486
63860.9566445722,4.492640357064374,PPG_1,PPG_2,126644.0,126644.0,-28.955206863945932,-5.432488997757964,-0.2662385282608116
63860.966695221774,4.502691006637178,PPG_1,PPG_2,126645.0,126645.0,-27.92627566997544,-10.535182740659438,-0.5168904307347347
63860.97674587134,4.5127416562027065,PPG_1,PPG_2,126634.0,126634.0,-38.897344475990394,-15.0611517677722,-0.7392127577922863
63860.98679652091,4.522792305775511,PPG_1,PPG_2,126607.0,126607.0,-65.8684132820199,-18.892025061527654,-0.9273909490764753
63860.99684717048,4.532842955341039,PPG_1,PPG_2,126646.0,126646.0,-26.839482088049408,-21.966655034094718,-1.0784213441691406
63861.00689782004,4.542893604906567,PPG_1,PPG_2,126625.0,126625.0,-47.810550894078915,-24.278057808867413,-1.191960884668949
63861.016948469616,4.552944254479371,PPG_1,PPG_2,126640.0,126640.0,-32.78161970009387,-25.863169151170528,-1.2698239102785072
63861.02699911918,4.562994904044899,PPG_1,PPG_2,126636.0,126636.0,-36.75268850612338,-26.78838118733124,-1.3152717009435977
63861.037049768755,4.573045553617703,PPG_1,PPG_2,126627.0,126627.0,-45.723757312152884,-27.13450877117219,-1.3322740024258546
63861.04710041832,4.583096203183231,PPG_1,PPG_2,126646.0,126646.0,-26.69482611818239,-26.98370583930336,-1.3248663382241472
63861.057151067886,4.59314685274876,PPG_1,PPG_2,126648.0,126648.0,-24.665894924197346,-26.409872166102303,-1.296678775117595
63861.06720171746,4.603197502321564,PPG_1,PPG_2,126613.0,126613.0,-59.63696373022685,-25.474018158005347,-1.250708234970311
63861.077252367024,4.613248151887092,PPG_1,PPG_2,126616.0,126616.0,-56.60803253625636,-24.225228529909618,-1.1893658319488993
63861.08730301659,4.62329880145262,PPG_1,PPG_2,126635.0,126635.0,-37.579101342271315,-22.70491939321568,-1.1146859870158303
63861.09735366616,4.633349451025424,PPG_1,PPG_2,126661.0,126661.0,-11.550170148300822,-20.95034373575436,-1.0284986223148
63861.10740431573,4.643400100590952,PPG_1,PPG_2,126647.0,126647.0,-25.52123895433033,-18.996384230344404,-0.9325172265923276
63861.1174549653,4.653450750163756,PPG_1,PPG_2,126631.0,126631.0,-41.492307760359836,-16.879040595753743,-0.8285101595525907
63861.127505614866,4.6635013997292845,PPG_1,PPG_2,126611.0,126611.0,-61.46337656637479,-14.643409910540104,-0.718692656737059
63861.13755626443,4.673552049294813,PPG_1,PPG_2,126643.0,126643.0,-29.434445372404298,-12.353757187778497,-0.6062215111263364
63861.147606914,4.683602698867617,PPG_1,PPG_2,126623.0,126623.0,-49.405514178433805,-10.099778446853863,-0.49550272453749256
63861.15765756357,4.693653348433145,PPG_1,PPG_2,126637.0,126637.0,-35.37658298446331,-7.9946670180800945,-0.3920965216322575
63861.16770821314,4.703703998005949,PPG_1,PPG_2,126676.0,126676.0,3.6523482095217332,-6.164261594499184,-0.30218428608855347
63861.17775886271,4.713754647571477,PPG_1,PPG_2,126649.0,126649.0,-23.318720596507774,-4.72972422086347,-0.23171767766786472
63861.187809512274,4.723805297137005,PPG_1,PPG_2,126676.0,126676.0,3.7102105974627193,-3.7887169022179172,-0.1854939992453623
63861.19786016185,4.733855946709809,PPG_1,PPG_2,126646.0,126646.0,-26.260858208552236,-3.4005194320195966,-0.16642516240283503
63861.20791081141,4.7439065962753375,PPG_1,PPG_2,126652.0,126652.0,-20.231927014581743,-3.5780549450824175,-0.17514597073427465
63861.217961460985,4.753957245848142,PPG_1,PPG_2,126654.0,126654.0,-18.20299582061125,-4.286517969785467,-0.20994672773076958
63861.22801211055,4.76400789541367,PPG_1,PPG_2,126649.0,126649.0,-23.174064626640757,-5.446603389363341,-0.2669318481593596
63861.23806276011,4.774058544979198,PPG_1,PPG_2,126671.0,126671.0,-1.1451334326557117,-6.940823696694453,-0.34033017100966456
63861.24811340969,4.784109194552002,PPG_1,PPG_2,126642.0,126642.0,-30.11620223868522,-8.623073860195134,-0.42296479992602815
63861.258164059254,4.79415984411753,PPG_1,PPG_2,126622.0,126622.0,-50.087271044714726,-10.3322653165042,-0.5069228251969001
63861.26821470883,4.804210493690334,PPG_1,PPG_2,126638.0,126638.0,-34.05833985074423,-11.908862674720778,-0.584367631250975
63861.27826535839,4.814261143255862,PPG_1,PPG_2,126639.0,126639.0,-33.02940865675919,-13.210315227757022,-0.6482969154358005
63861.28831600796,4.8243117928213906,PPG_1,PPG_2,126648.0,126648.0,-24.000477462788695,-14.12169621404478,-0.6930653043694645
63861.29836665753,4.834362442394195,PPG_1,PPG_2,126617.0,126617.0,-54.9715462688182,-14.56114017836418,-0.714651445187845
63861.3084173071,4.844413091959723,PPG_1,PPG_2,126658.0,126658.0,-13.942615074833157,-14.481478146538164,-0.7107383277565066
63861.31846795666,4.854463741525251,PPG_1,PPG_2,126655.0,126655.0,-16.913683880862664,-13.869012022288727,-0.6806530812222594
63861.328518606235,4.864514391098055,PPG_1,PPG_2,126630.0,126630.0,-41.88475268689217,-12.740769354229565,-0.6252321240866894
63861.3385692558,4.874565040663583,PPG_1,PPG_2,126625.0,126625.0,-46.85582149292168,-11.142226484469399,-0.5467093218807161
63861.34861990537,4.884615690236387,PPG_1,PPG_2,126649.0,126649.0,-22.826890298936632,-9.145320424211274,-0.4486183275384225
63861.35867055494,4.8946663398019155,PPG_1,PPG_2,126639.0,126639.0,-32.79795910496614,-6.843953147592972,-0.33557174562704034
63861.368721204504,4.904716989367444,PPG_1,PPG_2,126678.0,126678.0,6.230972089004354,-4.3454203146989085,-0.21284009847896862
63861.37877185408,4.914767638940248,PPG_1,PPG_2,126641.0,126641.0,-30.740096717025153,-1.7597387605560448,-0.08582757658516682
63861.38882250364,4.924818288505776,PPG_1,PPG_2,126667.0,126667.0,-4.711165523040108,0.809529538640587,0.040378701825222726
63861.398873153215,4.93486893807858,PPG_1,PPG_2,126659.0,126659.0,-12.682234329069615,3.270685643016543,0.1612743485030825
63861.40892380278,4.944919587644108,PPG_1,PPG_2,126639.0,126639.0,-32.65330313509912,5.545505257472853,0.2730168697824905
63861.41897445235,4.954970237209636,PPG_1,PPG_2,126669.0,126669.0,-2.6243719411140773,7.56853147663135,0.3723909251610078
63861.42902510192,4.96502088678244,PPG_1,PPG_2,126661.0,126661.0,-10.595440747143584,9.286105078991207,0.4567606939070527
63861.439075751485,4.9750715363479685,PPG_1,PPG_2,126644.0,126644.0,-27.56650955317309,10.656531895780272,0.524078096466694
63861.44912640106,4.985122185920773,PPG_1,PPG_2,126682.0,126682.0,10.462421640797402,11.651626387879748,0.5729586172569209
63861.45917705062,4.995172835486301,PPG_1,PPG_2,126660.0,126660.0,-11.508647165217553,12.259446863137786,0.6028156626063448
63861.46922770019,5.005223485051829,PPG_1,PPG_2,126669.0,126669.0,-2.4797159712470602,12.48747268151099,0.6140166297950825
63861.47927834976,5.015274134624633,PPG_1,PPG_2,126680.0,126680.0,8.549215222723433,12.364584338609868,0.6079801717021617
63861.48932899933,5.025324784190161,PPG_1,PPG_2,126651.0,126651.0,-20.421853583306074,11.940306233662568,0.5871390004421752
63861.4993796489,5.035375433762965,PPG_1,PPG_2,126657.0,126657.0,-14.39292238932103,11.28085632988873,0.5547458408101471
63861.509430298465,5.045426083328493,PPG_1,PPG_2,126662.0,126662.0,-9.363991195350536,10.463163249683069,0.5145795411025794
63861.51948094803,5.0554767328940216,PPG_1,PPG_2,126700.0,126700.0,28.664939998619957,9.56874011202827,0.4706441469038295
63861.5295315976,5.065527382466826,PPG_1,PPG_2,126637.0,126637.0,-34.306128807395,8.677244747353635,0.42685256926638326
63861.53958224717,5.075578032032354,PPG_1,PPG_2,126618.0,126618.0,-53.277197613424505,7.857768201893095,0.3865986630941412
63861.549632896735,5.085628681597882,PPG_1,PPG_2,126670.0,126670.0,-1.248266419454012,7.15911544415656,0.35227980099528833
63861.55968354631,5.095679331170686,PPG_1,PPG_2,126662.0,126662.0,-9.219335225483519,6.60443984965814,0.3250333111956029
63861.56973419587,5.105729980736214,PPG_1,PPG_2,126654.0,126654.0,-17.190404031498474,6.193100105545246,0.30482769145437044
63861.579784845446,5.115780630309018,PPG_1,PPG_2,126646.0,126646.0,-25.16147283752798,5.907061032644981,0.290777026958962
63861.58983549501,5.1258312798745465,PPG_1,PPG_2,126656.0,126656.0,-15.132541643557488,5.718591432076128,0.2815191199942728
63861.59988614458,5.135881929440075,PPG_1,PPG_2,126654.0,126654.0,-17.103610449586995,5.598887888502567,0.27563910397894315
63861.60993679415,5.145932579012879,PPG_1,PPG_2,126660.0,126660.0,-11.07467925560195,5.527982675699901,0.2721561345161902
63861.619987443715,5.155983228578407,PPG_1,PPG_2,126700.0,126700.0,28.954251938368543,5.504535180447934,0.2710043586916407
63861.63003809329,5.166033878151211,PPG_1,PPG_2,126654.0,126654.0,-17.016816867660964,5.5518399948608685,0.2733280415004067
63861.64008874285,5.176084527716739,PPG_1,PPG_2,126684.0,126684.0,13.012114326324081,5.715260202963626,0.2813554850679584
63861.65013939242,5.186135177282267,PPG_1,PPG_2,126603.0,126603.0,-67.95895447970543,6.048509644413551,0.2977251930509226
63861.66019004199,5.196185826855071,PPG_1,PPG_2,126624.0,126624.0,-46.93002328573493,6.592012341263248,0.3244228535081269
63861.67024069156,5.2062364764205995,PPG_1,PPG_2,126654.0,126654.0,-16.90109209176444,7.352251020307442,0.3617669076171506
63861.68029134113,5.216287125993404,PPG_1,PPG_2,126640.0,126640.0,-30.872160897779395,8.291246744375862,0.40789177352352535
63861.690341990696,5.226337775558932,PPG_1,PPG_2,126682.0,126682.0,11.156770296191098,9.329089189173507,0.45887213730071713
63861.70039264026,5.23638842512446,PPG_1,PPG_2,126651.0,126651.0,-19.81429850983841,10.355617053839858,0.5092967120812543
63861.710443289834,5.246439074697264,PPG_1,PPG_2,126663.0,126663.0,-7.785367315867916,11.245212720136754,0.5529949737102355
63861.7204939394,5.256489724262792,PPG_1,PPG_2,126645.0,126645.0,-25.75643612188287,11.870720758195475,0.5837208584393079
63861.73054458897,5.266540373835596,PPG_1,PPG_2,126677.0,126677.0,6.272495072087622,12.115644541509159,0.5957518787869602
63861.74059523854,5.276591023401124,PPG_1,PPG_2,126650.0,126650.0,-20.698573733941885,11.88510639644888,0.5844275023764507
63861.7506458881,5.2866416729666525,PPG_1,PPG_2,126656.0,126656.0,-14.66964253995684,11.115186993432095,0.5466079167142291
63861.76069653768,5.296692322539457,PPG_1,PPG_2,126671.0,126671.0,0.3592886540136533,9.779639282540618,0.4810038276886367
63861.77074718724,5.306742972104985,PPG_1,PPG_2,126638.0,126638.0,-32.611780152015854,7.893405834345137,0.388349236580194
63861.78079783681,5.316793621670513,PPG_1,PPG_2,126662.0,126662.0,-8.58284895804536,5.5126666168533704,0.271403786936321
63861.79084848638,5.326844271243317,PPG_1,PPG_2,126666.0,126666.0,-4.553917764060316,2.7312354697530705,0.13477575402904068
63861.800899135946,5.336894920808845,PPG_1,PPG_2,126630.0,126630.0,-40.52498657008982,-0.32707484004715853,-0.015452994967201348
63861.81094978552,5.346945570381649,PPG_1,PPG_2,126618.0,126618.0,-52.49605537611933,-3.5204865339267974,-0.17231812479532707
63861.82100043509,5.3569962199471775,PPG_1,PPG_2,126626.0,126626.0,-44.46712418214884,-6.7038134107641465,-0.3286878734179341
63861.83105108465,5.367046869512706,PPG_1,PPG_2,126651.0,126651.0,-19.43819298816379,-9.741033799780071,-0.4778806541523215
63861.84110173422,5.37709751908551,PPG_1,PPG_2,126625.0,126625.0,-45.4092617941933,-12.513010703789233,-0.6140442805839944
63861.85115238379,5.387148168651038,PPG_1,PPG_2,126632.0,126632.0,-38.380330600222806,-14.921899404533526,-0.7323724746931254
63861.86120303336,5.397198818223842,PPG_1,PPG_2,126602.0,126602.0,-68.35139940623776,-16.89508816013466,-0.8292984397717875
63861.871253682926,5.40724946778937,PPG_1,PPG_2,126627.0,126627.0,-43.32246821226727,-18.388873216543605,-0.9026753824497382
63861.88130433249,5.417300117354898,PPG_1,PPG_2,126620.0,126620.0,-50.293537018296774,-19.389810667409378,-0.951842918060889
63861.891354982065,5.427350766927702,PPG_1,PPG_2,126613.0,126613.0,-57.26460582432628,-19.912414995474037,-0.9775140195752098
63861.90140563163,5.4374014164932305,PPG_1,PPG_2,126639.0,126639.0,-31.235674630341236,-19.993907662382384,-0.981517060523271
63861.9114562812,5.447452066066035,PPG_1,PPG_2,126636.0,126636.0,-34.20674343637074,-19.68802004471284,-0.9664914060013341
63861.92150693077,5.457502715631563,PPG_1,PPG_2,126598.0,126598.0,-72.17781224240025,-19.060483236651468,-0.9356658650736992
63861.931557580334,5.467553365197091,PPG_1,PPG_2,126601.0,126601.0,-69.14888104842976,-18.187791171390955,-0.8927979334570421
63861.94160822991,5.477604014769895,PPG_1,PPG_2,126623.0,126623.0,-47.11994985444471,-17.157178842167657,-0.8421727237053761
63861.95165887947,5.487654664335423,PPG_1,PPG_2,126620.0,126620.0,-50.09101866047422,-16.06350650157195,-0.7884499124481308
63861.961709529045,5.497705313908227,PPG_1,PPG_2,126621.0,126621.0,-49.062087466503726,-15.001296786293793,-0.7362725921197972
63861.97176017861,5.507755963473755,PPG_1,PPG_2,126627.0,126627.0,-43.03315627251868,-14.053885322654777,-0.6897343325746156
63861.981810828176,5.5178066130392835,PPG_1,PPG_2,126647.0,126647.0,-23.00422507854819,-13.282643560564411,-0.6518497906688397
63861.99186147775,5.527857262612088,PPG_1,PPG_2,126604.0,126604.0,-65.9752938845777,-12.718880941115206,-0.624156932694519
63862.001912127314,5.537907912177616,PPG_1,PPG_2,126641.0,126641.0,-28.946362690607202,-12.36045262657359,-0.6065504010335981
63862.01196277688,5.547958561743144,PPG_1,PPG_2,126615.0,126615.0,-54.91743149662216,-12.17345227184598,-0.5973646656088571
63862.02201342645,5.558009211315948,PPG_1,PPG_2,126644.0,126644.0,-25.888500302651664,-12.09801997964179,-0.593659319275805
63862.03206407602,5.568059860881476,PPG_1,PPG_2,126598.0,126598.0,-71.85956910868117,-12.057655421287995,-0.5916765521622636
63862.04211472559,5.57811051045428,PPG_1,PPG_2,126622.0,126622.0,-47.83063791471068,-11.971515434258434,-0.5874452279409981
63862.05216537516,5.588161160019808,PPG_1,PPG_2,126639.0,126639.0,-30.801706720725633,-11.767874355019913,-0.5774420753896646
63862.06221602472,5.598211809585337,PPG_1,PPG_2,126588.0,126588.0,-81.77277552675514,-11.396596635975554,-0.5592043618772462
63862.072266674295,5.608262459158141,PPG_1,PPG_2,126595.0,126595.0,-74.74384433278465,-10.839242494409719,-0.5318262978635984
63862.08231732386,5.618313108723669,PPG_1,PPG_2,126615.0,126615.0,-54.7149131387996,-10.114250081166926,-0.4962135927289301
63862.09236797343,5.628363758296473,PPG_1,PPG_2,126639.0,126639.0,-30.68598194482911,-9.273370581458918,-0.4549083416257576
63862.102418623,5.638414407862001,PPG_1,PPG_2,126621.0,126621.0,-48.657050750858616,-8.388875936893852,-0.4114606497675808
63862.11246927256,5.648465057427529,PPG_1,PPG_2,126626.0,126626.0,-43.62811955688812,-7.5361670442361826,-0.3695743212967788
63862.12251992214,5.658515707000333,PPG_1,PPG_2,126627.0,126627.0,-42.59918836290308,-6.777108321406964,-0.3322882283911942
63862.1325705717,5.6685663565658615,PPG_1,PPG_2,126653.0,126653.0,-16.570257168932585,-6.146790449330972,-0.3013260774647452
63862.142621221275,5.678617006138666,PPG_1,PPG_2,126622.0,126622.0,-47.54132597496209,-5.645391528658884,-0.2766966170861631
63862.15267187084,5.688667655704194,PPG_1,PPG_2,126619.0,126619.0,-50.5123947809916,-5.237247482127696,-0.25664797476096707
63862.16272252041,5.698718305269722,PPG_1,PPG_2,126620.0,126620.0,-49.483463587006554,-4.8576554978663795,-0.23800185218084743
63862.17277316998,5.708768954842526,PPG_1,PPG_2,126633.0,126633.0,-36.45453239303606,-4.424919916326627,-0.21674523709749285
63862.182823819545,5.718819604408054,PPG_1,PPG_2,126600.0,126600.0,-69.42560119906557,-3.854375391914281,-0.18871924186919262
63862.19287446912,5.728870253980858,PPG_1,PPG_2,126629.0,126629.0,-40.39667000508052,-3.072312886494224,-0.1503031689646101
63862.20292511868,5.738920903546386,PPG_1,PPG_2,126618.0,126618.0,-51.36773881111003,-2.028167941401967,-0.09901321700345485
63862.21297576825,5.7489715531119145,PPG_1,PPG_2,126605.0,126605.0,-64.33880761713954,-0.7033486931881479,-0.033936126013854005
63862.22302641782,5.759022202684719,PPG_1,PPG_2,126623.0,126623.0,-46.309876423169044,0.8844703064871027,0.04405990375111077
63862.23307706739,5.769072852250247,PPG_1,PPG_2,126628.0,126628.0,-41.280945229184,2.682588385026785,0.13238613690702228
63862.24312771695,5.779123501815775,PPG_1,PPG_2,126611.0,126611.0,-58.252014035213506,4.61047375389044,0.22708673227972132
63862.253178366525,5.789174151388579,PPG_1,PPG_2,126649.0,126649.0,-20.223082841243013,6.571955962613644,0.32343765437242444
63862.26322901609,5.799224800954107,PPG_1,PPG_2,126645.0,126645.0,-24.19415164727252,8.47035106137341,0.4166896438364714
63862.273279665664,5.809275450526911,PPG_1,PPG_2,126635.0,126635.0,-34.165220453287475,10.22337258337526,0.5028006670933065
63862.28333031523,5.8193261000924394,PPG_1,PPG_2,126619.0,126619.0,-50.13628925931698,11.77427802876623,0.5789834481949939
63862.293380964795,5.829376749657968,PPG_1,PPG_2,126645.0,126645.0,-24.10735806534649,13.097971034243416,0.6440052164670641
63862.30343161437,5.839427399230772,PPG_1,PPG_2,126642.0,126642.0,-27.078426871361444,14.203628190842293,0.6983167397033838
63862.31348226393,5.8494780487963,PPG_1,PPG_2,126670.0,126670.0,0.9505043226090493,15.134803840743958,0.744057471941123
63862.323532913506,5.859528698369104,PPG_1,PPG_2,126618.0,126618.0,-51.02056448342046,15.9650234638305,0.7848390940573464
63862.33358356307,5.869579347934632,PPG_1,PPG_2,126640.0,126640.0,-28.991633289449965,16.786423170979944,0.8251874687907793
63862.34363421264,5.87962999750016,PPG_1,PPG_2,126621.0,126621.0,-47.96270209546492,17.69242515085696,0.86969163293295
63862.35368486221,5.889680647072964,PPG_1,PPG_2,126625.0,126625.0,-43.93377090149443,18.758983302458677,0.9220825549180172
63862.363735511775,5.8997312966384925,PPG_1,PPG_2,126604.0,126604.0,-64.90483970752393,20.029573794601014,0.984495848791238
63862.37378616135,5.909781946211297,PPG_1,PPG_2,126655.0,126655.0,-13.87590851355344,21.508022587093226,1.0571194513862336
63862.38383681091,5.919832595776825,PPG_1,PPG_2,126663.0,126663.0,-5.846977319568396,23.161004756219096,1.1383163929081992
63862.39388746048,5.929883245342353,PPG_1,PPG_2,126622.0,126622.0,-46.8180461255979,24.927803083878405,1.225104153339955
63862.40393811005,5.939933894915157,PPG_1,PPG_2,126645.0,126645.0,-23.78911493162741,26.732172951668375,1.313737483677944
63862.41398875962,5.949984544480685,PPG_1,PPG_2,126643.0,126643.0,-25.760183737642365,28.49358624339798,1.4002607231392714
63862.42403940919,5.960035194053489,PPG_1,PPG_2,126669.0,126669.0,0.26874745632812846,30.138502744861107,1.4810614670749718
63862.43409005875,5.970085843619017,PPG_1,PPG_2,126636.0,126636.0,-32.70232134970138,31.611548420558986,1.5534196605405888
63862.44414070832,5.9801364931845455,PPG_1,PPG_2,126670.0,126670.0,1.3266098442691145,32.884266427963915,1.6159374611263382
63862.454191357894,5.99018714275735,PPG_1,PPG_2,126663.0,126663.0,-5.6444589617458405,33.959210520182225,1.6687403129812914
63862.46424200746,6.000237792322878,PPG_1,PPG_2,126650.0,126650.0,-18.615527767775347,34.868112220603194,1.7133869157073958
63862.474292657025,6.010288441888406,PPG_1,PPG_2,126641.0,126641.0,-27.586596573804854,35.66349464649399,1.752457282907307
63862.4843433066,6.02033909146121,PPG_1,PPG_2,126644.0,126644.0,-24.55766537983436,36.40503971496967,1.7888830790747048
63862.49439395616,6.030389741026738,PPG_1,PPG_2,126659.0,126659.0,-9.528734185849316,37.14435116652397,1.8251991566583603
63862.504444605736,6.040440390599542,PPG_1,PPG_2,126650.0,126650.0,-18.499802991878823,37.91145616373217,1.8628804945232813
63862.5144952553,6.0504910401650704,PPG_1,PPG_2,126629.0,126629.0,-39.47087179790833,38.70415371957687,1.901818976915118
63862.52454590487,6.060541689730599,PPG_1,PPG_2,126633.0,126633.0,-35.44194060393784,39.48091045740667,1.9399744226279485
63862.53459655444,6.070592339303403,PPG_1,PPG_2,126652.0,126652.0,-16.413009409952792,40.1598959251923,1.9733271982064104
63862.544647204006,6.080642988868931,PPG_1,PPG_2,126669.0,126669.0,0.6159217840177007,40.62689855860982,1.9962670618204617
63862.55469785358,6.090693638441735,PPG_1,PPG_2,126646.0,126646.0,-22.355147022011806,40.75127906200633,2.0023768170552083
63862.564748503144,6.100744288007263,PPG_1,PPG_2,126671.0,126671.0,2.6737841719732387,40.40556683222595,1.9853949183818846
63862.57479915271,6.110794937572791,PPG_1,PPG_2,126667.0,126667.0,-1.2972846340562683,39.48415381956626,1.9401337413989101
63862.58484980228,6.120845587145595,PPG_1,PPG_2,126636.0,126636.0,-32.268353440085775,37.91809711404895,1.863206707875484
63862.59490045185,6.1308962367111235,PPG_1,PPG_2,126665.0,126665.0,-3.239422246115282,35.68450181487798,1.7534891862482365
63862.60495110142,6.140946886283928,PPG_1,PPG_2,126640.0,126640.0,-28.210491052130237,32.8106674527626,1.612322170049933
63862.615001750986,6.150997535849456,PPG_1,PPG_2,126651.0,126651.0,-17.181559858159744,29.374098584205665,1.4435127983166696
63862.62505240055,6.161048185414984,PPG_1,PPG_2,126642.0,126642.0,-26.15262866418925,25.498858363965912,1.2531552376463242
63862.635103050125,6.171098834987788,PPG_1,PPG_2,126663.0,126663.0,-5.123697470218758,21.347902588061448,1.0492541189944415
63862.64515369969,6.181149484553316,PPG_1,PPG_2,126600.0,126600.0,-68.09476627623371,17.11060049980079,0.8411115411145194
63862.65520434926,6.19120013412612,PPG_1,PPG_2,126627.0,126627.0,-41.06583508226322,12.985428105964182,0.6384769405201842
63862.66525499883,6.201250783691648,PPG_1,PPG_2,126597.0,126597.0,-71.03690388829273,9.160645881959164,0.4505979516373096
63862.675305648394,6.2113014332571765,PPG_1,PPG_2,126636.0,126636.0,-32.00797269430768,5.797881329466777,0.2854139576289194
63862.68535629797,6.221352082829981,PPG_1,PPG_2,126607.0,126607.0,-60.97904150033719,3.021808879887649,0.1490491519102848
63862.69540694753,6.231402732395509,PPG_1,PPG_2,126622.0,126622.0,-45.950110306366696,0.9154670682113186,0.045582510767750536
63862.7054575971,6.241453381961037,PPG_1,PPG_2,126621.0,126621.0,-46.9211791123962,-0.4810778327401766,-0.023017850913902436
63862.71550824667,6.251504031533841,PPG_1,PPG_2,126614.0,126614.0,-53.89224791841116,-1.1706801435947594,-0.05689214160723913
63862.72555889624,6.261554681099369,PPG_1,PPG_2,126587.0,126587.0,-80.86331672444066,-1.1986234203013313,-0.05826475690040679
63862.73560954581,6.271605330672173,PPG_1,PPG_2,126613.0,126613.0,-54.83438553047017,-0.6508892951442502,-0.0313592423941714
63862.745660195375,6.281655980237701,PPG_1,PPG_2,126619.0,126619.0,-48.80545433649968,0.3513979636792047,0.01787459779052711
63862.75571084494,6.29170662980323,PPG_1,PPG_2,126628.0,126628.0,-39.776523142514634,1.662951139947176,0.08230003960439439
63862.76576149451,6.301757279376034,PPG_1,PPG_2,126639.0,126639.0,-28.74759194854414,3.1286896136071123,0.15429929244279483
63862.77581214408,6.311807928941562,PPG_1,PPG_2,126608.0,126608.0,-59.71866075457365,4.597110245023322,0.22643029685756222
63862.78586279365,6.321858578514366,PPG_1,PPG_2,126623.0,126623.0,-44.6897295605886,5.929533015190933,0.29188088414916463
63862.79591344322,6.331909228079894,PPG_1,PPG_2,126621.0,126621.0,-46.66079836661811,7.005461764589232,0.34473210382862085
63862.80596409278,6.341959877645422,PPG_1,PPG_2,126628.0,126628.0,-39.63186717264762,7.726379953996673,0.3801446770316292
63862.816014742355,6.352010527218226,PPG_1,PPG_2,126628.0,126628.0,-39.602935978677124,8.019488595499235,0.3945426092466221
63862.82606539192,6.3620611767837545,PPG_1,PPG_2,126626.0,126626.0,-41.57400478469208,7.8411167104127015,0.38578071707800116
63862.83611604149,6.372111826356559,PPG_1,PPG_2,126625.0,126625.0,-42.545073590721586,7.178986151954917,0.3532558797027534
63862.84616669106,6.382162475922087,PPG_1,PPG_2,126645.0,126645.0,-22.516142396751093,6.052887968393642,0.2979402628337767
63862.856217340624,6.392213125487615,PPG_1,PPG_2,126639.0,126639.0,-28.4872112027806,4.513095433704158,0.22230336442654353
63862.8662679902,6.402263775060419,PPG_1,PPG_2,126610.0,126610.0,-57.458280008795555,2.6349032181320178,0.13004377061890487
63862.87631863976,6.412314424625947,PPG_1,PPG_2,126594.0,126594.0,-73.42934881482506,0.5085009573840861,0.02559173039548847
63862.886369289336,6.422365074198751,PPG_1,PPG_2,126645.0,126645.0,-22.40041762085457,-1.773123411414334,-0.08648505053336261
63862.8964199389,6.432415723764279,PPG_1,PPG_2,126600.0,126600.0,-67.37148642686952,-4.123712828571086,-0.20194949716315244
63862.90647058847,6.4424663733298075,PPG_1,PPG_2,126621.0,126621.0,-46.34255523289903,-6.468793243567003,-0.3171433334169488
63862.91652123804,6.452517022902612,PPG_1,PPG_2,126615.0,126615.0,-52.31362403892854,-8.747236374986839,-0.42906384723643776
63862.926571887605,6.46256767246814,PPG_1,PPG_2,126634.0,126634.0,-33.284692844958045,-10.910476392206842,-0.5353254128219124
63862.93662253717,6.472618322033668,PPG_1,PPG_2,126606.0,126606.0,-61.255761650973,-12.920569395225906,-0.6340641693967409
63862.94667318674,6.482668971606472,PPG_1,PPG_2,126619.0,126619.0,-48.22683045700251,-14.748929726218114,-0.7238759469521898
63862.95672383631,6.492719621172,PPG_1,PPG_2,126587.0,126587.0,-80.19789926303201,-16.3765115308418,-0.8038251848088395
63862.96677448588,6.502770270744804,PPG_1,PPG_2,126643.0,126643.0,-24.16896806906152,-17.79405353684089,-0.8734569555053772
63862.97682513545,6.512820920310332,PPG_1,PPG_2,126601.0,126601.0,-66.14003687507648,-19.000815979545074,-0.9327349207014402
63862.98687578501,6.522871569875861,PPG_1,PPG_2,126618.0,126618.0,-49.11110568110598,-20.002327280353295,-0.9819306446748672
63862.996926434585,6.532922219448665,PPG_1,PPG_2,126624.0,126624.0,-43.08217448713549,-20.808923639109107,-1.0215518569280884
63863.00697708415,6.542972869014193,PPG_1,PPG_2,126590.0,126590.0,-77.05324329315044,-21.435908448701017,-1.0523502828702853
63863.01702773373,6.553023518586997,PPG_1,PPG_2,126605.0,126605.0,-62.02431209917995,-21.904531423018653,-1.0753697400381994
63863.02707838329,6.563074168152525,PPG_1,PPG_2,126625.0,126625.0,-41.99538090520946,-22.24164505284032,-1.0919292626986057
63863.037129032855,6.573124817718053,PPG_1,PPG_2,126620.0,126620.0,-46.966449711238965,-22.47612061433129,-1.1034470508576761
63863.04717968243,6.583175467290857,PPG_1,PPG_2,126634.0,126634.0,-32.93751851725392,-22.632908375049528,-1.1111486987496983
63863.05723033199,6.5932261168563855,PPG_1,PPG_2,126607.0,126607.0,-59.90858732328343,-22.728094226371095,-1.1158243692728493
63863.067280981566,6.60327676642919,PPG_1,PPG_2,126626.0,126626.0,-40.879656129312934,-22.767439483824138,-1.1177570668108214
63863.07733163113,6.613327415994718,PPG_1,PPG_2,126642.0,126642.0,-24.85072493534244,-22.748420539038598,-1.1168228279688033
63863.0873822807,6.623378065560246,PPG_1,PPG_2,126602.0,126602.0,-64.8217937413574,-22.66498680274929,-1.1127244388070952
63863.09743293027,6.63342871513305,PPG_1,PPG_2,126610.0,126610.0,-56.7928625473869,-22.5145763233412,-1.1053360524536913
63863.107483579835,6.643479364698578,PPG_1,PPG_2,126637.0,126637.0,-29.76393135341641,-22.305633980866915,-1.0950724939711949
63863.11753422941,6.653530014271382,PPG_1,PPG_2,126623.0,126623.0,-43.735000159431365,-22.062617498196005,-1.083135163066568
63863.127584878974,6.66358066383691,PPG_1,PPG_2,126608.0,126608.0,-58.70606896546087,-21.827156641673202,-1.0715689757507638
63863.13763552854,6.6736313134024385,PPG_1,PPG_2,126639.0,126639.0,-27.67713777149038,-21.65579058231305,-1.0631512201569002
63863.14768617811,6.683681962975243,PPG_1,PPG_2,126639.0,126639.0,-27.648206577519886,-21.61423492473753,-1.0611099444788628
63863.15773682768,6.693732612540771,PPG_1,PPG_2,126628.0,126628.0,-38.61927538353484,-21.768481183149195,-1.0686867499993102
63863.16778747724,6.703783262106299,PPG_1,PPG_2,126636.0,126636.0,-30.590344189564348,-22.17465228066937,-1.088638478136038
63863.177838126816,6.713833911679103,PPG_1,PPG_2,126671.0,126671.0,4.438587004406145,-22.869656644592677,-1.12277812570697
63863.18788877638,6.723884561244631,PPG_1,PPG_2,126619.0,126619.0,-47.53248180162336,-23.864306242198168,-1.1716367926182583
63863.197939425954,6.733935210817435,PPG_1,PPG_2,126633.0,126633.0,-33.50355060763832,-25.140761073605194,-1.234338151554269
63863.20799007552,6.743985860382963,PPG_1,PPG_2,126652.0,126652.0,-14.474619413667824,-26.65456141417862,-1.3086982747457205
63863.218040725085,6.754036509948492,PPG_1,PPG_2,126653.0,126653.0,-13.445688219697331,-28.339438274684255,-1.3914619309238967
63863.22809137466,6.764087159521296,PPG_1,PPG_2,126621.0,126621.0,-45.416757025712286,-30.11420414907664,-1.4786410690959828
63863.23814202422,6.774137809086824,PPG_1,PPG_2,126644.0,126644.0,-22.387825831741793,-31.892596790830588,-1.5659983594725335
63863.2481926738,6.784188458659628,PPG_1,PPG_2,126641.0,126641.0,-25.3588946377713,-33.5954339034398,-1.6496442499343043
63863.25824332336,6.794239108225156,PPG_1,PPG_2,126616.0,126616.0,-50.32996344380081,-35.162735526044635,-1.726632435635802
63863.26829397293,6.804289757790684,PPG_1,PPG_2,126621.0,126621.0,-45.30103224981576,-36.56354012506975,-1.7954420400194304
63863.2783446225,6.814340407363488,PPG_1,PPG_2,126646.0,126646.0,-20.27210105584527,-37.80085433242865,-1.856220753314533
63863.288395272066,6.8243910569290165,PPG_1,PPG_2,126645.0,126645.0,-21.243169861874776,-38.90944745793544,-1.9106764957083118
63863.29844592164,6.834441706501821,PPG_1,PPG_2,126633.0,126633.0,-33.21423866790428,-39.947082902078265,-1.961646691305605
63863.3084965712,6.844492356067349,PPG_1,PPG_2,126636.0,126636.0,-30.185307473919238,-40.982191360434385,-2.01249275760436
63863.31854722077,6.854543005632877,PPG_1,PPG_2,126650.0,126650.0,-16.156376279948745,-42.080020623653596,-2.066419763080682
63863.32859787034,6.864593655205681,PPG_1,PPG_2,126686.0,126686.0,19.872554914021748,-43.288068981993035,-2.1257608943644306
63863.33864851991,6.874644304771209,PPG_1,PPG_2,126657.0,126657.0,-9.098513891993207,-44.62362410620122,-2.1913653475431607
63863.34869916948,6.884694954344013,PPG_1,PPG_2,126625.0,126625.0,-41.069582698022714,-46.068631164447574,-2.2623462424364815
63863.358749819046,6.894745603909541,PPG_1,PPG_2,126646.0,126646.0,-20.04065150405222,-47.57456225058591,-2.336319816151404
63863.36880046861,6.9047962534750695,PPG_1,PPG_2,126670.0,126670.0,3.988279689918272,-49.074202876067716,-2.4099843930872837
63863.378851118185,6.914846903047874,PPG_1,PPG_2,126635.0,126635.0,-30.982789116096683,-50.49575638182394,-2.4798132146155116
63863.38890176775,6.924897552613402,PPG_1,PPG_2,126636.0,126636.0,-29.95385792212619,-51.777778037699235,-2.5427880242452177
63863.39895241732,6.934948202186206,PPG_1,PPG_2,126641.0,126641.0,-24.924926728155697,-52.88431227895383,-2.5971426311837273
63863.40900306689,6.944998851751734,PPG_1,PPG_2,126624.0,126624.0,-41.895995534185204,-53.817152676892555,-2.642965138319913
63863.419053716454,6.955049501317262,PPG_1,PPG_2,126625.0,126625.0,-40.86706434020016,-54.62094087973284,-2.682448409779872
63863.42910436603,6.965100150890066,PPG_1,PPG_2,126687.0,126687.0,21.161866853770334,-55.378036597647124,-2.7196380769657713
63863.43915501559,6.975150800455594,PPG_1,PPG_2,126668.0,126668.0,2.1907980477408273,-56.19340630397543,-2.7596902490944837
63863.44920566516,6.985201450021123,PPG_1,PPG_2,126645.0,126645.0,-20.780270758274128,-57.17467703902528,-2.8078917263876075
63863.45925631473,6.995252099593927,PPG_1,PPG_2,126643.0,126643.0,-22.751339564303635,-58.413972581112674,-2.868767765790087
63863.469306964296,7.005302749159455,PPG_1,PPG_2,126670.0,126670.0,4.277591629666858,-59.973576006534884,-2.9453778046015957
63863.47935761387,7.015353398732259,PPG_1,PPG_2,126667.0,126667.0,1.3065228236373514,-61.87346098018791,-3.0387029789352935
63863.489408263435,7.025404048297787,PPG_1,PPG_2,126676.0,126676.0,10.335454017622396,-64.08051949360419,-3.1471169741958636
63863.499458913,7.035454697863315,PPG_1,PPG_2,126683.0,126683.0,17.36438521159289,-66.50293903197228,-3.2661098231644377
63863.50950956257,7.045505347436119,PPG_1,PPG_2,126654.0,126654.0,-11.606683594436618,-68.99387192643484,-3.38846815003845
63863.51956021214,7.0555559970016475,PPG_1,PPG_2,126632.0,126632.0,-33.577752400466125,-71.36603020933315,-3.5049920914184094
63863.52961086171,7.065606646574452,PPG_1,PPG_2,126645.0,126645.0,-20.54882120648108,-73.41429418094177,-3.605605862716501
63863.53966151128,7.07565729613998,PPG_1,PPG_2,126635.0,126635.0,-30.519890012510587,-74.93945639648956,-3.680524098097609
63863.54971216084,7.085707945705508,PPG_1,PPG_2,126687.0,126687.0,21.509041181459907,-75.76653082014533,-3.721151223342042
63863.559762810415,7.095758595278312,PPG_1,PPG_2,126672.0,126672.0,6.5379723754449515,-75.7558930928275,-3.7206286823618155
63863.56981345998,7.10580924484384,PPG_1,PPG_2,126638.0,126638.0,-27.433096430584555,-74.81061593949642,-3.6741952633118906
63863.57986410955,7.115859894416644,PPG_1,PPG_2,126670.0,126670.0,4.5958347633859375,-72.88369059010648,-3.5795418255229356
63863.58991475912,7.125910543982172,PPG_1,PPG_2,126645.0,126645.0,-20.37523404264357,-69.98440971552985,-3.437124838802962
63863.599965408685,7.1359611935477005,PPG_1,PPG_2,126679.0,126679.0,13.653697151341476,-66.17987092275155,-3.2502402373564556
63863.61001605826,7.146011843120505,PPG_1,PPG_2,126670.0,126670.0,4.682628345311969,-61.58856831033998,-3.0247086274620942
63863.62006670782,7.156062492686033,PPG_1,PPG_2,126715.0,126715.0,49.71155953928246,-56.36593952518989,-2.7681653374137696
63863.63011735739,7.166113142251561,PPG_1,PPG_2,126708.0,126708.0,42.740490733252955,-50.6845069956995,-2.489084925371589
63863.64016800696,7.176163791824365,PPG_1,PPG_2,126683.0,126683.0,17.769421927238,-44.71308715426443,-2.1957599054625643
63863.65021865653,7.186214441389893,PPG_1,PPG_2,126739.0,126739.0,73.79835312120849,-38.59860759475989,-1.895407579524958
63863.6602693061,7.196265090962697,PPG_1,PPG_2,126750.0,126750.0,84.82728431517899,-32.45147237543676,-1.593451159030147
63863.670319955665,7.206315740528225,PPG_1,PPG_2,126707.0,126707.0,41.85621550916403,-26.335354898588346,-1.293018376157631
63863.68037060523,7.216366390093754,PPG_1,PPG_2,126749.0,126749.0,83.88514670313452,-20.26353015861477,-0.9947613183673619
63863.6904212548,7.226417039666558,PPG_1,PPG_2,126754.0,126754.0,88.91407789710502,-14.201949229815282,-0.6970074518107311
63863.70047190437,7.236467689232086,PPG_1,PPG_2,126744.0,126744.0,78.94300909107551,-8.076802353667837,-0.3961311314212619
63863.71052255394,7.24651833880489,PPG_1,PPG_2,126776.0,126776.0,110.97194028506055,-1.7849742231457237,-0.08706718002339235
63863.72057320351,7.256568988370418,PPG_1,PPG_2,126784.0,126784.0,119.00087147903105,4.792868604905289,0.23604623851540693
63863.73062385307,7.266619637935946,PPG_1,PPG_2,126776.0,126776.0,111.02980267300154,11.77635555398794,0.5790854993223977
63863.740674502646,7.27667028750875,PPG_1,PPG_2,126776.0,126776.0,111.05873386697203,19.266421184436435,0.9470086580536407
63863.75072515221,7.2867209370742785,PPG_1,PPG_2,126783.0,126783.0,118.08766506095708,27.32471931099126,1.3428442417456594
63863.760775801784,7.296771586647083,PPG_1,PPG_2,126821.0,126821.0,156.11659625492757,35.955371922695576,1.7667947286281305
63863.77082645135,7.306822236212611,PPG_1,PPG_2,126808.0,126808.0,143.14552744889806,45.092638245016694,2.2156308341237363
63863.780877100915,7.316872885778139,PPG_1,PPG_2,126792.0,126792.0,127.17445864288311,54.59554128034853,2.682427558529294
63863.79092775049,7.326923535350943,PPG_1,PPG_2,126844.0,126844.0,179.2033898368536,64.25007001138066,3.156672362519106
63863.80097840005,7.336974184916471,PPG_1,PPG_2,126870.0,126870.0,205.2323210308241,73.78088864694242,3.6248403427081537
63863.811029049626,7.347024834489275,PPG_1,PPG_2,126855.0,126855.0,190.2612522247946,82.87252669739944,4.071435119657393
63863.82107969919,7.357075484054803,PPG_1,PPG_2,126873.0,126873.0,208.29018341877963,91.1958321817851,4.48028825873421
63863.83113034876,7.3671261336203315,PPG_1,PPG_2,126856.0,126856.0,191.31911461275013,98.4352868734852,4.835901035588146
63863.84118099833,7.377176783193136,PPG_1,PPG_2,126921.0,126921.0,256.3480458067206,104.31623988249365,5.12478219019758
63863.851231647895,7.387227432758664,PPG_1,PPG_2,126903.0,126903.0,238.3769770006911,108.63203378092402,5.336780402481395
63863.86128229747,7.397278082331468,PPG_1,PPG_2,126898.0,126898.0,233.40590819467616,111.26805985456296,5.466265922016566
63863.871332947034,7.407328731896996,PPG_1,PPG_2,126893.0,126893.0,228.43483938864665,112.21824031059009,5.512940198584322
63863.8813835966,7.417379381462524,PPG_1,PPG_2,126946.0,126946.0,281.46377058261714,111.59196391219814,5.482176570853413
63863.89143424617,7.427430031035328,PPG_1,PPG_2,126916.0,126916.0,251.4927017766022,109.61128950459651,5.384882899420084
63863.90148489574,7.437480680600856,PPG_1,PPG_2,126899.0,126899.0,234.52163297057268,106.59636048501443,5.236785103891328
63863.9115355453,7.447531330166385,PPG_1,PPG_2,126928.0,126928.0,263.5505641645432,102.93640006522315,5.057002407060632
63863.92158619488,7.457581979739189,PPG_1,PPG_2,126868.0,126868.0,203.57949535851367,99.04705160676816,4.865951828755411
63863.93163684444,7.467632629304717,PPG_1,PPG_2,126873.0,126873.0,208.6084265524987,95.31855788370436,4.682802674184237
63863.941687494014,7.477683278877521,PPG_1,PPG_2,126825.0,126825.0,160.6373577464692,92.06218848131003,4.5228449681189895
63863.95173814358,7.487733928443049,PPG_1,PPG_2,126858.0,126858.0,193.6662889404397,89.46536297565986,4.395285038760205
63863.961788793145,7.497784578008577,PPG_1,PPG_2,126852.0,126852.0,187.6952201344102,87.56633988029803,4.302002201169466
63863.97183944272,7.507835227581381,PPG_1,PPG_2,126831.0,126831.0,166.72415132839524,86.25515132967749,4.2375946703094645
63863.98189009229,7.517885877146909,PPG_1,PPG_2,126893.0,126893.0,228.75308252236573,85.30179091221291,4.190764189308472
63863.99194074186,7.527936526719714,PPG_1,PPG_2,126946.0,126946.0,281.7820137163362,84.40770247225038,4.146845235957938
63864.00199139142,7.537987176285242,PPG_1,PPG_2,126916.0,126916.0,251.81094491032127,83.27000693659839,4.090959939913283
63864.01204204099,7.54803782585077,PPG_1,PPG_2,126899.0,126899.0,234.83987610429176,81.64169854178509,4.010975010866348
63864.02209269056,7.558088475423574,PPG_1,PPG_2,126928.0,126928.0,263.86880729826225,79.3728736774141,3.8995269606231124
63864.032143340126,7.568139124989102,PPG_1,PPG_2,126868.0,126868.0,203.89773849223275,76.42694290705622,3.754818461671183
63864.0421939897,7.578189774561906,PPG_1,PPG_2,126873.0,126873.0,208.9266696862178,72.87318062168741,3.580252375080756
63864.052244639264,7.588240424127434,PPG_1,PPG_2,126825.0,126825.0,160.95560088018829,68.86123583751706,3.3831796830009
63864.06229528883,7.598291073692963,PPG_1,PPG_2,126858.0,126858.0,193.98453207415878,64.58686507134526,3.1732162365545378
63864.0723459384,7.608341723265767,PPG_1,PPG_2,126852.0,126852.0,188.01346326812927,60.259040320715336,2.9606270509252433
63864.08239658797,7.618392372831295,PPG_1,PPG_2,126831.0,126831.0,167.04239446211432,56.074810950190084,2.755091483840031
63864.09244723753,7.628443022396823,PPG_1,PPG_2,126853.0,126853.0,189.0713256560848,52.20341526853515,2.5649227726203825
63864.10249788711,7.638493671969627,PPG_1,PPG_2,126869.0,126869.0,205.1002568500553,48.778745507585164,2.396697902742354
63864.11254853667,7.648544321535155,PPG_1,PPG_2,126831.0,126831.0,167.12918804404035,45.89796208955893,2.255189538587028
63864.122599186245,7.658594971107959,PPG_1,PPG_2,126844.0,126844.0,180.15811923801084,43.62283870036446,2.1434320954408803
63864.13264983581,7.668645620673487,PPG_1,PPG_2,126858.0,126858.0,194.18705043198133,41.98142012045518,2.0628031746120232
63864.142700485376,7.678696270239016,PPG_1,PPG_2,126841.0,126841.0,177.21598162595183,40.96945628859265,2.0130940067741525
63864.15275113495,7.68874691981182,PPG_1,PPG_2,126796.0,126796.0,132.24491281993687,40.55126421785516,1.9925517905622387
63864.162801784514,7.698797569377348,PPG_1,PPG_2,126850.0,126850.0,186.27384401390736,40.66072322892342,1.9979285799110686
63864.17285243409,7.708848218950152,PPG_1,PPG_2,126850.0,126850.0,186.30277520787786,41.2054371681284,2.0246857383934347
63864.18290308365,7.71889886851568,PPG_1,PPG_2,126858.0,126858.0,194.33170640184835,42.075504212681516,2.0674247250905076
63864.19295373322,7.728949518081208,PPG_1,PPG_2,126833.0,126833.0,169.3606375958334,43.153367938837015,2.120370993704874
63864.20300438279,7.739000167654012,PPG_1,PPG_2,126834.0,126834.0,170.3895687898039,44.32006046787213,2.1776806651723373
63864.21305503235,7.7490508172195405,PPG_1,PPG_2,126832.0,126832.0,168.41849998377438,45.457168808065376,2.233537117303116
63864.22310568193,7.759101466792345,PPG_1,PPG_2,126812.0,126812.0,148.44743117775943,46.44771842832721,2.2821943872321304
63864.233156331495,7.769152116357873,PPG_1,PPG_2,126863.0,126863.0,199.47636237172992,47.1797918253616,2.318154920817452
63864.24320698106,7.779202765923401,PPG_1,PPG_2,126857.0,126857.0,193.5052935657004,47.554442599390306,2.3365583238051895
63864.25325763063,7.789253415496205,PPG_1,PPG_2,126839.0,126839.0,175.5342247596709,47.49542050726066,2.3336590708957106
63864.2633082802,7.799304065061733,PPG_1,PPG_2,126839.0,126839.0,175.56315595365595,46.95580186538629,2.307152200993051
63864.27335892977,7.809354714634537,PPG_1,PPG_2,126860.0,126860.0,196.59208714762644,45.918595189671805,2.256203067138378
63864.28340957934,7.819405364200065,PPG_1,PPG_2,126812.0,126812.0,148.62101834159694,44.39155008726417,2.181192341555557
63864.2934602289,7.8294560137655935,PPG_1,PPG_2,126820.0,126820.0,156.64994953556743,42.39757981818921,2.0832455576406184
63864.303510878475,7.839506663338398,PPG_1,PPG_2,126796.0,126796.0,132.67888072955247,39.96361108870198,1.963685395234887
63864.31356152804,7.849557312903926,PPG_1,PPG_2,126825.0,126825.0,161.70781192352297,37.11276351361235,1.8236475241881582
63864.32361217761,7.85960796247673,PPG_1,PPG_2,126826.0,126826.0,162.73674311749346,33.86394942577119,1.6640609464057272
63864.33366282718,7.869658612042258,PPG_1,PPG_2,126819.0,126819.0,155.7656743114785,30.23863405269935,1.4859800657742905
63864.343713476745,7.879709261607786,PPG_1,PPG_2,126814.0,126814.0,150.794605505449,26.27055987124728,1.2910623629193534
63864.35376412632,7.88975991118059,PPG_1,PPG_2,126816.0,126816.0,152.8235366994195,22.01384016807926,1.081965962928354
63864.36381477588,7.899810560746118,PPG_1,PPG_2,126794.0,126794.0,130.85246789338998,17.54679641453148,0.8625381329084515
63864.37386542545,7.909861210311647,PPG_1,PPG_2,126803.0,126803.0,139.88139908737503,12.97068254594193,0.6377526166906848
63864.38391607502,7.919911859884451,PPG_1,PPG_2,126772.0,126772.0,108.91033028134552,8.403573084758577,0.4134094103509419
63864.39396672459,7.929962509449979,PPG_1,PPG_2,126776.0,126776.0,112.93926147531602,3.9707757516281394,0.19566381541372876
63864.40401737416,7.940013159022783,PPG_1,PPG_2,126782.0,126782.0,118.96819266928651,-0.20603912474648378,-0.00950754069618808
63864.414068023725,7.950063808588311,PPG_1,PPG_2,126781.0,126781.0,117.99712386327155,-4.0192432032952485,-0.19681779386182185
63864.42411867329,7.960114458153839,PPG_1,PPG_2,126740.0,126740.0,77.02605505724205,-7.3852112741482365,-0.3621591494545344
63864.43416932286,7.970165107726643,PPG_1,PPG_2,126748.0,126748.0,85.05498625121254,-10.25426983855992,-0.5030915713697832
63864.44421997243,7.9802157572921715,PPG_1,PPG_2,126738.0,126738.0,75.08391744519759,-12.618601256716683,-0.619231045517978
63864.454270622,7.990266406864976,PPG_1,PPG_2,126751.0,126751.0,88.11284863916808,-14.514154874650359,-0.712343457219614
63864.46432127157,8.000317056430504,PPG_1,PPG_2,126763.0,126763.0,100.14177983313857,-16.01445773134467,-0.7860405639371455
63864.47437192113,8.010367705996032,PPG_1,PPG_2,126774.0,126774.0,111.17071102710906,-17.21839783354409,-0.8451798915718356
63864.484422570706,8.020418355568836,PPG_1,PPG_2,126721.0,126721.0,58.19964222109411,-18.23721703636679,-0.8952258054226772
63864.49447322027,8.030469005134364,PPG_1,PPG_2,126747.0,126747.0,84.2285734150646,-19.185312431691617,-0.9417976607090199
63864.50452386984,8.040519654707168,PPG_1,PPG_2,126744.0,126744.0,81.2575046090351,-20.175374548644786,-0.9904309837507753
63864.51457451941,8.050570304272696,PPG_1,PPG_2,126720.0,126720.0,57.28643580300559,-21.315573589639513,-1.0464392556996547
63864.524625168975,8.060620953838225,PPG_1,PPG_2,126739.0,126739.0,76.31536699699063,-22.707172796802702,-1.1147966775500044
63864.53467581855,8.070671603411029,PPG_1,PPG_2,126718.0,126718.0,55.344298190961126,-24.442015384239102,-1.2000147245156174
63864.54472646811,8.080722252976557,PPG_1,PPG_2,126738.0,126738.0,75.37322938493162,-26.599445850661745,-1.3059909163292673
63864.55477711768,8.090772902542085,PPG_1,PPG_2,126694.0,126694.0,31.402160578916664,-29.24268864788444,-1.4358309320554776
63864.56482776725,8.100823552114889,PPG_1,PPG_2,126704.0,126704.0,41.43109177288716,-32.4147308353952,-1.5916463599621937
63864.57487841682,8.110874201680417,PPG_1,PPG_2,126712.0,126712.0,49.46002296685765,-36.13248462308842,-1.774267952941644
63864.58492906639,8.120924851253221,PPG_1,PPG_2,126741.0,126741.0,78.48895416082814,-40.37802835991771,-1.982815372851547
63864.594979715956,8.13097550081875,PPG_1,PPG_2,126692.0,126692.0,29.51788535481319,-45.089164161538754,-2.2142333671476093
63864.60503036552,8.141026150384278,PPG_1,PPG_2,126692.0,126692.0,29.54681654878368,-50.154673299457805,-2.46305870654501
63864.615081015094,8.151076799957082,PPG_1,PPG_2,126684.0,126684.0,21.575747742754174,-55.41769683783938,-2.7215862469241565
63864.62513166466,8.16112744952261,PPG_1,PPG_2,126646.0,126646.0,-16.395321063275333,-60.68580709003225,-2.98036365424778
63864.63518231423,8.171178099095414,PPG_1,PPG_2,126706.0,126706.0,43.63361013070971,-65.74387853124936,-3.2288236429260717
63864.6452329638,8.181228748660942,PPG_1,PPG_2,126653.0,126653.0,-9.337458675319795,-70.36715638349027,-3.455925924136232
63864.65528361336,8.19127939822647,PPG_1,PPG_2,126662.0,126662.0,-0.3085274813493015,-74.33493821924921,-3.650829266536112
63864.665334262936,8.201330047799274,PPG_1,PPG_2,126660.0,126660.0,-2.2795962873642566,-77.44666438604254,-3.8036818818375235
63864.6753849125,8.211380697364802,PPG_1,PPG_2,126631.0,126631.0,-31.250665093393764,-79.54062557183485,-3.9065403682312128
63864.685435562074,8.221431346937607,PPG_1,PPG_2,126623.0,126623.0,-39.22173389942327,-80.51322914932749,-3.954316101860261
63864.69548621164,8.231481996503135,PPG_1,PPG_2,126602.0,126602.0,-60.19280270545278,-80.33484674426495,-3.9455536929347796
63864.705536861205,8.241532646068663,PPG_1,PPG_2,126648.0,126648.0,-14.163871511467732,-79.05664912178582,-3.88276672551042
63864.71558751078,8.251583295641467,PPG_1,PPG_2,126652.0,126652.0,-10.13494031749724,-76.80420641216614,-3.7721233910627867
63864.725638160344,8.261633945206995,PPG_1,PPG_2,126663.0,126663.0,0.8939908764732536,-73.75922690922897,-3.6225494711176487
63864.73568880992,8.2716845947798,PPG_1,PPG_2,126646.0,126646.0,-16.077077929556253,-70.13623399914412,-3.4445826733207787
63864.74573945948,8.281735244345327,PPG_1,PPG_2,126650.0,126650.0,-12.048146735571208,-66.16126855848752,-3.2493264615689554
63864.75579010905,8.291785893910856,PPG_1,PPG_2,126631.0,126631.0,-31.019215541600715,-62.05553988540536,-3.047646965443716
63864.76584075862,8.30183654348366,PPG_1,PPG_2,126671.0,126671.0,9.009715652369778,-58.02286494718399,-2.8495559773787846
63864.775891408186,8.311887193049188,PPG_1,PPG_2,126648.0,126648.0,-13.961353153645177,-54.23885885833793,-2.6636799728739837
63864.78594205776,8.321937842621992,PPG_1,PPG_2,126655.0,126655.0,-6.932421959674684,-50.84165803080807,-2.4968044178417195
63864.79599270733,8.33198849218752,PPG_1,PPG_2,126657.0,126657.0,-4.903490765704191,-47.925325945656375,-2.353549850309441
63864.80604335689,8.342039141753048,PPG_1,PPG_2,126671.0,126671.0,9.125440428266302,-45.536582888029336,-2.2362112401393666
63864.81609400646,8.352089791325852,PPG_1,PPG_2,126666.0,126666.0,4.154371622251347,-43.67523973352768,-2.1447792972598463
63864.82614465603,8.36214044089138,PPG_1,PPG_2,126676.0,126676.0,14.18330281622184,-42.29975331501829,-2.077213359541942
63864.836195305594,8.372191090456909,PPG_1,PPG_2,126608.0,126608.0,-53.78776598980767,-41.33941459328093,-2.030040093860907
63864.84624595517,8.382241740029713,PPG_1,PPG_2,126652.0,126652.0,-9.758834795837174,-40.711763697816195,-1.9992089487904134
63864.85629660473,8.39229238959524,PPG_1,PPG_2,126625.0,126625.0,-36.72990360185213,-40.33962074960124,-1.9809287339348587
63864.866347254305,8.402343039168045,PPG_1,PPG_2,126658.0,126658.0,-3.700972407881636,-40.161315835482306,-1.9721701314797273
63864.87639790387,8.412393688733573,PPG_1,PPG_2,126647.0,126647.0,-14.672041213911143,-40.131632139066795,-1.9707120241830949
63864.88644855344,8.422444338299101,PPG_1,PPG_2,126658.0,126658.0,-3.64311001994065,-40.215629361164076,-1.974838092605386
63864.89649920301,8.432494987871905,PPG_1,PPG_2,126637.0,126637.0,-24.614178825955605,-40.37946682483322,-1.9828860323866637
63864.906549852574,8.442545637437433,PPG_1,PPG_2,126656.0,126656.0,-5.585247631985112,-40.581590530924544,-1.9928146493132326
63864.91660050215,8.452596287010238,PPG_1,PPG_2,126666.0,126666.0,4.443683561985381,-40.76613386838876,-2.001879692397318
63864.92665115171,8.462646936575766,PPG_1,PPG_2,126634.0,126634.0,-27.527385244029574,-40.86020413944245,-2.0065005639592544
63864.93670180128,8.472697586141294,PPG_1,PPG_2,126635.0,126635.0,-26.49845405005908,-40.7769823118271,-2.002412584066641
63864.94675245085,8.482748235714098,PPG_1,PPG_2,126649.0,126649.0,-12.469522856088588,-40.42476482119158,-1.985111137309191
63864.95680310042,8.492798885279626,PPG_1,PPG_2,126628.0,126628.0,-33.440591662118095,-39.719713347815315,-1.9504779607855856
63864.96685374999,8.50284953485243,PPG_1,PPG_2,126603.0,126603.0,-58.41166046813305,-38.59973028513047,-1.8954627277449871
63864.976904399555,8.512900184417958,PPG_1,PPG_2,126620.0,126620.0,-41.38272927416256,-37.036535974136235,-1.818676299295859
63864.98695504912,8.522950833983487,PPG_1,PPG_2,126649.0,126649.0,-12.353798080192064,-35.04166669479922,-1.7206853546603518
63864.99700569869,8.53300148355629,PPG_1,PPG_2,126632.0,126632.0,-29.32486688622157,-32.66359699026249,-1.6038710354614112
63865.00705634826,8.543052133121819,PPG_1,PPG_2,126643.0,126643.0,-18.295935692236526,-29.97784577876874,-1.471942943231881
63865.017106997824,8.553102782687347,PPG_1,PPG_2,126642.0,126642.0,-19.267004498266033,-27.074439392079288,-1.3293233052238114
63865.0271576474,8.563153432260151,PPG_1,PPG_2,126654.0,126654.0,-7.23807330429554,-24.04589561464636,-1.1805567325493003
63865.03720829696,8.57320408182568,PPG_1,PPG_2,126650.0,126650.0,-11.209142110310495,-20.977521567379043,-1.0298336378076112
63865.047258946535,8.583254731398483,PPG_1,PPG_2,126619.0,126619.0,-42.18021091634,-17.94144560685507,-0.8806970731020912
63865.0573095961,8.593305380964011,PPG_1,PPG_2,126664.0,126664.0,2.848720277630491,-14.99444520961145,-0.7359360324873944
63865.067360245666,8.60335603052954,PPG_1,PPG_2,126644.0,126644.0,-17.122348528399016,-12.177816984204098,-0.5975790667686046
63865.07741089524,8.613406680102344,PPG_1,PPG_2,126651.0,126651.0,-10.09341733441397,-9.517973206761244,-0.46692358621444857
63865.087461544805,8.623457329667872,PPG_1,PPG_2,126656.0,126656.0,-5.064486140443478,-7.028316532867325,-0.3446279491920368
63865.09751219438,8.633507979240676,PPG_1,PPG_2,126637.0,126637.0,-24.035554946472985,-4.713205980781886,-0.23090627715852988
63865.10756284394,8.643558628806204,PPG_1,PPG_2,126649.0,126649.0,-12.006623752502492,-2.5735093487482468,-0.12580119765373526
63865.11761349351,8.653609278371732,PPG_1,PPG_2,126644.0,126644.0,-16.977692558517447,-0.6120295759547598,-0.029450395217521186
63865.12766414308,8.663659927944536,PPG_1,PPG_2,126657.0,126657.0,-3.9487613645469537,1.1630904070363415,0.057746137295362675
63865.13771479265,8.673710577510064,PPG_1,PPG_2,126647.0,126647.0,-13.91983017057646,2.7377802733245655,0.13509724451018026
63865.14776544222,8.683761227082869,PPG_1,PPG_2,126636.0,126636.0,-24.890898976591416,4.093880283597704,0.20171089303508483
63865.157816091785,8.693811876648397,PPG_1,PPG_2,126659.0,126659.0,-1.8619677826209227,5.213215589598918,0.256694307304408
63865.16786674135,8.703862526213925,PPG_1,PPG_2,126671.0,126671.0,10.16696341134957,6.084205435911625,0.29947862339577747
63865.17791739092,8.713913175786729,PPG_1,PPG_2,126658.0,126658.0,-2.8041053946799366,6.709807580612694,0.33020913078302383
63865.18796804049,8.723963825352257,PPG_1,PPG_2,126640.0,126640.0,-20.77517420069489,7.113469625505203,0.3500376105246455
63865.19801869006,8.734014474925061,PPG_1,PPG_2,126652.0,126652.0,-8.746243006724399,7.340720527002803,0.36120051264443814
63865.20806933963,8.74406512449059,PPG_1,PPG_2,126679.0,126679.0,18.282688187246094,7.457088245297726,0.3669166679629399
63865.21811998919,8.754115774056118,PPG_1,PPG_2,126633.0,126633.0,-27.688380618783413,7.543463629061221,0.3711595552217242
63865.228170638766,8.764166423628922,PPG_1,PPG_2,126651.0,126651.0,-9.659449424798368,7.6882386330989805,0.3782711186470652
63865.23822128833,8.77421707319445,PPG_1,PPG_2,126648.0,126648.0,-12.630518230827875,7.975994655866398,0.39240612227241906
63865.248271937904,8.784267722767254,PPG_1,PPG_2,126640.0,126640.0,-20.60158703685738,8.474691889067723,0.4169028717460249
63865.25832258747,8.794318372332782,PPG_1,PPG_2,126610.0,126610.0,-50.57265584287234,9.223979395192154,0.453708987960877
63865.268373237035,8.80436902189831,PPG_1,PPG_2,126635.0,126635.0,-25.543724648901843,10.227584490241732,0.5030075622201388
63865.27842388661,8.814419671471114,PPG_1,PPG_2,126657.0,126657.0,-3.5147934549313504,11.453566900776822,0.5632296408090556
63865.28847453617,8.824470321036642,PPG_1,PPG_2,126680.0,126680.0,19.514137739039143,12.84395539160861,0.6315275904733185
63865.29852518574,8.83452097060217,PPG_1,PPG_2,126624.0,126624.0,-36.45693106697581,14.329756469649098,0.7045123482645809
63865.30857583531,8.844571620174975,PPG_1,PPG_2,126679.0,126679.0,18.57200012699468,15.844760869350129,0.7789316166303718
63865.31862648488,8.854622269740503,PPG_1,PPG_2,126656.0,126656.0,-4.399068679034826,17.3344476525484,0.8521072460355942
63865.32867713445,8.864672919313307,PPG_1,PPG_2,126624.0,126624.0,-36.37013748506433,18.759553170077,0.9221105476626121
63865.338727784016,8.874723568878835,PPG_1,PPG_2,126648.0,126648.0,-12.341206291079288,20.095320948214358,0.9877254467184808
63865.34877843358,8.884774218444363,PPG_1,PPG_2,126667.0,126667.0,6.687724902891205,21.329163306951926,1.0483336176479459
63865.358829083154,8.894824868017167,PPG_1,PPG_2,126641.0,126641.0,-19.283343903138302,22.459504935683615,1.1038576788521304
63865.36887973272,8.904875517582695,PPG_1,PPG_2,126639.0,126639.0,-21.254412709153257,23.495827163446545,1.154763367308575
63865.37893038229,8.9149261671555,PPG_1,PPG_2,126642.0,126642.0,-18.225481515182764,24.459101589903835,1.2020808391697624
63865.38898103186,8.924976816721028,PPG_1,PPG_2,126693.0,126693.0,32.80344967878773,25.38352162463867,1.2474897255474002
63865.39903168142,8.935027466286556,PPG_1,PPG_2,126668.0,126668.0,7.832380872758222,26.31929925114279,1.293456513717293
63865.40908233099,8.94507811585936,PPG_1,PPG_2,126644.0,126644.0,-16.138687933256733,27.332330916380016,1.3432181351180035
63865.41913298056,8.955128765424888,PPG_1,PPG_2,126663.0,126663.0,2.89024326071376,28.496327708481648,1.400395387979728
63865.429183630135,8.965179414997692,PPG_1,PPG_2,126635.0,126635.0,-25.080825545315747,29.877912219229053,1.4682608730539766
63865.4392342797,8.97523006456322,PPG_1,PPG_2,126653.0,126653.0,-7.051894351345254,31.519230649270618,1.5488848743724453
63865.449284929266,8.985280714128749,PPG_1,PPG_2,126629.0,126629.0,-31.02296315736021,33.422908842599476,1.642396377295738
63865.45933557884,8.995331363701553,PPG_1,PPG_2,126674.0,126674.0,14.005968036610284,35.54297381366511,1.7465371204287488
63865.4693862284,9.00538201326708,PPG_1,PPG_2,126639.0,126639.0,-20.965100769419223,37.783667583784975,1.8566033295018132
63865.47943687797,9.015432662832607,PPG_1,PPG_2,126672.0,126672.0,12.063830424565822,40.0058007145353,1.9657578123762243
63865.48948752754,9.025483312405411,PPG_1,PPG_2,126673.0,126673.0,13.092761618536315,42.038688259453735,2.0656162707362222
63865.49953817711,9.03553396197094,PPG_1,PPG_2,126648.0,126648.0,-11.878307187493192,43.69522836242697,2.146987983258105
63865.50958882668,9.045584611543743,PPG_1,PPG_2,126652.0,126652.0,-7.849375993522699,44.788169042387786,2.200674854257255
63865.519639476246,9.055635261109272,PPG_1,PPG_2,126668.0,126668.0,8.179555200462346,45.14747532797087,2.218324513160952
63865.52969012581,9.065685910674802,PPG_1,PPG_2,126687.0,126687.0,27.20848639443284,44.639838025689244,2.193388614203538
63865.539740775384,9.075736560247606,PPG_1,PPG_2,126689.0,126689.0,29.237417588403332,43.188808553811235,2.1221118893995237
63865.54979142495,9.085787209813134,PPG_1,PPG_2,126665.0,126665.0,5.266348782373825,40.7901214082637,2.0042848108476052
63865.55984207452,9.095837859385938,PPG_1,PPG_2,126659.0,126659.0,-0.70472002364113,37.51658181990962,1.8434836797222847
63865.56989272409,9.105888508951466,PPG_1,PPG_2,126652.0,126652.0,-7.675788829670637,33.51103738975591,1.6467253825466908
63865.579943373654,9.115939158516994,PPG_1,PPG_2,126636.0,126636.0,-23.646857635700144,28.970286430963114,1.423676945029738
63865.58999402323,9.125989808089798,PPG_1,PPG_2,126630.0,126630.0,-29.6179264417151,24.124396543096584,1.1856396296876983
63865.60004467279,9.136040457655326,PPG_1,PPG_2,126634.0,126634.0,-25.588995247744606,19.215638399483844,0.944514132161508
63865.610095322365,9.14609110722813,PPG_1,PPG_2,126641.0,126641.0,-18.560064053774113,14.48009141110155,0.7118970240813067
63865.62014597193,9.15614175679366,PPG_1,PPG_2,126630.0,126630.0,-29.53113285980362,10.13270267757726,0.49834682652781775
63865.630196621496,9.166192406359189,PPG_1,PPG_2,126612.0,126612.0,-47.502201665818575,6.354424164233169,0.3127521690464648
63865.64024727107,9.176243055931993,PPG_1,PPG_2,126603.0,126603.0,-56.47327047184808,3.2804087948110308,0.16175196417396642
63865.650297920634,9.18629370549752,PPG_1,PPG_2,126621.0,126621.0,-38.44433927787759,0.9907364960984378,0.049279856963429215
63865.66034857021,9.196344355070323,PPG_1,PPG_2,126603.0,126603.0,-56.415408083907096,-0.493616214282648,-0.02363375485521508
63865.67039921977,9.206395004635851,PPG_1,PPG_2,126613.0,126613.0,-46.38647688992205,-1.2083275775588234,-0.05874143953139562
63865.68044986934,9.21644565420138,PPG_1,PPG_2,126619.0,126619.0,-40.35754569595156,-1.237518393013044,-0.060175335782477544
63865.69050051891,9.226496303774184,PPG_1,PPG_2,126616.0,126616.0,-43.328614501981065,-0.7013630344046539,-0.03383858750246692
63865.70055116848,9.236546953339712,PPG_1,PPG_2,126619.0,126619.0,-40.29968330799602,0.25839419246693895,0.013306114286293025
63865.71060181805,9.246597602912516,PPG_1,PPG_2,126634.0,126634.0,-25.270752114025527,1.4926695633583016,0.0739355554164817
63865.720652467615,9.256648252478044,PPG_1,PPG_2,126603.0,126603.0,-56.241820920055034,2.8569451588325294,0.14095080084054204
63865.73070311718,9.266698902043572,PPG_1,PPG_2,126630.0,126630.0,-29.21288972608454,4.219574372245163,0.2078851735301743
63865.74075376675,9.276749551616376,PPG_1,PPG_2,126593.0,126593.0,-66.1839585320995,5.466723773139189,0.2691470061530256
63865.75080441632,9.286800201181904,PPG_1,PPG_2,126651.0,126651.0,-8.155027338129003,6.505580685747997,0.32017720209724093
63865.76085506589,9.296850850747433,PPG_1,PPG_2,126619.0,126619.0,-40.12609614415851,7.266961921389669,0.3575773802848928
63865.77090571546,9.306901500320237,PPG_1,PPG_2,126614.0,126614.0,-45.09716495018802,7.706376054521629,0.37916205575099826
63865.78095636502,9.316952149885765,PPG_1,PPG_2,126609.0,126609.0,-50.06823375620297,7.802090022727,0.3838636681605965
63865.791007014595,9.327002799458567,PPG_1,PPG_2,126639.0,126639.0,-20.03930256223248,7.550997632647707,0.3715296366781756
63865.80105766416,9.337053449024095,PPG_1,PPG_2,126587.0,126587.0,-72.01037136826199,6.964536325662824,0.34272178542753023
63865.81110831373,9.347104098589623,PPG_1,PPG_2,126620.0,126620.0,-38.98144017427694,6.06602848997804,0.2985857447891088
63865.8211589633,9.35715474816243,PPG_1,PPG_2,126639.0,126639.0,-19.952508980306447,4.890216280162686,0.2408281010441202
63865.831209612865,9.367205397727956,PPG_1,PPG_2,126598.0,126598.0,-60.923577786335954,3.485071348115644,0.17180529304998132
63865.84126026244,9.377256047300762,PPG_1,PPG_2,126633.0,126633.0,-25.89464659236546,1.9140557224978592,0.09463466999913572
63865.851310912,9.38730669686629,PPG_1,PPG_2,126614.0,126614.0,-44.865715398380416,0.2564819542265195,0.01321218230113101
63865.86136156157,9.397357346431818,PPG_1,PPG_2,126627.0,126627.0,-31.836784204409923,-1.3952522108947276,-0.06792345540880619
63865.87141221114,9.407407996004622,PPG_1,PPG_2,126583.0,126583.0,-75.80785301043943,-2.9422310506123144,-0.14391335580240347
63865.88146286071,9.41745864557015,PPG_1,PPG_2,126607.0,126607.0,-51.77892181646894,-4.288969670853483,-0.21006715893200528
63865.89151351028,9.427509295142954,PPG_1,PPG_2,126615.0,126615.0,-43.74999062248389,-5.354091022694958,-0.26238750317685827
63865.901564159845,9.437559944708482,PPG_1,PPG_2,126607.0,126607.0,-51.7210594285134,-6.078971810520999,-0.2979947251051098
63865.91161480941,9.44761059427401,PPG_1,PPG_2,126585.0,126585.0,-73.6921282345429,-6.434106429192487,-0.3154394655283797
63865.92166545898,9.457661243846816,PPG_1,PPG_2,126588.0,126588.0,-70.66319704055786,-6.423677983537846,-0.31492720477457337
63865.93171610855,9.467711893412345,PPG_1,PPG_2,126606.0,126606.0,-52.63426584658737,-6.086541468695241,-0.29836655796791695
63865.94176675812,9.477762542985149,PPG_1,PPG_2,126597.0,126597.0,-61.605334652616875,-5.490861466658462,-0.2691058707115248
63865.95181740769,9.487813192550677,PPG_1,PPG_2,126613.0,126613.0,-45.57640345864638,-4.722073009273111,-0.23134183878001813
63865.96186805725,9.497863842116203,PPG_1,PPG_2,126634.0,126634.0,-24.547472264661337,-3.866812572145848,-0.18933017465166463
63865.971918706826,9.507914491689007,PPG_1,PPG_2,126616.0,126616.0,-42.518541070690844,-2.9971522176058225,-0.14661116517263295
63865.98196935639,9.517965141254535,PPG_1,PPG_2,126631.0,126631.0,-27.48960987672035,-2.16007592536418,-0.1054927332741743
63865.99202000596,9.528015790820064,PPG_1,PPG_2,126594.0,126594.0,-64.46067868274986,-1.3758386456847682,-0.0669698322248855
63866.00207065553,9.538066440392868,PPG_1,PPG_2,126611.0,126611.0,-47.43174748876481,-0.6453759285514038,-0.0310884176307892
63866.012121305095,9.548117089958396,PPG_1,PPG_2,126609.0,126609.0,-49.40281629479432,0.03652397899823757,0.0024075195615774043
63866.02217195467,9.5581677395312,PPG_1,PPG_2,126568.0,126568.0,-90.37388510082383,0.6668754986680305,0.03337132330785543
63866.03222260423,9.568218389096728,PPG_1,PPG_2,126597.0,126597.0,-61.34495390683878,1.2235200391707879,0.06071453066236996
63866.0422732538,9.578269038662256,PPG_1,PPG_2,126629.0,126629.0,-29.31602271286829,1.6619378112930179,0.08225026339445637
63866.05232390337,9.58831968823506,PPG_1,PPG_2,126616.0,126616.0,-42.287091518897796,1.921822364711561,0.0950161790108037
63866.06237455294,9.598370337800588,PPG_1,PPG_2,126621.0,126621.0,-37.2581603249273,1.940097630160818,0.095913887218247
63866.07242520251,9.608420987373393,PPG_1,PPG_2,126606.0,126606.0,-52.22922913094226,1.6643127814797107,0.08236692546073097
63866.08247585208,9.61847163693892,PPG_1,PPG_2,126627.0,126627.0,-31.200297936971765,1.0627057083055806,0.05281509165870459
63866.09252650164,9.628522286504449,PPG_1,PPG_2,126587.0,126587.0,-71.17136674300127,0.13047596283201682,0.007022580679422495
63866.102577151214,9.638572936077251,PPG_1,PPG_2,126616.0,126616.0,-42.14243554903078,-1.1068212449705785,-0.053755297572202286
63866.11262780078,9.64862358564278,PPG_1,PPG_2,126634.0,126634.0,-24.113504355045734,-2.591627310664768,-0.1266911788777983
63866.12267845035,9.658674235215583,PPG_1,PPG_2,126595.0,126595.0,-63.08457316107524,-4.234561733783645,-0.20739456017861
63866.13272909992,9.668724884781112,PPG_1,PPG_2,126622.0,126622.0,-36.05564196710475,-5.918485948119616,-0.2901114209606989
63866.14277974948,9.678775534346642,PPG_1,PPG_2,126608.0,126608.0,-50.0267107731197,-7.508304710032002,-0.36820568201966025
63866.152830399056,9.688826183919446,PPG_1,PPG_2,126584.0,126584.0,-73.99777957914921,-8.8662594117535,-0.43491043574575006
