timestamp,time_from_segment_start_sec,selected_channel_name,backup_channel_name,selected_channel_raw,selected_channel_clipped,selected_channel_detrended,selected_channel_filtered,selected_channel_filtered_z
63102.987382060375,0.0,PPG_2,PPG_3,92768.0,92768.0,-153.9005459400796,0.5087837018131544,0.012605362502447157
63102.99747102793,0.0100889675522921,PPG_2,PPG_3,92776.0,92776.0,-145.93900531964027,-6.510645648816945,-0.15613667899308833
63103.00755999547,0.0201779350973083,PPG_2,PPG_3,92759.0,92759.0,-162.9774646992155,-13.384482322349799,-0.3213787770697212
63103.01764896302,0.0302669026423245,PPG_2,PPG_3,92736.0,92736.0,-186.01592407877615,-20.011166692021344,-0.48067951122192926
63103.02773793057,0.0403558701946167,PPG_2,PPG_3,92713.0,92713.0,-209.05438345835137,-26.306307418925353,-0.6320101742571115
63103.037826898115,0.0504448377396329,PPG_2,PPG_3,92707.0,92707.0,-215.09284283791203,-32.211842986768296,-0.7739750090129258
63103.04791586566,0.0605338052846491,PPG_2,PPG_3,92728.0,92728.0,-194.13130221748725,-37.69969988837968,-0.905899148534345
63103.05800483321,0.0706227728369413,PPG_2,PPG_3,92731.0,92731.0,-191.1697615970479,-42.76613734325498,-1.0276926671439968
63103.06809380076,0.0807117403819575,PPG_2,PPG_3,92721.0,92721.0,-201.20822097662312,-47.41822044062771,-1.1395254045141765
63103.0781827683,0.0908007079269737,PPG_2,PPG_3,92738.0,92738.0,-184.2466803561838,-51.65818555497748,-1.2414511214816117
63103.088271735855,0.1008896754792658,PPG_2,PPG_3,92707.0,92707.0,-215.285139735759,-55.471921637997426,-1.3331305985770263
63103.0983607034,0.110978643024282,PPG_2,PPG_3,92694.0,92694.0,-228.32359911531967,-58.82542139253745,-1.4137463247948656
63103.108449670945,0.1210676105692982,PPG_2,PPG_3,92716.0,92716.0,-206.36205849489488,-61.669616183910506,-1.4821187253895345
63103.1185386385,0.1311565781215904,PPG_2,PPG_3,92663.0,92663.0,-259.40051787445555,-63.951126762000946,-1.5369646015156446
63103.12862760604,0.1412455456666066,PPG_2,PPG_3,92693.0,92693.0,-229.43897725403076,-65.62539792630118,-1.5772128781445371
63103.13871657359,0.1513345132116228,PPG_2,PPG_3,92668.0,92668.0,-254.47743663359142,-66.66849786618788,-1.6022882517323564
63103.14880554114,0.161423480763915,PPG_2,PPG_3,92701.0,92701.0,-221.51589601316664,-67.08412873203548,-1.6122797193158838
63103.15889450869,0.1715124483089312,PPG_2,PPG_3,92695.0,92695.0,-227.5543553927273,-66.90448997182264,-1.6079613325046653
63103.16898347623,0.1816014158539474,PPG_2,PPG_3,92689.0,92689.0,-233.59281477230252,-66.18683591451989,-1.5907094442573748
63103.179072443774,0.1916903833989636,PPG_2,PPG_3,92685.0,92685.0,-237.63127415186318,-65.00898336081056,-1.562394714588388
63103.18916141133,0.2017793509512557,PPG_2,PPG_3,92656.0,92656.0,-266.6697335314384,-63.46523759102232,-1.5252841747236654
63103.19925037887,0.2118683184962719,PPG_2,PPG_3,92726.0,92726.0,-196.70819291099906,-61.661110790521725,-1.4819142618395145
63103.20933934642,0.2219572860412881,PPG_2,PPG_3,92689.0,92689.0,-233.74665229057427,-59.7047922069397,-1.434885767766894
63103.21942831397,0.2320462535935803,PPG_2,PPG_3,92728.0,92728.0,-194.78511167013494,-57.69690149068268,-1.386617516654611
63103.229517281514,0.2421352211385965,PPG_2,PPG_3,92668.0,92668.0,-254.82357104971015,-55.72324323156493,-1.339172189232353
63103.23960624906,0.2522241886836127,PPG_2,PPG_3,92684.0,92684.0,-238.86203042927082,-53.85342811388329,-1.2942231763687229
63103.24969521661,0.2623131562359049,PPG_2,PPG_3,92710.0,92710.0,-212.90048980884603,-52.143158064980796,-1.2531095124019263
63103.25978418416,0.2724021237809211,PPG_2,PPG_3,92711.0,92711.0,-211.9389491884067,-50.63595406598861,-1.2168774104694027
63103.2698731517,0.2824910913259373,PPG_2,PPG_3,92676.0,92676.0,-246.9774085679819,-49.363253671821184,-1.1862826068184897
63103.27996211925,0.2925800588782294,PPG_2,PPG_3,92706.0,92706.0,-217.01586794754257,-48.34459092287968,-1.161794685754591
63103.2900510868,0.3026690264232456,PPG_2,PPG_3,92688.0,92688.0,-235.0543273271178,-47.58800572776671,-1.143606920907695
63103.30014005434,0.3127579939682618,PPG_2,PPG_3,92695.0,92695.0,-228.09278670667845,-47.08878104331587,-1.1316059179470144
63103.310229021896,0.322846961520554,PPG_2,PPG_3,92734.0,92734.0,-189.13124608625367,-46.82556810802822,-1.1252784679749617
63103.32031798944,0.3329359290655702,PPG_2,PPG_3,92695.0,92695.0,-228.16970546581433,-46.75557196710129,-1.123595811005737
63103.330406956986,0.3430248966105864,PPG_2,PPG_3,92699.0,92699.0,-224.20816484538955,-46.81233299165418,-1.1249603052804136
63103.34049592454,0.3531138641628786,PPG_2,PPG_3,92702.0,92702.0,-221.24662422496476,-46.90856446430927,-1.1272736407868795
63103.35058489208,0.3632028317078948,PPG_2,PPG_3,92703.0,92703.0,-220.28508360452543,-46.943331489718105,-1.1281094151142737
63103.36067385963,0.373291799252911,PPG_2,PPG_3,92684.0,92684.0,-239.32354298410064,-46.81144850370275,-1.1249390428251416
63103.37076282717,0.3833807667979272,PPG_2,PPG_3,92684.0,92684.0,-239.3620023636613,-46.413374305989194,-1.1153696249375105
63103.380851794725,0.3934697343502193,PPG_2,PPG_3,92703.0,92703.0,-220.40046174323652,-45.66344711984841,-1.0973419138457194
63103.39094076227,0.4035587018952355,PPG_2,PPG_3,92700.0,92700.0,-223.43892112279718,-44.49415630907196,-1.0692330023293328
63103.401029729815,0.4136476694402518,PPG_2,PPG_3,92705.0,92705.0,-218.4773805023724,-42.856217719797584,-1.029858134716531
63103.41111869737,0.4237366369925439,PPG_2,PPG_3,92718.0,92718.0,-205.51583988193306,-40.716612415613284,-0.9784235594842401
63103.42120766491,0.4338256045375601,PPG_2,PPG_3,92718.0,92718.0,-205.55429926150828,-38.05743914143342,-0.914498943313668
63103.43129663246,0.4439145720825763,PPG_2,PPG_3,92684.0,92684.0,-239.59275864106894,-34.877845609907666,-0.8380637978288725
63103.44138560001,0.4540035396348685,PPG_2,PPG_3,92708.0,92708.0,-215.63121802064416,-31.19929308746218,-0.749634036465111
63103.451474567555,0.4640925071798847,PPG_2,PPG_3,92712.0,92712.0,-211.66967740020482,-27.07130101110774,-0.6504000709321556
63103.4615635351,0.4741814747249009,PPG_2,PPG_3,92719.0,92719.0,-204.70813677978003,-22.57389433114494,-0.5422856435756841
63103.47165250265,0.484270442277193,PPG_2,PPG_3,92727.0,92727.0,-196.7465961593407,-17.81548747279281,-0.427896959334191
63103.4817414702,0.4943594098222093,PPG_2,PPG_3,92701.0,92701.0,-222.7850555389159,-12.92729665288582,-0.3103883618444537
63103.49183043774,0.5044483773672255,PPG_2,PPG_3,92734.0,92734.0,-189.82351491847658,-8.054850909553652,-0.19325826469028853
63103.501919405295,0.5145373449195176,PPG_2,PPG_3,92732.0,92732.0,-191.8619742980518,-3.345523854920518,-0.08004942368989874
63103.51200837284,0.5246263124645338,PPG_2,PPG_3,92773.0,92773.0,-150.90043367761245,1.0683980197273093,0.026058088890595722
63103.522097340385,0.53471528000955,PPG_2,PPG_3,92760.0,92760.0,-163.93889305718767,5.088186057682787,0.12269090703314915
63103.53218630793,0.5448042475545662,PPG_2,PPG_3,92772.0,92772.0,-151.97735243674833,8.662687315872603,0.20861935071513682
63103.54227527548,0.5548932151068584,PPG_2,PPG_3,92733.0,92733.0,-191.01581181632355,11.79246832562738,0.2838570389429658
63103.55236424303,0.5649821826518746,PPG_2,PPG_3,92761.0,92761.0,-163.0542711958842,14.522948311858345,0.3494958172715711
63103.56245321057,0.5750711501968908,PPG_2,PPG_3,92754.0,92754.0,-170.09273057545943,16.93001344638736,0.4073599347837292
63103.572542178124,0.585160117749183,PPG_2,PPG_3,92746.0,92746.0,-178.1311899550201,19.102932098277435,0.45959533897520305
63103.58263114567,0.5952490852941992,PPG_2,PPG_3,92742.0,92742.0,-182.1696493345953,21.128047381840307,0.5082776563179275
63103.592720113214,0.6053380528392154,PPG_2,PPG_3,92764.0,92764.0,-160.20810871415597,23.075974514071586,0.5551044259253095
63103.60280908077,0.6154270203915075,PPG_2,PPG_3,92749.0,92749.0,-175.24656809373118,24.994831840783817,0.6012323782807274
63103.61289804831,0.6255159879365237,PPG_2,PPG_3,92774.0,92774.0,-150.28502747329185,26.9104717602037,0.6472829864750014
63103.62298701586,0.63560495548154,PPG_2,PPG_3,92780.0,92780.0,-144.32348685286706,28.83244447574624,0.6934858305409872
63103.63307598341,0.6456939230338321,PPG_2,PPG_3,92784.0,92784.0,-140.36194623242773,30.762717534126143,0.7398882088889676
63103.643164950954,0.6557828905788483,PPG_2,PPG_3,92757.0,92757.0,-167.40040561200294,32.703353191818564,0.7865396966838628
63103.6532539185,0.6658718581238645,PPG_2,PPG_3,92788.0,92788.0,-136.4388649915636,34.660600509704274,0.8335905168622936
63103.66334288605,0.6759608256761567,PPG_2,PPG_3,92762.0,92762.0,-162.47732437113882,36.64568104321828,0.8813104275596115
63103.6734318536,0.6860497932211729,PPG_2,PPG_3,92782.0,92782.0,-142.51578375071404,38.67406803031385,0.9300713943061121
63103.68352082114,0.6961387607661891,PPG_2,PPG_3,92787.0,92787.0,-137.5542431302747,40.764543931292785,0.9803249339612607
63103.693609788694,0.7062277283184812,PPG_2,PPG_3,92783.0,92783.0,-141.59270250984991,42.938182496112326,1.0325776443426469
63103.70369875624,0.7163166958634974,PPG_2,PPG_3,92789.0,92789.0,-135.63116188941058,45.21643861011574,1.0873452854888765
63103.713787723784,0.7264056634085136,PPG_2,PPG_3,92781.0,92781.0,-143.6696212689858,47.617468676654,1.1450643242998388
63103.72387669133,0.7364946309535298,PPG_2,PPG_3,92801.0,92801.0,-123.70808064854646,50.15076611364678,1.2059629757258552
63103.73396565888,0.746583598505822,PPG_2,PPG_3,92782.0,92782.0,-142.74654002812167,52.810887983912394,1.2699103954652173
63103.744054626426,0.7566725660508382,PPG_2,PPG_3,92797.0,92797.0,-127.78499940768234,55.57099830256796,1.3362614657101262
63103.75414359397,0.7667615335958544,PPG_2,PPG_3,92822.0,92822.0,-102.82345878725755,58.37679197140371,1.4037107308917884
63103.76423256152,0.7768505011481466,PPG_2,PPG_3,92765.0,92765.0,-159.8619181668182,61.14096089520059,1.4701593670901334
63103.77432152907,0.7869394686931628,PPG_2,PPG_3,92784.0,92784.0,-140.90037754639343,63.738566141505274,1.5326039320776872
63103.78441049661,0.797028436238179,PPG_2,PPG_3,92794.0,92794.0,-130.9388369259541,66.00613439606862,1.587114644757079
63103.794499464166,0.8071174037904711,PPG_2,PPG_3,92809.0,92809.0,-115.97729630552931,67.74914351874826,1.6290153325501548
63103.80458843171,0.8172063713354873,PPG_2,PPG_3,92816.0,92816.0,-109.01575568508997,68.75963011936182,1.6533067048788912
63103.814677399256,0.8272953388805036,PPG_2,PPG_3,92829.0,92829.0,-96.05421506466519,68.84041318891464,1.6552486718670474
63103.82476636681,0.8373843064327957,PPG_2,PPG_3,92803.0,92803.0,-122.09267444422585,67.82986314353778,1.630955774371756
63103.83485533435,0.8474732739778119,PPG_2,PPG_3,92815.0,92815.0,-110.13113382380106,65.6221851712143,1.577884781074965
63103.8449443019,0.8575622415228281,PPG_2,PPG_3,92811.0,92811.0,-114.16959320336173,62.18100030369047,1.4951611677006968
63103.85503326945,0.8676512090751203,PPG_2,PPG_3,92811.0,92811.0,-114.20805258293694,57.545995442373034,1.3837389788627639
63103.865122236995,0.8777401766201365,PPG_2,PPG_3,92781.0,92781.0,-144.2465119624976,51.832483513554855,1.246390254512211
63103.87521120454,0.8878291441651527,PPG_2,PPG_3,92793.0,92793.0,-132.28497134207282,45.22388147756647,1.0875242066782613
63103.88530017209,0.8979181117174448,PPG_2,PPG_3,92805.0,92805.0,-120.32343072163349,37.95829317904461,0.912864680822559
63103.89538913964,0.908007079262461,PPG_2,PPG_3,92759.0,92759.0,-166.3618901012087,30.31030834522442,0.7290126168268061
63103.90547810718,0.9180960468074773,PPG_2,PPG_3,92742.0,92742.0,-183.40034948076936,22.56817978117555,0.5428974051534763
63103.91556707473,0.9281850143524936,PPG_2,PPG_3,92744.0,92744.0,-181.43880886034458,15.008379933408063,0.3611652449038094
63103.92565604228,0.9382739819047856,PPG_2,PPG_3,92745.0,92745.0,-180.47726823990524,7.872895129586868,0.18963331364374525
63103.935745009825,0.9483629494498018,PPG_2,PPG_3,92754.0,92754.0,-171.51572761948046,1.354071003007603,0.032925462289618485
63103.94583397737,0.958451916994818,PPG_2,PPG_3,92739.0,92739.0,-186.55418699904112,-4.412670714311483,-0.10570286795642113
63103.95592294492,0.9685408845471102,PPG_2,PPG_3,92722.0,92722.0,-203.59264637861634,-9.351226966268404,-0.22442221426923015
63103.96601191247,0.9786298520921264,PPG_2,PPG_3,92715.0,92715.0,-210.631105758177,-13.444550031630898,-0.322822761670997
63103.97610088001,0.9887188196371426,PPG_2,PPG_3,92728.0,92728.0,-197.66956513775222,-16.731036558373344,-0.4018275380094483
63103.986189847565,0.9988077871894347,PPG_2,PPG_3,92733.0,92733.0,-192.70802451731288,-19.295766757165783,-0.46348181045976344
63103.99627881511,1.008896754734451,PPG_2,PPG_3,92720.0,92720.0,-205.7464838968881,-21.256930923002308,-0.510626788850555
63104.006367782655,1.0189857222794672,PPG_2,PPG_3,92727.0,92727.0,-198.78494327644876,-22.750262993781636,-0.546525419589169
63104.01645675021,1.029074689831759,PPG_2,PPG_3,92739.0,92739.0,-186.82340265602397,-23.91445482796663,-0.5745117553694663
63104.02654571775,1.0391636573767755,PPG_2,PPG_3,92688.0,92688.0,-237.8618620355992,-24.87938730469445,-0.5977080392687807
63104.0366346853,1.0492526249217915,PPG_2,PPG_3,92720.0,92720.0,-205.90032141515985,-25.75754835050001,-0.6188184002723832
63104.04672365285,1.059341592474084,PPG_2,PPG_3,92729.0,92729.0,-196.93878079473507,-26.63701142576784,-0.639960061129375
63104.056812620394,1.0694305600191,PPG_2,PPG_3,92732.0,92732.0,-193.97724017429573,-27.574318960986812,-0.6624922612700886
63104.06690158794,1.0795195275641165,PPG_2,PPG_3,92716.0,92716.0,-210.01569955387095,-28.588798500944,-0.686879620993634
63104.076990555484,1.0896084951091325,PPG_2,PPG_3,92707.0,92707.0,-219.0541589334316,-29.661670284456264,-0.7126706883254199
63104.08707952304,1.0996974626614249,PPG_2,PPG_3,92743.0,92743.0,-183.09261831300682,-30.74108448144308,-0.7386190305795477
63104.09716849058,1.1097864302064409,PPG_2,PPG_3,92686.0,92686.0,-240.1310776925675,-31.751816944147095,-0.7629163132564045
63104.10725745813,1.119875397751457,PPG_2,PPG_3,92712.0,92712.0,-214.1695370721427,-32.60810037703091,-0.7835007521539412
63104.11734642568,1.1299643653037492,PPG_2,PPG_3,92714.0,92714.0,-212.20799645170337,-33.227588718407404,-0.7983928070753529
63104.127435393224,1.1400533328487654,PPG_2,PPG_3,92702.0,92702.0,-224.24645583127858,-33.54369772664343,-0.805991840660624
63104.13752436077,1.1501423003937816,PPG_2,PPG_3,92716.0,92716.0,-210.28491521083924,-33.514660321342454,-0.8052938022866385
63104.14761332832,1.1602312679460738,PPG_2,PPG_3,92699.0,92699.0,-227.32337459041446,-33.1291503271342,-0.7960264188299201
63104.157702295866,1.17032023549109,PPG_2,PPG_3,92722.0,92722.0,-204.36183396997512,-32.408420559368196,-0.7787005927115161
63104.16779126341,1.1804092030361062,PPG_2,PPG_3,92700.0,92700.0,-226.40029334955034,-31.404704943488987,-0.7545719899940881
63104.17788023096,1.1904981705883984,PPG_2,PPG_3,92722.0,92722.0,-204.438752729111,-30.19594483181793,-0.7255142648239593
63104.18796919851,1.2005871381334146,PPG_2,PPG_3,92730.0,92730.0,-196.47721210868622,-28.877360300770523,-0.6938164394681987
63104.198058166054,1.2106761056784308,PPG_2,PPG_3,92721.0,92721.0,-205.51567148824688,-27.55126284262641,-0.6619380087394684
63104.208147133606,1.220765073230723,PPG_2,PPG_3,92694.0,92694.0,-232.5541308678221,-26.317217179535923,-0.6322724370687587
63104.21823610115,1.2308540407757391,PPG_2,PPG_3,92743.0,92743.0,-183.59259024738276,-25.263368502711284,-0.6069386715627642
63104.228325068696,1.240943008320755,PPG_2,PPG_3,92737.0,92737.0,-189.63104962695797,-24.457924599135506,-0.5875763784459725
63104.23841403625,1.2510319758730477,PPG_2,PPG_3,92712.0,92712.0,-214.66950900651864,-23.941027196591964,-0.5751505360317161
63104.24850300379,1.2611209434180637,PPG_2,PPG_3,92730.0,92730.0,-196.70796838609385,-23.719429463943147,-0.5698234856505356
63104.25859197134,1.27120991096308,PPG_2,PPG_3,92726.0,92726.0,-200.74642776565452,-23.765216470304455,-0.5709241724074559
63104.26868093888,1.281298878508096,PPG_2,PPG_3,92730.0,92730.0,-196.78488714522973,-24.017595895686075,-0.5769911925800489
63104.278769906436,1.2913878460603885,PPG_2,PPG_3,92717.0,92717.0,-209.8233465247904,-24.38699124327866,-0.585871191502772
63104.28885887398,1.3014768136054045,PPG_2,PPG_3,92756.0,92756.0,-170.8618059043656,-24.761640881583094,-0.5948774998015198
63104.298947841526,1.3115657811504209,PPG_2,PPG_3,92688.0,92688.0,-238.90026528392627,-25.017064558539595,-0.6010177015961383
63104.30903680908,1.3216547487027128,PPG_2,PPG_3,92737.0,92737.0,-189.9387246635015,-25.028199389118342,-0.6012853749282157
63104.31912577662,1.331743716247729,PPG_2,PPG_3,92725.0,92725.0,-201.97718404306215,-24.682520360586224,-0.5929754992869049
63104.32921474417,1.3418326837927452,PPG_2,PPG_3,92710.0,92710.0,-217.01564342263737,-23.89174000733418,-0.5739657073911673
63104.33930371172,1.3519216513450374,PPG_2,PPG_3,92726.0,92726.0,-201.05410280219803,-22.60074378226826,-0.5429310851022345
63104.349392679265,1.3620106188900536,PPG_2,PPG_3,92716.0,92716.0,-211.09256218177325,-20.792890547966042,-0.49947159142514824
63104.35948164681,1.3720995864350698,PPG_2,PPG_3,92740.0,92740.0,-187.1310215613339,-18.49042478159539,-0.44412196761903494
63104.36957061436,1.382188553987362,PPG_2,PPG_3,92728.0,92728.0,-199.16948094090912,-15.749641058130488,-0.3782354948456196
63104.37965958191,1.3922775215323782,PPG_2,PPG_3,92752.0,92752.0,-175.20794032048434,-12.652154585236964,-0.3037741440957982
63104.38974854945,1.4023664890773944,PPG_2,PPG_3,92738.0,92738.0,-189.246399700045,-9.294534889776916,-0.22305937745644336
63104.399837517005,1.4124554566296863,PPG_2,PPG_3,92762.0,92762.0,-165.28485907962022,-5.778524846478792,-0.13853702058256528
63104.40992648455,1.4225444241747027,PPG_2,PPG_3,92755.0,92755.0,-172.32331845918088,-2.203690609128403,-0.05260057232064329
63104.420015452095,1.432633391719719,PPG_2,PPG_3,92725.0,92725.0,-202.3617778387561,1.3363049873642452,0.032498380029914176
63104.43010441965,1.442722359272011,PPG_2,PPG_3,92752.0,92752.0,-175.40023721831676,4.754458643756851,0.11466833962546764
63104.44019338719,1.4528113268170273,PPG_2,PPG_3,92779.0,92779.0,-148.43869659789198,7.971218472155489,0.19199693620092714
63104.45028235474,1.4629002943620435,PPG_2,PPG_3,92748.0,92748.0,-179.47715597745264,10.917744252707736,0.262829300299724
63104.46037132228,1.4729892619070597,PPG_2,PPG_3,92767.0,92767.0,-160.51561535702785,13.540782887706708,0.3258852656897963
63104.470460289835,1.483078229459352,PPG_2,PPG_3,92754.0,92754.0,-173.55407473658852,15.807348773696305,0.38037188214839623
63104.48054925738,1.493167197004368,PPG_2,PPG_3,92793.0,92793.0,-134.59253411616373,17.70927100410747,0.4260927269484816
63104.490638224925,1.5032561645493845,PPG_2,PPG_3,92781.0,92781.0,-146.6309934957244,19.267758236118592,0.4635576409803717
63104.50072719248,1.5133451321016764,PPG_2,PPG_3,92760.0,92760.0,-167.6694528752996,20.535917261690972,0.4940432733910553
63104.51081616002,1.5234340996466926,PPG_2,PPG_3,92788.0,92788.0,-139.70791225486028,21.596772030214538,0.5195454603109751
63104.52090512757,1.5335230671917088,PPG_2,PPG_3,92763.0,92763.0,-164.7463716344355,22.556798894317193,0.5426238168051105
63104.53099409512,1.543612034744001,PPG_2,PPG_3,92787.0,92787.0,-140.78483101399615,23.536817477259092,0.566182759865679
63104.541083062664,1.5537010022890172,PPG_2,PPG_3,92784.0,92784.0,-143.82329039357137,24.661543098991633,0.5932203562361658
63104.55117203021,1.5637899698340334,PPG_2,PPG_3,92772.0,92772.0,-155.86174977313203,26.047939204962912,0.6265483231630007
63104.56126099776,1.5738789373863256,PPG_2,PPG_3,92748.0,92748.0,-179.90020915270725,27.79259331433053,0.6684885552549215
63104.57134996531,1.5839679049313418,PPG_2,PPG_3,92794.0,92794.0,-133.9386685322679,29.960333692602667,0.7205994774667263
63104.58143893285,1.594056872476358,PPG_2,PPG_3,92807.0,92807.0,-120.97712791184313,32.57759168450858,0.7835164803474612
63104.5915279004,1.60414584002865,PPG_2,PPG_3,92780.0,92780.0,-148.0155872914038,35.631111931528615,0.8569209145959318
63104.60161686795,1.6142348075736663,PPG_2,PPG_3,92793.0,92793.0,-135.054046670979,39.06866340633677,0.9395571838181653
63104.611705835494,1.6243237751186823,PPG_2,PPG_3,92794.0,92794.0,-134.09250605053967,42.79911956369875,1.0292346712974496
63104.62179480304,1.6344127426636987,PPG_2,PPG_3,92795.0,92795.0,-133.13096543011488,46.69273834572208,1.1228344711194964
63104.63188377059,1.644501710215991,PPG_2,PPG_3,92782.0,92782.0,-146.16942480967555,50.58377769724139,1.2163722632843101
63104.641972738136,1.654590677761007,PPG_2,PPG_3,92825.0,92825.0,-103.20788418925076,54.27712046543743,1.3051575715362165
63104.65206170568,1.6646796453060233,PPG_2,PPG_3,92817.0,92817.0,-111.24634356881143,57.559630184439186,1.384066748272011
63104.66215067323,1.6747686128583157,PPG_2,PPG_3,92797.0,92797.0,-131.28480294838664,60.214857118463414,1.4478964972587944
63104.67223964078,1.6848575804033317,PPG_2,PPG_3,92828.0,92828.0,-100.3232623279473,62.03843621207302,1.4917340293021424
63104.68232860832,1.694946547948348,PPG_2,PPG_3,92840.0,92840.0,-88.36172170752252,62.85262887678466,1.5113066363548509
63104.69241757587,1.70503551550064,PPG_2,PPG_3,92803.0,92803.0,-125.40018108708318,62.51886336008239,1.503283152983785
63104.70250654342,1.7151244830456562,PPG_2,PPG_3,92787.0,92787.0,-141.4386404666584,60.94648246899177,1.4654842453635544
63104.712595510966,1.7252134505906724,PPG_2,PPG_3,92849.0,92849.0,-79.47709984623361,58.097899368504905,1.3970063529686851
63104.72268447852,1.7353024181429646,PPG_2,PPG_3,92798.0,92798.0,-130.51555922579428,53.992537784224396,1.2983164082160317
63104.73277344606,1.7453913856879808,PPG_2,PPG_3,92808.0,92808.0,-120.55401860536949,48.70973526425259,1.1713216287959949
63104.74286241361,1.755480353232997,PPG_2,PPG_3,92805.0,92805.0,-123.59247798493016,42.388160418321796,1.019355508519646
63104.75295138116,1.7655693207852892,PPG_2,PPG_3,92779.0,92779.0,-149.63093736450537,35.22049786286926,0.847050047214647
63104.763040348706,1.7756582883303054,PPG_2,PPG_3,92786.0,92786.0,-142.66939674406603,27.444239855722724,0.6601143882348866
63104.77312931625,1.7857472558753216,PPG_2,PPG_3,92778.0,92778.0,-150.70785612364125,19.329969679875042,0.4650531594191898
63104.7832182838,1.7958362234276135,PPG_2,PPG_3,92789.0,92789.0,-139.7463155032019,11.167967858172887,0.2688444961094479
63104.79330725135,1.80592519097263,PPG_2,PPG_3,92755.0,92755.0,-173.78477488277713,3.252457839223995,0.07856131875174664
63104.80339621889,1.816014158517646,PPG_2,PPG_3,92753.0,92753.0,-175.8232342623378,-4.138055890250897,-0.099101324765056
63104.81348518644,1.8261031260626623,PPG_2,PPG_3,92743.0,92743.0,-185.861693641913,-10.76428882404224,-0.2583912067228442
63104.82357415399,1.8361920936149545,PPG_2,PPG_3,92694.0,92694.0,-234.90015302147367,-16.45062001654998,-0.39508652568881786
63104.833663121535,1.8462810611599707,PPG_2,PPG_3,92700.0,92700.0,-228.93861240104889,-21.10513714074046,-0.5069777753160155
63104.84375208908,1.856370028704987,PPG_2,PPG_3,92750.0,92750.0,-178.97707178060955,-24.728478994117687,-0.5940803118377639
63104.85384105663,1.866458996257279,PPG_2,PPG_3,92723.0,92723.0,-206.01553116018476,-27.407019264630495,-0.6584704966942811
63104.86393002418,1.8765479638022953,PPG_2,PPG_3,92714.0,92714.0,-215.05399053974543,-29.29249208618493,-0.7037959095164621
63104.87401899172,1.8866369313473117,PPG_2,PPG_3,92751.0,92751.0,-178.09244991932064,-30.574378082983465,-0.7346115284591768
63104.884107959275,1.8967258988996036,PPG_2,PPG_3,92759.0,92759.0,-170.1309092988813,-31.450591009042636,-0.7556750580628658
63104.89419692682,1.90681486644462,PPG_2,PPG_3,92717.0,92717.0,-212.16936867845652,-32.10154745689865,-0.7713235836693023
63104.904285894365,1.916903833989636,PPG_2,PPG_3,92705.0,92705.0,-224.20782805801718,-32.67274709896508,-0.7850548129315723
63104.91437486192,1.926992801541928,PPG_2,PPG_3,92743.0,92743.0,-186.2462874375924,-33.26694984502534,-0.7993390202971553
63104.92446382946,1.9370817690869444,PPG_2,PPG_3,92721.0,92721.0,-208.28474681715306,-33.94241497831465,-0.8155767171036716
63104.93455279701,1.9471707366319608,PPG_2,PPG_3,92721.0,92721.0,-208.32320619672828,-34.71447805393598,-0.8341365590845543
63104.94464176456,1.9572597041842528,PPG_2,PPG_3,92746.0,92746.0,-183.36166557628894,-35.56091452712407,-0.8544842841413238
63104.954730732105,1.967348671729269,PPG_2,PPG_3,92693.0,92693.0,-236.40012495586416,-36.4321189158555,-0.8754274121038861
63104.96481969965,1.9774376392742852,PPG_2,PPG_3,92692.0,92692.0,-237.43858433542482,-37.26542937379784,-0.8954595971788949
63104.974908667195,1.9875266068193016,PPG_2,PPG_3,92728.0,92728.0,-201.47704371500004,-38.00010575192541,-0.9131206897964398
63104.98499763475,1.9976155743715935,PPG_2,PPG_3,92716.0,92716.0,-213.5155030945607,-38.5880614475,-0.9272547225538574
63104.99508660229,2.0077045419166097,PPG_2,PPG_3,92713.0,92713.0,-216.55396247413591,-38.99847102935094,-0.9371206742190935
63105.00517556984,2.017793509461626,PPG_2,PPG_3,92724.0,92724.0,-205.59242185369658,-39.21840462866777,-0.9424077200298547
63105.01526453739,2.027882477013918,PPG_2,PPG_3,92698.0,92698.0,-231.6308812332718,-39.251876848284724,-0.9432123681557091
63105.025353504934,2.0379714445589343,PPG_2,PPG_3,92729.0,92729.0,-200.66934061283246,-39.11773808203384,-0.9399877685294111
63105.03544247248,2.0480604121039505,PPG_2,PPG_3,92712.0,92712.0,-217.70779999240767,-38.845931948495426,-0.933453744241502
63105.04553144003,2.0581493796562427,PPG_2,PPG_3,92734.0,92734.0,-195.74625937196834,-38.472341589978654,-0.9244729002682649
63105.05562040758,2.068238347201259,PPG_2,PPG_3,92708.0,92708.0,-221.78471875154355,-38.03369128279188,-0.9139280618433727
63105.06570937512,2.078327314746275,PPG_2,PPG_3,92715.0,92715.0,-214.82317813111877,-37.56403286208339,-0.9026378106338772
63105.075798342674,2.0884162822985672,PPG_2,PPG_3,92727.0,92727.0,-202.86163751067943,-37.09285987267151,-0.8913111502802435
63105.08588731022,2.098505249843583,PPG_2,PPG_3,92735.0,92735.0,-194.90009689025464,-36.644014581637585,-0.8805212317638724
63105.09597627776,2.1085942173885996,PPG_2,PPG_3,92676.0,92676.0,-253.9385562698153,-36.23545649985466,-0.8706997888308566
63105.10606524531,2.118683184940892,PPG_2,PPG_3,92724.0,92724.0,-205.97701564939052,-35.879833949329615,-0.8621508780604876
63105.11615421286,2.128772152485908,PPG_2,PPG_3,92739.0,92739.0,-191.0154750289512,-35.583567407521045,-0.8550288431208365
63105.126243180406,2.138861120030924,PPG_2,PPG_3,92716.0,92716.0,-214.0539344085264,-35.34255031541112,-0.8492349652817075
63105.13633214796,2.1489500875832164,PPG_2,PPG_3,92734.0,92734.0,-196.09239378808707,-35.13661814864009,-0.8442845038560329
63105.1464211155,2.159039055128233,PPG_2,PPG_3,92713.0,92713.0,-217.13085316766228,-34.92659695543064,-0.8392357451707831
63105.15651008305,2.169128022673249,PPG_2,PPG_3,92736.0,92736.0,-194.16931254722294,-34.65539615227307,-0.8327162725905899
63105.16659905059,2.179216990218265,PPG_2,PPG_3,92690.0,92690.0,-240.20777192679816,-34.2523780737064,-0.8230280073570573
63105.176688018146,2.189305957770557,PPG_2,PPG_3,92743.0,92743.0,-187.24623130635882,-33.639343986398686,-0.8082911080691728
63105.18677698569,2.1993949253155733,PPG_2,PPG_3,92734.0,92734.0,-196.28469068593404,-32.73635855468635,-0.7865839866527873
63105.19686595323,2.2094838928605895,PPG_2,PPG_3,92724.0,92724.0,-206.3231500654947,-31.467324978050062,-0.7560773306624728
63105.20695492079,2.2195728604128817,PPG_2,PPG_3,92733.0,92733.0,-197.36160944506992,-29.767343307037336,-0.7152109919128807
63105.21704388833,2.229661827957898,PPG_2,PPG_3,92693.0,92693.0,-237.40006882463058,-27.592955553092477,-0.6629402715628552
63105.22713285588,2.239750795502914,PPG_2,PPG_3,92725.0,92725.0,-205.4385282042058,-24.93281907430073,-0.598992500645014
63105.23722182343,2.2498397630552063,PPG_2,PPG_3,92716.0,92716.0,-214.47698758376646,-21.81385465277204,-0.5240148354316089
63105.247310790975,2.2599287306002225,PPG_2,PPG_3,92768.0,92768.0,-162.51544696334167,-18.299052936173165,-0.4395215258639775
63105.25739975852,2.2700176981452387,PPG_2,PPG_3,92744.0,92744.0,-186.55390634290234,-14.477644391243164,-0.3476576082932296
63105.26748872607,2.280106665697531,PPG_2,PPG_3,92749.0,92749.0,-181.59236572247755,-10.452658463393437,-0.2508998366098095
63105.27757769362,2.290195633242547,PPG_2,PPG_3,92752.0,92752.0,-178.63082510203822,-6.330986242530516,-0.15181779586508495
63105.28766666116,2.3002846007875632,PPG_2,PPG_3,92756.0,92756.0,-174.66928448161343,-2.2176134577576345,-0.052935267604800385
63105.297755628715,2.3103735683398554,PPG_2,PPG_3,92731.0,92731.0,-199.7077438611741,1.7872030774407976,0.04333764636131838
63105.30784459626,2.3204625358848716,PPG_2,PPG_3,92762.0,92762.0,-168.7462032407493,5.590174838651015,0.1347583568894299
63105.317933563805,2.330551503429888,PPG_2,PPG_3,92786.0,92786.0,-144.78466262030997,9.109179902045227,0.21935271189593236
63105.32802253136,2.34064047098218,PPG_2,PPG_3,92763.0,92763.0,-167.8231219998852,12.279997948199178,0.29557690101336737
63105.3381114989,2.350729438527196,PPG_2,PPG_3,92775.0,92775.0,-155.86158137944585,15.062928721957004,0.36247655861338185
63105.34820046645,2.3608184060722124,PPG_2,PPG_3,92780.0,92780.0,-150.90004075902107,17.446254463473775,0.41976999816289456
63105.35828943399,2.3709073736172286,PPG_2,PPG_3,92758.0,92758.0,-172.93850013858173,19.445954697917646,0.4678413559733226
63105.368378401545,2.3809963411695207,PPG_2,PPG_3,92773.0,92773.0,-157.97695951815695,21.103004945284802,0.5076756541241141
63105.37846736909,2.391085308714537,PPG_2,PPG_3,92793.0,92793.0,-138.0154188977176,22.48020824013941,0.5407826324723304
63105.388556336635,2.401174276259553,PPG_2,PPG_3,92778.0,92778.0,-153.05387827729282,23.6597037075392,0.5691368566067901
63105.39864530419,2.4112632438118453,PPG_2,PPG_3,92774.0,92774.0,-157.0923376568535,24.74025540265235,0.595112543499128
63105.40873427173,2.4213522113568615,PPG_2,PPG_3,92817.0,92817.0,-114.1307970364287,25.832614721589522,0.6213720771900805
63105.41882323928,2.4314411789018777,PPG_2,PPG_3,92760.0,92760.0,-171.16925641600392,27.051967485864754,0.6506844421230727
63105.42891220683,2.44153014645417,PPG_2,PPG_3,92787.0,92787.0,-144.20771579556458,28.507014873323772,0.685662736563851
63105.439001174374,2.451619113999186,PPG_2,PPG_3,92762.0,92762.0,-169.2461751751398,30.286739315547017,0.7284460342764059
63105.44909014192,2.4617080815442023,PPG_2,PPG_3,92790.0,92790.0,-141.28463455470046,32.448427840022724,0.780411474268299
63105.45917910947,2.4717970490964944,PPG_2,PPG_3,92789.0,92789.0,-142.32309393427568,35.01075522288394,0.8420079847488984
63105.46926807702,2.4818860166415107,PPG_2,PPG_3,92798.0,92798.0,-133.36155331383634,37.95301902603339,0.9127378939711188
63105.47935704456,2.491974984186527,PPG_2,PPG_3,92824.0,92824.0,-107.40001269341155,41.21863519937833,0.9912409619992343
63105.489446012114,2.502063951738819,PPG_2,PPG_3,92780.0,92780.0,-151.43847207297222,44.71952174468378,1.0753997608403487
63105.49953497966,2.512152919283835,PPG_2,PPG_3,92774.0,92774.0,-157.47693145254743,48.339029713368895,1.1624101335269061
63105.5096239472,2.5222418868288514,PPG_2,PPG_3,92839.0,92839.0,-92.5153908321081,51.93472680778616,1.2488481098927586
63105.51971291475,2.5323308543738676,PPG_2,PPG_3,92809.0,92809.0,-122.55385021168331,55.34437242248933,1.3308135422750456
63105.5298018823,2.54241982192616,PPG_2,PPG_3,92800.0,92800.0,-131.59230959124397,58.395355427249214,1.404156983041374
63105.53989084985,2.552508789471176,PPG_2,PPG_3,92831.0,92831.0,-100.63076897081919,60.91478563881694,1.4647222763251229
63105.54997981739,2.562597757016192,PPG_2,PPG_3,92801.0,92801.0,-130.66922835037985,62.738902544750076,1.5085727369905682
63105.560068784944,2.5726867245684844,PPG_2,PPG_3,92822.0,92822.0,-109.70768772995507,63.72255358720717,1.532219001769702
63105.57015775249,2.582775692113501,PPG_2,PPG_3,92811.0,92811.0,-120.74614710951573,63.74940723009282,1.532864544063209
63105.580246720034,2.5928646596585168,PPG_2,PPG_3,92857.0,92857.0,-74.78460648909095,62.742760400354705,1.5086654770692842
63105.590335687586,2.602953627210809,PPG_2,PPG_3,92807.0,92807.0,-124.82306586865161,60.67511454937465,1.4589607554236665
63105.60042465513,2.613042594755825,PPG_2,PPG_3,92826.0,92826.0,-105.86152524822683,57.57291310612709,1.384386060171979
63105.61051362267,2.6231315623008413,PPG_2,PPG_3,92810.0,92810.0,-121.89998462778749,53.513875184892605,1.2868097030176162
63105.62060259023,2.6332205298531335,PPG_2,PPG_3,92797.0,92797.0,-134.9384440073627,48.61748470569313,1.1691039916060102
63105.63069155777,2.6433094973981497,PPG_2,PPG_3,92761.0,92761.0,-170.97690338692337,43.031442505983485,1.034819548017358
63105.64078052532,2.653398464943166,PPG_2,PPG_3,92803.0,92803.0,-129.01536276649858,36.91831002016189,0.8878642324121633
63105.65086949287,2.663487432495458,PPG_2,PPG_3,92815.0,92815.0,-117.05382214605925,30.44654655428375,0.7322876855507763
63105.660958460416,2.6735764000404743,PPG_2,PPG_3,92765.0,92765.0,-167.09228152563446,23.786220398939676,0.5721782270264897
63105.67104742796,2.6836653675854905,PPG_2,PPG_3,92772.0,92772.0,-160.13074090519513,17.105298784140473,0.41157366844486215
63105.68113639551,2.6937543351377826,PPG_2,PPG_3,92762.0,92762.0,-170.16920028477034,10.563679344935451,0.25431783414271214
63105.69122536306,2.703843302682799,PPG_2,PPG_3,92774.0,92774.0,-158.207659664331,4.306283082741599,0.10389452093786565
63105.7013143306,2.713932270227815,PPG_2,PPG_3,92725.0,92725.0,-207.24611904390622,-1.5427510506673412,-0.03671205990333887
63105.71140329815,2.7240212377728312,PPG_2,PPG_3,92767.0,92767.0,-165.28457842346688,-6.884178230068761,-0.16511613404236103
63105.7214922657,2.7341102053251234,PPG_2,PPG_3,92747.0,92747.0,-185.3230378030421,-11.645698253721308,-0.27957965654235994
63105.731581233245,2.7441991728701396,PPG_2,PPG_3,92731.0,92731.0,-201.36149718260276,-15.78199517909285,-0.37901326468263524
63105.74167020079,2.754288140415156,PPG_2,PPG_3,92764.0,92764.0,-168.39995656217798,-19.27406194082746,-0.46296004225949144
63105.75175916834,2.764377107967448,PPG_2,PPG_3,92714.0,92714.0,-218.4384159417532,-22.129259294727273,-0.5315969365572392
63105.76184813589,2.774466075512464,PPG_2,PPG_3,92706.0,92706.0,-226.47687532131386,-24.382389686151118,-0.5857605733734379
63105.77193710343,2.7845550430574804,PPG_2,PPG_3,92718.0,92718.0,-214.51533470088907,-26.0957475967603,-0.6269484673185156
63105.782026070985,2.7946440106097725,PPG_2,PPG_3,92761.0,92761.0,-171.55379408044973,-27.354195417893404,-0.6572006493473221
63105.79211503853,2.8047329781547887,PPG_2,PPG_3,92730.0,92730.0,-202.59225346002495,-28.25393023183447,-0.6788296282464961
63105.802204006075,2.814821945699805,PPG_2,PPG_3,92738.0,92738.0,-194.6307128395856,-28.88928984205444,-0.6941032170750098
63105.81229297363,2.824910913252097,PPG_2,PPG_3,92721.0,92721.0,-211.66917221916083,-29.343451519326866,-0.7050209376992806
63105.82238194117,2.8349998807971133,PPG_2,PPG_3,92715.0,92715.0,-217.7076315987215,-29.684876099000824,-0.7132285394448225
63105.83247090872,2.8450888483421295,PPG_2,PPG_3,92726.0,92726.0,-206.7460909782967,-29.96721954174482,-0.7200158730800307
63105.84255987627,2.8551778158944217,PPG_2,PPG_3,92728.0,92728.0,-204.78455035785737,-30.22952493948268,-0.7263215065010169
63105.852648843815,2.865266783439438,PPG_2,PPG_3,92741.0,92741.0,-191.82300973743259,-30.49534600094546,-0.7327116539536319
63105.86273781136,2.875355750984454,PPG_2,PPG_3,92708.0,92708.0,-224.86146911699325,-30.771945403128782,-0.7393609049780999
63105.87282677891,2.8854447185367462,PPG_2,PPG_3,92751.0,92751.0,-181.89992849656846,-31.051420190706263,-0.7460792782028581
63105.88291574646,2.8955336860817624,PPG_2,PPG_3,92730.0,92730.0,-202.93838787612913,-31.31462936604225,-0.7524066377883726
63105.893004714,2.905622653626778,PPG_2,PPG_3,92695.0,92695.0,-237.97684725570434,-31.538210048433353,-0.7577813568575592
63105.90309368155,2.915711621171795,PPG_2,PPG_3,92704.0,92704.0,-229.015306635265,-31.703801364215835,-0.7617620531910239
63105.9131826491,2.925800588724087,PPG_2,PPG_3,92740.0,92740.0,-193.05376601484022,-31.805612693710145,-0.7642095244494536
63105.92327161664,2.935889556269103,PPG_2,PPG_3,92736.0,92736.0,-197.09222539440088,-31.85212195958255,-0.7653275738064236
63105.93336058419,2.9459785238141194,PPG_2,PPG_3,92710.0,92710.0,-223.1306847739761,-31.862425437735546,-0.7655752620231139
63105.94344955174,2.9560674913664116,PPG_2,PPG_3,92728.0,92728.0,-205.16914415353676,-31.861223187640658,-0.7655463607940728
63105.95353851929,2.966156458911428,PPG_2,PPG_3,92703.0,92703.0,-230.20760353311198,-31.87423427140974,-0.7658591379056577
63105.96362748683,2.976245426456444,PPG_2,PPG_3,92732.0,92732.0,-201.24606291267264,-31.922465785014218,-0.7670185888614978
63105.973716454384,2.986334394008736,PPG_2,PPG_3,92742.0,92742.0,-191.28452229224786,-32.01379227152291,-0.7692140120228844
63105.98380542193,2.9964233615537523,PPG_2,PPG_3,92751.0,92751.0,-182.32298167180852,-32.133307425897044,-0.7720870705197174
63105.993894389474,3.0065123290987685,PPG_2,PPG_3,92742.0,92742.0,-191.36144105138374,-32.237242195150394,-0.7745855877452812
63106.003983357026,3.0166012966510607,PPG_2,PPG_3,92709.0,92709.0,-224.3999004309444,-32.25567799584668,-0.7750287711567386
63106.01407232457,3.026690264196077,PPG_2,PPG_3,92728.0,92728.0,-205.43835981051961,-32.10541004529376,-0.7714164375209034
63106.02416129211,3.036779231741093,PPG_2,PPG_3,92693.0,92693.0,-240.47681919008028,-31.709008986715716,-0.7618872406967417
63106.03425025967,3.0468681992933853,PPG_2,PPG_3,92698.0,92698.0,-235.5152785696555,-31.013271929905958,-0.7451622214044491
63106.044339227214,3.0569571668384015,PPG_2,PPG_3,92725.0,92725.0,-208.55373794921616,-30.000391494925953,-0.7208133030163654
63106.05442819476,3.0670461343834177,PPG_2,PPG_3,92735.0,92735.0,-198.59219732879137,-28.687667471854436,-0.6892563600643807
63106.064517162304,3.077135101928434,PPG_2,PPG_3,92725.0,92725.0,-208.63065670835203,-27.116336729299647,-0.6514826972609237
63106.074606129856,3.087224069480726,PPG_2,PPG_3,92764.0,92764.0,-169.66911608792725,-25.334417964947328,-0.608646649619954
63106.0846950974,3.0973130370257422,PPG_2,PPG_3,92749.0,92749.0,-184.7075754674879,-23.379655128215305,-0.5616555545845496
63106.094784064946,3.1074020045707584,PPG_2,PPG_3,92747.0,92747.0,-186.74603484706313,-21.267968928143148,-0.5108921345686277
63106.1048730325,3.1174909721230506,PPG_2,PPG_3,92724.0,92724.0,-209.78449422663834,-18.991044570595776,-0.4561565078913729
63106.11496200004,3.127579939668067,PPG_2,PPG_3,92746.0,92746.0,-187.822953606199,-16.522830717785585,-0.3968224190977637
63106.12505096759,3.137668907213083,PPG_2,PPG_3,92732.0,92732.0,-201.86141298577422,-13.830993018019608,-0.3321125735898261
63106.13513993514,3.147757874765375,PPG_2,PPG_3,92767.0,92767.0,-166.8998723653349,-10.889062985383905,-0.2613906879711021
63106.145228902686,3.1578468423103914,PPG_2,PPG_3,92742.0,92742.0,-191.9383317449101,-7.687538838126175,-0.18442834623073984
63106.15531787023,3.1679358098554076,PPG_2,PPG_3,92742.0,92742.0,-191.97679112447076,-4.244250480697295,-0.10165416646950297
63106.16540683778,3.1780247774076997,PPG_2,PPG_3,92717.0,92717.0,-217.01525050404598,-0.6134344129901258,-0.014371955201901319
63106.17549580533,3.188113744952716,PPG_2,PPG_3,92753.0,92753.0,-181.05370988360664,3.110200261180561,0.07514154871942846
63106.18558477287,3.198202712497732,PPG_2,PPG_3,92751.0,92751.0,-183.09216926318186,6.797661204027413,0.16378546211321102
63106.195673740425,3.2082916800500243,PPG_2,PPG_3,92792.0,92792.0,-142.13062864274252,10.304312975524786,0.2480828528524293
63106.20576270797,3.2183806475950405,PPG_2,PPG_3,92804.0,92804.0,-130.16908802231774,13.49728981525434,0.32483972345695555
63106.215851675515,3.2284696151400567,PPG_2,PPG_3,92782.0,92782.0,-152.2075474018784,16.28337512180725,0.3918152137603449
63106.22594064307,3.238558582692349,PPG_2,PPG_3,92806.0,92806.0,-128.24600678145362,18.62857004251791,0.44819201575638673
63106.23602961061,3.248647550237365,PPG_2,PPG_3,92763.0,92763.0,-171.28446616101428,20.564397817763595,0.4947279255094203
63106.24611857816,3.2587365177823813,PPG_2,PPG_3,92782.0,92782.0,-152.3229255405895,22.181287534523335,0.5335967933404906
63106.2562075457,3.2688254853273975,PPG_2,PPG_3,92784.0,92784.0,-150.36138492015016,23.613105497075043,0.5680166690856985
63106.266296513255,3.2789144528796896,PPG_2,PPG_3,92780.0,92780.0,-154.39984429972537,25.017686145331716,0.6017817793522016
63106.2763854808,3.289003420424706,PPG_2,PPG_3,92802.0,92802.0,-132.43830367928604,26.556376138515976,0.6387707819775157
63106.286474448345,3.299092387969722,PPG_2,PPG_3,92794.0,92794.0,-140.47676305886125,28.373169725250357,0.6824451953077155
63106.2965634159,3.309181355522014,PPG_2,PPG_3,92763.0,92763.0,-171.51522243842192,30.572992864352027,0.735327364053785
63106.30665238344,3.3192703230670304,PPG_2,PPG_3,92766.0,92766.0,-168.55368181799713,33.20027446446016,0.7984853272785457
63106.31674135099,3.3293592906120466,PPG_2,PPG_3,92793.0,92793.0,-141.5921411975578,36.22245134126999,0.871136289412343
63106.32683031854,3.3394482581643388,PPG_2,PPG_3,92791.0,92791.0,-143.630600577133,39.5242120955017,0.9505082472124291
63106.336919286085,3.349537225709355,PPG_2,PPG_3,92809.0,92809.0,-125.66905995669367,42.91455633159012,1.0320096883116017
63106.34700825363,3.359626193254371,PPG_2,PPG_3,92810.0,92810.0,-124.70751933626889,46.14397627875852,1.1096426250520623
63106.35709722118,3.3697151608066633,PPG_2,PPG_3,92795.0,92795.0,-139.74597871582955,48.92743420632162,1.1765549550510483
63106.36718618873,3.3798041283516795,PPG_2,PPG_3,92814.0,92814.0,-120.78443809540477,50.97009459449346,1.2256590441108293
63106.37727515627,3.3898930958966957,PPG_2,PPG_3,92816.0,92816.0,-118.82289747496543,51.99468387932736,1.2502894348422073
63106.387364123824,3.399982063448988,PPG_2,PPG_3,92818.0,92818.0,-116.86135685454065,51.76968483429208,1.244880619353468
63106.39745309137,3.410071030994004,PPG_2,PPG_3,92819.0,92819.0,-115.89981623410131,50.13620351457112,1.2056129013003198
63106.407542058914,3.4201599985390203,PPG_2,PPG_3,92833.0,92833.0,-101.93827561367652,47.03026008400884,1.1309482513604097
63106.41763102646,3.4302489660840365,PPG_2,PPG_3,92826.0,92826.0,-108.97673499323719,42.49699017106524,1.0219716976336135
63106.42771999401,3.4403379336363287,PPG_2,PPG_3,92828.0,92828.0,-107.0151943728124,36.692949087631646,0.8824467174078877
63106.43780896156,3.450426901181345,PPG_2,PPG_3,92782.0,92782.0,-153.05365375237307,29.873219845885366,0.7185053231411632
63106.4478979291,3.460515868726361,PPG_2,PPG_3,92766.0,92766.0,-169.09211313194828,22.363150643975942,0.537968651910305
63106.457986896654,3.4706048362786532,PPG_2,PPG_3,92751.0,92751.0,-184.1305725115235,14.519913425138473,0.349422860773936
63106.4680758642,3.4806938038236694,PPG_2,PPG_3,92740.0,92740.0,-195.16903189108416,6.693253119339451,0.16127556672444926
63106.478164831744,3.4907827713686856,PPG_2,PPG_3,92760.0,92760.0,-175.20749127065938,-0.8054156471138542,-0.018987046223789345
63106.488253799296,3.500871738920978,PPG_2,PPG_3,92770.0,92770.0,-165.24595065022004,-7.7208310673719165,-0.18522866751730704
63106.49834276684,3.510960706465994,PPG_2,PPG_3,92719.0,92719.0,-216.28441002979525,-13.859641129621762,-0.3328012536228127
63106.508431734386,3.52104967401101,PPG_2,PPG_3,92776.0,92776.0,-159.32286940935592,-19.088301686677415,-0.4584944991293802
63106.51852070194,3.5311386415633024,PPG_2,PPG_3,92743.0,92743.0,-192.36132878893113,-23.326824879331173,-0.5603855533345726
63106.52860966948,3.5412276091083186,PPG_2,PPG_3,92728.0,92728.0,-207.3997881684918,-26.54113072097518,-0.6376551578304633
63106.53869863703,3.5513165766533348,PPG_2,PPG_3,92747.0,92747.0,-188.438247548067,-28.73635495806425,-0.6904267722742554
63106.54878760458,3.561405544205627,PPG_2,PPG_3,92743.0,92743.0,-192.47670692762767,-29.951897860006913,-0.7196475508523317
63106.558876572126,3.571494511750643,PPG_2,PPG_3,92733.0,92733.0,-202.5151663072029,-30.25796762562031,-0.727005248253336
63106.56896553967,3.5815834792956593,PPG_2,PPG_3,92737.0,92737.0,-198.55362568676355,-29.754012875084353,-0.7148905379002534
63106.57905450722,3.5916724468479515,PPG_2,PPG_3,92735.0,92735.0,-200.59208506633877,-28.5692474628865,-0.6864096280767762
63106.58914347477,3.6017614143929677,PPG_2,PPG_3,92705.0,92705.0,-230.63054444589943,-26.863965194185297,-0.6454158667646904
63106.59923244231,3.611850381937984,PPG_2,PPG_3,92723.0,92723.0,-212.66900382547465,-24.828731758989438,-0.5964903163217484
63106.60932140986,3.621939349483,PPG_2,PPG_3,92741.0,92741.0,-194.7074632050353,-22.677377628114687,-0.5447733077317165
63106.61941037741,3.632028317035292,PPG_2,PPG_3,92768.0,92768.0,-167.74592258461053,-20.63114948111694,-0.4955834523114846
63106.62949934496,3.642117284580309,PPG_2,PPG_3,92763.0,92763.0,-172.7843819641712,-18.896441770403577,-0.4538823245014948
63106.6395883125,3.6522062521253247,PPG_2,PPG_3,92735.0,92735.0,-200.8228413437464,-17.642932158261573,-0.42374885347109953
63106.64967728005,3.662295219677617,PPG_2,PPG_3,92768.0,92768.0,-167.86130072330707,-16.98796540707286,-0.40800392305202476
63106.6597662476,3.672384187222633,PPG_2,PPG_3,92751.0,92751.0,-184.89976010288228,-16.98859745965809,-0.40801911714234707
63106.66985521514,3.6824731547676497,PPG_2,PPG_3,92735.0,92735.0,-200.93821948244295,-17.64019700124482,-0.4236831022603154
63106.679944182695,3.6925621223199414,PPG_2,PPG_3,92753.0,92753.0,-182.97667886201816,-18.880336794526595,-0.4534951724451137
63106.69003315024,3.7026510898649576,PPG_2,PPG_3,92767.0,92767.0,-169.01513824157882,-20.596458478799505,-0.49474950552462155
63106.700122117785,3.712740057409974,PPG_2,PPG_3,92721.0,92721.0,-215.05359762115404,-22.636323830952065,-0.5437864039253918
63106.71021108534,3.722829024962266,PPG_2,PPG_3,92761.0,92761.0,-175.0920570007147,-24.821540192928484,-0.5963174362373344
63106.72030005288,3.732917992507282,PPG_2,PPG_3,92720.0,92720.0,-216.13051638028992,-26.963869662989275,-0.6478174984612893
63106.73038902043,3.7430069600522984,PPG_2,PPG_3,92725.0,92725.0,-211.16897575985058,-28.882268540471124,-0.6939344300263849
63106.74047798798,3.7530959276045905,PPG_2,PPG_3,92728.0,92728.0,-208.2074351394258,-30.417674296918506,-0.7308444819586934
63106.750566955525,3.7631848951496063,PPG_2,PPG_3,92767.0,92767.0,-169.24589451898646,-31.44283660150929,-0.7554886476735871
63106.76065592307,3.773273862694623,PPG_2,PPG_3,92739.0,92739.0,-197.28435389856168,-31.86709750362978,-0.7656875751325725
63106.77074489062,3.783362830246915,PPG_2,PPG_3,92715.0,92715.0,-221.32281327812234,-31.639525280786813,-0.7602169022969306
63106.78083385817,3.7934517977919313,PPG_2,PPG_3,92719.0,92719.0,-217.36127265769755,-30.752991134292436,-0.7389052579648263
63106.79092282571,3.803540765336947,PPG_2,PPG_3,92744.0,92744.0,-192.39973203727277,-29.24681536292706,-0.7026978738861629
63106.80101179326,3.813629732881964,PPG_2,PPG_3,92736.0,92736.0,-200.43819141683343,-27.203556333604904,-0.6535793939229652
63106.81110076081,3.823718700434256,PPG_2,PPG_3,92744.0,92744.0,-192.47665079640865,-24.738854037753494,-0.5943297204372755
63106.821189728355,3.833807667979272,PPG_2,PPG_3,92768.0,92768.0,-168.5151101759693,-21.986906086850002,-0.5281748676523796
63106.8312786959,3.843896635524288,PPG_2,PPG_3,92748.0,92748.0,-188.55356955554453,-19.085132893846627,-0.45841832362498597
63106.84136766345,3.853985603076581,PPG_2,PPG_3,92753.0,92753.0,-183.5920289351052,-16.161212222524412,-0.38812937012114906
63106.851456631,3.8640745706215966,PPG_2,PPG_3,92756.0,92756.0,-180.6304883146804,-13.324228152241535,-0.3199303100840431
63106.86154559854,3.874163538166613,PPG_2,PPG_3,92755.0,92755.0,-181.66894769424107,-10.659447220434357,-0.25587088985052303
63106.871634566094,3.884252505718905,PPG_2,PPG_3,92766.0,92766.0,-170.70740707381628,-8.22523351566594,-0.1973541402030375
63106.88172353364,3.894341473263921,PPG_2,PPG_3,92768.0,92768.0,-168.74586645337695,-6.051347356546815,-0.14509547783246723
63106.891812501184,3.9044304408089374,PPG_2,PPG_3,92771.0,92771.0,-165.78432583295216,-4.1389900396209,-0.09912378104517255
63106.90190146874,3.9145194083612296,PPG_2,PPG_3,92755.0,92755.0,-181.82278521251283,-2.4634026902478636,-0.05884386427217749
63106.91199043628,3.924608375906246,PPG_2,PPG_3,92787.0,92787.0,-149.86124459208804,-0.9791701955959535,-0.023163980809985097
63106.92207940383,3.934697343451262,PPG_2,PPG_3,92764.0,92764.0,-172.8997039716487,0.37247998657704634,0.009328719057022011
63106.93216837138,3.944786311003554,PPG_2,PPG_3,92748.0,92748.0,-188.93816335122392,1.655151122820688,0.0401632121882509
63106.94225733893,3.9548752785485703,PPG_2,PPG_3,92786.0,92786.0,-150.97662273078458,2.9287446871312843,0.07077948700809138
63106.95234630647,3.9649642460935866,PPG_2,PPG_3,92783.0,92783.0,-154.0150821103598,4.242987394545444,0.10237293804122671
63106.96243527402,3.9750532136458783,PPG_2,PPG_3,92768.0,92768.0,-169.05354148992046,5.633731587087367,0.13580542984720498
63106.972524241566,3.985142181190895,PPG_2,PPG_3,92783.0,92783.0,-154.09200086949568,7.120422816976847,0.17154441953908645
63106.98261320911,3.995231148735911,PPG_2,PPG_3,92750.0,92750.0,-187.13046024905634,8.703716874868599,0.20960567185333936
63106.992702176656,4.005320116280927,PPG_2,PPG_3,92789.0,92789.0,-148.16891962863156,10.3648213674024,0.24953743114690616
63107.00279114421,4.0154090838332195,PPG_2,PPG_3,92790.0,92790.0,-147.20737900819222,12.06896368067881,0.29050378874909116
63107.01288011175,4.025498051378236,PPG_2,PPG_3,92776.0,92776.0,-161.24583838776744,13.773333209564788,0.3314756084513847
63107.0229690793,4.035587018923252,PPG_2,PPG_3,92804.0,92804.0,-133.2842977673281,15.43726549161735,0.3714753457745719
63107.03305804685,4.045675986475544,PPG_2,PPG_3,92790.0,92790.0,-147.3227571469033,17.0319188277821,0.40980966698231397
63107.0431470144,4.05576495402056,PPG_2,PPG_3,92806.0,92806.0,-131.36121652646398,18.547405068599964,0.446240868061508
63107.05323598194,4.0658539215655765,PPG_2,PPG_3,92795.0,92795.0,-142.3996759060392,19.995611673927534,0.4810547150116674
63107.06332494949,4.075942889117869,PPG_2,PPG_3,92764.0,92764.0,-173.43813528559986,21.407766738239427,0.5150019088015526
63107.07341391704,4.086031856662885,PPG_2,PPG_3,92812.0,92812.0,-125.47659466517507,22.828144267312826,0.5491467647404068
63107.08350288458,4.096120824207901,PPG_2,PPG_3,92788.0,92788.0,-149.51505404473573,24.30721747847789,0.5847026227320463
63107.093591852135,4.106209791760193,PPG_2,PPG_3,92795.0,92795.0,-142.55351342431095,25.896539328488895,0.6229087788407682
63107.10368081968,4.116298759305209,PPG_2,PPG_3,92816.0,92816.0,-121.59197280387161,27.645170103450518,0.6649446071182418
63107.113769787225,4.126387726850226,PPG_2,PPG_3,92823.0,92823.0,-114.63043218344683,29.59624032786353,0.7118469344048681
63107.12385875478,4.136476694402518,PPG_2,PPG_3,92771.0,92771.0,-166.6688915630075,31.78175433879738,0.7643851219840294
63107.13394772232,4.146565661947534,PPG_2,PPG_3,92801.0,92801.0,-136.7073509425827,34.21472618776958,0.8228720183098516
63107.14403668987,4.15665462949255,PPG_2,PPG_3,92828.0,92828.0,-109.74581032215792,36.88110758924125,0.8869699126849362
63107.15412565741,4.166743597037566,PPG_2,PPG_3,92802.0,92802.0,-135.78426970171859,39.735142871469684,0.955578871614095
63107.164214624965,4.1768325645898585,PPG_2,PPG_3,92810.0,92810.0,-127.8227290812938,42.698617298926,1.0268186690149912
63107.17430359251,4.186921532134875,PPG_2,PPG_3,92816.0,92816.0,-121.86118846085446,45.662554833991905,1.098069599190301
63107.184392560055,4.197010499679891,PPG_2,PPG_3,92821.0,92821.0,-116.89964784042968,48.49144206083146,1.1660740169247286
63107.19448152761,4.207099467232183,PPG_2,PPG_3,92811.0,92811.0,-126.93810721999034,51.03088623360103,1.227120431465337
63107.20457049515,4.217188434777199,PPG_2,PPG_3,92849.0,92849.0,-88.97656659956556,53.118626245900074,1.277308202321045
63107.2146594627,4.2272774023222155,PPG_2,PPG_3,92823.0,92823.0,-115.01502597912622,54.59767871479241,1.3128635616833415
63107.22474843025,4.237366369874508,PPG_2,PPG_3,92841.0,92841.0,-97.05348535870144,55.3293563781795,1.3304525673516636
63107.234837397795,4.247455337419524,PPG_2,PPG_3,92836.0,92836.0,-102.0919447382621,55.20357811117017,1.3274289481241235
63107.24492636534,4.25754430496454,PPG_2,PPG_3,92816.0,92816.0,-122.13040411783732,54.14496159158832,1.3019805671016542
63107.25501533289,4.267633272516832,PPG_2,PPG_3,92806.0,92806.0,-132.16886349739798,52.11503778872039,1.253182656407451
63107.26510430044,4.277722240061848,PPG_2,PPG_3,92835.0,92835.0,-103.2073228769732,49.11295070886697,1.1810146385676015
63107.27519326798,4.287811207606865,PPG_2,PPG_3,92844.0,92844.0,-94.24578225653386,45.1772563247967,1.0864033714834878
63107.285282235534,4.297900175159157,PPG_2,PPG_3,92811.0,92811.0,-127.28424163610907,40.38812880760802,0.9712761846616244
63107.29537120308,4.307989142704173,PPG_2,PPG_3,92803.0,92803.0,-135.32270101566974,34.86613875411424,0.8385315086772526
63107.305460170624,4.318078110249189,PPG_2,PPG_3,92799.0,92799.0,-139.36116039524495,28.765576401314807,0.6918783700442984
63107.31554913818,4.328167077801481,PPG_2,PPG_3,92821.0,92821.0,-117.39961977480561,22.26424226158009,0.5355909654157469
63107.32563810572,4.338256045346498,PPG_2,PPG_3,92762.0,92762.0,-176.43807915438083,15.552069578190567,0.3742351535841136
63107.33572707327,4.348345012891514,PPG_2,PPG_3,92773.0,92773.0,-165.4765385339415,8.819293771816602,0.21238405746939723
63107.34581604081,4.35843398043653,PPG_2,PPG_3,92794.0,92794.0,-144.5149979135167,2.245528658478536,0.05435546424233931
63107.35590500837,4.368522947988822,PPG_2,PPG_3,92748.0,92748.0,-190.55345729307737,-4.007852304714144,-0.09597132405758567
63107.36599397591,4.378611915533838,PPG_2,PPG_3,92784.0,92784.0,-154.5919166726526,-9.801367503676335,-0.23524326957841898
63107.376082943454,4.3887008830788545,PPG_2,PPG_3,92760.0,92760.0,-178.63037605221325,-15.018487233026251,-0.3606590818734905
63107.38617191101,4.398789850631147,PPG_2,PPG_3,92771.0,92771.0,-167.66883543178847,-19.565911390999855,-0.469975893487771
63107.39626087855,4.408878818176163,PPG_2,PPG_3,92732.0,92732.0,-206.70729481134913,-23.374865906267377,-0.5615404251276805
63107.4063498461,4.418967785721179,PPG_2,PPG_3,92757.0,92757.0,-181.74575419092434,-26.40417859207416,-0.634362926986108
63107.41643881365,4.429056753273471,PPG_2,PPG_3,92746.0,92746.0,-192.784213570485,-28.643844120866753,-0.6882028781726978
63107.426527781194,4.4391457208184875,PPG_2,PPG_3,92738.0,92738.0,-200.82267295006022,-30.117273568373353,-0.7236230641383253
63107.43661674874,4.449234688363504,PPG_2,PPG_3,92744.0,92744.0,-194.8611323296209,-30.88155349367798,-0.7419958047740555
63107.44670571629,4.459323655915796,PPG_2,PPG_3,92747.0,92747.0,-191.8995917091961,-31.02557905335913,-0.7454580758154974
63107.45679468384,4.469412623460812,PPG_2,PPG_3,92743.0,92743.0,-195.93805108875677,-30.665941853512383,-0.7368126557580349
63107.46688365138,4.479501591005828,PPG_2,PPG_3,92730.0,92730.0,-208.97651046833198,-29.940842842176085,-0.7193817961614072
63107.47697261893,4.48959055855812,PPG_2,PPG_3,92765.0,92765.0,-174.01496984789264,-29.002235335400187,-0.696818345637871
63107.48706158648,4.499679526103137,PPG_2,PPG_3,92734.0,92734.0,-205.05342922746786,-28.00611493649206,-0.6728723264829071
63107.49715055402,4.509768493648153,PPG_2,PPG_3,92753.0,92753.0,-186.09188860704307,-27.101515410497576,-0.6511264033989315
63107.50723952157,4.519857461193169,PPG_2,PPG_3,92774.0,92774.0,-165.13034798660374,-26.419532618060792,-0.6347320267463225
63107.51732848912,4.529946428745461,PPG_2,PPG_3,92735.0,92735.0,-204.16880736617895,-26.064031173550916,-0.6261860272776015
63107.527417456666,4.540035396290477,PPG_2,PPG_3,92733.0,92733.0,-206.20726674573962,-26.10561926417216,-0.6271857751150379
63107.53750642421,4.550124363835494,PPG_2,PPG_3,92773.0,92773.0,-166.24572612531483,-26.578726958588295,-0.6385589443878162
63107.54759539176,4.560213331387786,PPG_2,PPG_3,92747.0,92747.0,-192.2841855048755,-27.47993746488901,-0.660223397871739
63107.55768435931,4.570302298932802,PPG_2,PPG_3,92734.0,92734.0,-205.3226448844507,-28.767205470607717,-0.6911683964445023
63107.56777332685,4.580391266477818,PPG_2,PPG_3,92782.0,92782.0,-157.36110426401137,-30.36144854701752,-0.7294928553023103
63107.577862294405,4.59048023403011,PPG_2,PPG_3,92722.0,92722.0,-217.3995636435866,-32.151469466593134,-0.7725236729373353
63107.58795126195,4.6005692015751265,PPG_2,PPG_3,92744.0,92744.0,-195.43802302314725,-34.002407483240454,-0.8170188938462443
63107.598040229495,4.610658169120143,PPG_2,PPG_3,92720.0,92720.0,-219.47648240272247,-35.7669122768454,-0.8594363221340339
63107.60812919705,4.620747136672435,PPG_2,PPG_3,92772.0,92772.0,-167.51494178228313,-37.296419673075555,-0.8962045817218633
63107.61821816459,4.630836104217451,PPG_2,PPG_3,92730.0,92730.0,-209.55340116185835,-38.45056977442222,-0.9239495214548964
63107.62830713214,4.640925071762467,PPG_2,PPG_3,92737.0,92737.0,-202.591860541419,-39.10592515995114,-0.9397037943644624
63107.63839609969,4.651014039314759,PPG_2,PPG_3,92748.0,92748.0,-191.63031992099422,-39.165945208868685,-0.9411466332448194
63107.648485067235,4.661103006859776,PPG_2,PPG_3,92728.0,92728.0,-211.6687793005549,-38.57206552837258,-0.9268701921434308
63107.65857403478,4.671191974404792,PPG_2,PPG_3,92695.0,92695.0,-244.7072386801301,-37.31396770786652,-0.8966264238783908
63107.66866300233,4.681280941957084,PPG_2,PPG_3,92750.0,92750.0,-189.74569805969077,-35.43568399728573,-0.8514738321220878
63107.67875196988,4.6913699095021,PPG_2,PPG_3,92728.0,92728.0,-211.78415743926598,-33.03311133933844,-0.7937177105212645
63107.68884093742,4.701458877047116,PPG_2,PPG_3,92766.0,92766.0,-173.82261681882665,-30.24093956435093,-0.7265959058869159
63107.69892990497,4.711547844592133,PPG_2,PPG_3,92768.0,92768.0,-171.86107619840186,-27.21208468160353,-0.6537844092853241
63107.70901887252,4.721636812144425,PPG_2,PPG_3,92750.0,92750.0,-189.89953557796252,-24.09578063890978,-0.5788706976689046
63107.719107840065,4.731725779689441,PPG_2,PPG_3,92787.0,92787.0,-152.93799495753774,-21.019936112215,-0.5049296037663418
63107.72919680761,4.741814747234457,PPG_2,PPG_3,92747.0,92747.0,-192.9764543370984,-18.080865051130687,-0.43427644577091323
63107.73928577516,4.751903714786749,PPG_2,PPG_3,92757.0,92757.0,-183.01491371667362,-15.340888002984949,-0.3684093648929613
63107.74937474271,4.7619926823317655,PPG_2,PPG_3,92758.0,92758.0,-182.05337309623428,-12.831950839833574,-0.3080963169589184
63107.75946371025,4.772081649876782,PPG_2,PPG_3,92763.0,92763.0,-177.0918324758095,-10.561654111845963,-0.25352001373750693
63107.76955267781,4.782170617429074,PPG_2,PPG_3,92762.0,92762.0,-178.13029185537016,-8.518414135297828,-0.20440199178931637
63107.77964164535,4.79225958497409,PPG_2,PPG_3,92798.0,92798.0,-142.16875123494538,-6.674645394620713,-0.1600791151270445
63107.789730612894,4.802348552519106,PPG_2,PPG_3,92764.0,92764.0,-176.20721061450604,-4.989140748564994,-0.11956079366261928
63107.79981958045,4.8124375200713985,PPG_2,PPG_3,92772.0,92772.0,-168.24566999408125,-3.411005893257723,-0.08162356487408448
63107.80990854799,4.822526487616415,PPG_2,PPG_3,92785.0,92785.0,-155.28412937364192,-1.8864108148488297,-0.04497339387953356
63107.81999751554,4.832615455161431,PPG_2,PPG_3,92751.0,92751.0,-189.32258875321713,-0.367031522712006,-0.008448606641922143
63107.83008648309,4.842704422713723,PPG_2,PPG_3,92788.0,92788.0,-152.36104813279235,1.1821255897700427,0.028792018015705398
63107.840175450634,4.852793390258739,PPG_2,PPG_3,92781.0,92781.0,-159.399507512353,2.777553445315117,0.0671449581132297
63107.85026441818,4.862882357803755,PPG_2,PPG_3,92768.0,92768.0,-172.43796689192823,4.415633442057117,0.10652322506001975
63107.86035338573,4.872971325356048,PPG_2,PPG_3,92762.0,92762.0,-178.4764262714889,6.074450743218342,0.14640000191523994
63107.87044235328,4.883060292901064,PPG_2,PPG_3,92797.0,92797.0,-143.5148856510641,7.719610073841467,0.18594845096542592
63107.88053132082,4.89314926044608,PPG_2,PPG_3,92821.0,92821.0,-119.55334503062477,9.314961997003548,0.2242995657029841
63107.890620288366,4.903238227991096,PPG_2,PPG_3,92780.0,92780.0,-160.59180441019998,10.835886089217524,0.26086148882525223
63107.90070925592,4.913327195543388,PPG_2,PPG_3,92819.0,92819.0,-121.63026378976065,12.279371381241306,0.295561838793588
63107.910798223464,4.923416163088405,PPG_2,PPG_3,92806.0,92806.0,-134.66872316933586,13.66630494630915,0.32890272585119773
63107.92088719101,4.933505130633421,PPG_2,PPG_3,92753.0,92753.0,-187.70718254889653,15.034978218778344,0.36180464858599887
63107.93097615856,4.943594098185713,PPG_2,PPG_3,92790.0,92790.0,-150.74564192847174,16.428176804573408,0.39529614224347825
63107.941065126106,4.953683065730729,PPG_2,PPG_3,92778.0,92778.0,-162.7841013080324,17.8796263197441,0.4301879464177909
63107.95115409365,4.963772033275745,PPG_2,PPG_3,92803.0,92803.0,-137.82256068760762,19.406220945228995,0.46688618508833324
63107.9612430612,4.9738610008280375,PPG_2,PPG_3,92788.0,92788.0,-152.86102006716828,21.00849347143697,0.5054036661539804
63107.97133202875,4.983949968373054,PPG_2,PPG_3,92841.0,92841.0,-99.8994794467435,22.67729216361083,0.5455203884823017
63107.98142099629,4.99403893591807,PPG_2,PPG_3,92811.0,92811.0,-129.93793882630416,24.402293895107846,0.5869881915210218
63107.991509963846,5.004127903470362,PPG_2,PPG_3,92810.0,92810.0,-130.97639820587938,26.17702696644694,0.629651500261428
63108.00159893139,5.014216871015378,PPG_2,PPG_3,92777.0,92777.0,-164.01485758544004,27.996814343237205,0.6733978821549689
63108.011687898936,5.0243058385603945,PPG_2,PPG_3,92822.0,92822.0,-119.05331696501526,29.8510783856602,0.7179730583353708
63108.02177686649,5.034394806112687,PPG_2,PPG_3,92812.0,92812.0,-129.09177634457592,31.715004099260845,0.7627804941536062
63108.03186583403,5.044483773657703,PPG_2,PPG_3,92815.0,92815.0,-126.13023572415113,33.54371288248073,0.8067413402519631
63108.04195480158,5.054572741202719,PPG_2,PPG_3,92824.0,92824.0,-117.1686951037118,35.268206865542965,0.8481969373828848
63108.05204376912,5.064661708747735,PPG_2,PPG_3,92764.0,92764.0,-177.207154483287,36.79165566738732,0.8848195527118742
63108.062132736675,5.074750676300027,PPG_2,PPG_3,92798.0,92798.0,-143.24561386284768,37.98772918036554,0.9135723011586642
63108.07222170422,5.084839643845044,PPG_2,PPG_3,92839.0,92839.0,-102.28407324242289,38.70604349747234,0.9308400615775639
63108.082310671765,5.09492861139006,PPG_2,PPG_3,92818.0,92818.0,-123.32253262198356,38.78819743021712,0.932814983132547
63108.09239963932,5.105017578942352,PPG_2,PPG_3,92820.0,92820.0,-121.36099200155877,38.091380302509876,0.9160639997113917
63108.10248860686,5.115106546487368,PPG_2,PPG_3,92845.0,92845.0,-96.39945138111943,36.51254766432238,0.8781099967234388
63108.11257757441,5.125195514032384,PPG_2,PPG_3,92822.0,92822.0,-119.43791076069465,34.007558569012986,0.8178918575055237
63108.12266654196,5.1352844815846765,PPG_2,PPG_3,92817.0,92817.0,-124.47637014025531,30.601773793921485,0.7360192369353395
63108.132755509505,5.145373449129693,PPG_2,PPG_3,92825.0,92825.0,-116.51482951983053,26.38997796708225,0.6347706894135339
63108.14284447705,5.155462416674709,PPG_2,PPG_3,92777.0,92777.0,-164.5532888993912,21.52571771276929,0.5178373655380422
63108.1529334446,5.165551384227001,PPG_2,PPG_3,92781.0,92781.0,-160.5917482789664,16.202745069270286,0.3898769251913805
63108.16302241215,5.175640351772017,PPG_2,PPG_3,92797.0,92797.0,-144.63020765852707,10.633428687335877,0.25599455825256623
63108.17311137969,5.1857293193170335,PPG_2,PPG_3,92801.0,92801.0,-140.66866703810229,5.028996205022812,0.12126802547472625
63108.183200347245,5.195818286869326,PPG_2,PPG_3,92757.0,92757.0,-184.7071264176775,-0.41703453702911236,-0.009650643202920027
63108.19328931479,5.205907254414342,PPG_2,PPG_3,92721.0,92721.0,-220.74558579723816,-5.543284693366222,-0.1328820162089727
63108.203378282335,5.215996221959358,PPG_2,PPG_3,92777.0,92777.0,-164.78404517681338,-10.230617142407556,-0.24556212268351155
63108.21346724989,5.22608518951165,PPG_2,PPG_3,92801.0,92801.0,-140.82250455637404,-14.40257101517451,-0.34585289823675625
63108.22355621743,5.2361741570566664,PPG_2,PPG_3,92768.0,92768.0,-173.86096393594926,-18.015634974889235,-0.43270836157459547
63108.23364518498,5.246263124601683,PPG_2,PPG_3,92778.0,92778.0,-163.89942331550992,-21.04692431074467,-0.5055783806809174
63108.24373415252,5.256352092146699,PPG_2,PPG_3,92753.0,92753.0,-188.93788269508514,-23.487616690992066,-0.5642508730350962
63108.253823120074,5.266441059698991,PPG_2,PPG_3,92726.0,92726.0,-215.9763420746458,-25.344329107814307,-0.6088849063780731
63108.26391208762,5.276530027244007,PPG_2,PPG_3,92731.0,92731.0,-211.01480145422101,-26.644545538983905,-0.640141175801442
63108.27400105517,5.286618994789023,PPG_2,PPG_3,92775.0,92775.0,-167.05326083378168,-27.439623365159637,-0.6592542758605917
63108.28409002272,5.296707962341316,PPG_2,PPG_3,92758.0,92758.0,-184.0917202133569,-27.80124849639323,-0.6679474843612186
63108.29417899026,5.306796929886332,PPG_2,PPG_3,92740.0,92740.0,-202.13017959291756,-27.813075077089845,-0.6682317868694388
63108.30426795781,5.316885897431348,PPG_2,PPG_3,92761.0,92761.0,-181.16863897249277,-27.562184010628158,-0.6622005457766088
63108.31435692536,5.32697486498364,PPG_2,PPG_3,92753.0,92753.0,-189.20709835205344,-27.132521145285057,-0.6518717590004718
63108.324445892904,5.337063832528656,PPG_2,PPG_3,92756.0,92756.0,-186.24555773162865,-26.599996775066767,-0.6390702555037961
63108.33453486045,5.3471528000736726,PPG_2,PPG_3,92751.0,92751.0,-191.2840171111893,-26.029223976362744,-0.6253492872494762
63108.344623828,5.357241767625965,PPG_2,PPG_3,92744.0,92744.0,-198.32247649076453,-25.47215139664209,-0.6119576624224795
63108.354712795546,5.367330735170981,PPG_2,PPG_3,92760.0,92760.0,-182.3609358703252,-24.967890693315624,-0.5998355971839934
63108.36480176309,5.377419702715997,PPG_2,PPG_3,92765.0,92765.0,-177.3993952499004,-24.542671105994856,-0.5896136236211489
63108.37489073064,5.387508670268289,PPG_2,PPG_3,92769.0,92769.0,-173.43785462946107,-24.210227844765633,-0.5816219263222485
63108.38497969819,5.3975976378133055,PPG_2,PPG_3,92730.0,92730.0,-212.4763140090363,-23.974518486793716,-0.575955642600736
63108.39506866573,5.407686605358322,PPG_2,PPG_3,92721.0,92721.0,-221.51477338859695,-23.835368169611638,-0.572610568888448
63108.405157633286,5.417775572910614,PPG_2,PPG_3,92754.0,92754.0,-188.55323276817217,-23.793389883953903,-0.5716014410425023
63108.41524660083,5.42786454045563,PPG_2,PPG_3,92784.0,92784.0,-158.59169214773283,-23.84870771459016,-0.5729312419716659
63108.425335568376,5.437953508000646,PPG_2,PPG_3,92748.0,92748.0,-194.63015152730804,-23.992683692682224,-0.5763923211073069
63108.43542453592,5.4480424755456625,PPG_2,PPG_3,92792.0,92792.0,-150.6686109068687,-24.198203208114965,-0.5813328626911011
63108.44551350347,5.458131443097955,PPG_2,PPG_3,92760.0,92760.0,-182.70707028644392,-24.41528638190751,-0.5865513863189222
63108.45560247102,5.468220410642971,PPG_2,PPG_3,92725.0,92725.0,-217.7455296660046,-24.575541104051418,-0.5904037947730988
63108.46569143856,5.478309378187987,PPG_2,PPG_3,92731.0,92731.0,-211.7839890455798,-24.604262526025256,-0.5910942371347824
63108.475780406116,5.488398345740279,PPG_2,PPG_3,92764.0,92764.0,-178.82244842514046,-24.43424306034981,-0.5870070912573929
63108.48586937366,5.498487313285295,PPG_2,PPG_3,92761.0,92761.0,-181.86090780471568,-24.01483658530497,-0.5769248607397284
63108.495958341206,5.508576280830312,PPG_2,PPG_3,92731.0,92731.0,-211.89936718427634,-23.314950003919403,-0.5601000898560766
63108.50604730876,5.518665248382604,PPG_2,PPG_3,92778.0,92778.0,-164.93782656385156,-22.322702334045513,-0.5362471683263972
63108.5161362763,5.52875421592762,PPG_2,PPG_3,92728.0,92728.0,-214.97628594341222,-21.043555819735378,-0.5054974045756994
63108.52622524385,5.538843183472636,PPG_2,PPG_3,92767.0,92767.0,-176.01474532298744,-19.4967588589374,-0.46831351626991974
63108.5363142114,5.548932151024928,PPG_2,PPG_3,92767.0,92767.0,-176.05320470256265,-17.70974404123551,-0.42535496316549665
63108.546403178945,5.5590211185699445,PPG_2,PPG_3,92774.0,92774.0,-169.09166408212332,-15.71117570406664,-0.3773108153528344
63108.55649214649,5.569110086114961,PPG_2,PPG_3,92758.0,92758.0,-185.13012346169853,-13.52497235779348,-0.324756056647073
63108.56658111404,5.579199053667253,PPG_2,PPG_3,92771.0,92771.0,-172.1685828412592,-11.167844180289443,-0.2680923877260405
63108.57667008159,5.589288021212269,PPG_2,PPG_3,92789.0,92789.0,-154.2070422208344,-8.651039683065473,-0.20759021472979902
63108.58675904913,5.599376988757285,PPG_2,PPG_3,92727.0,92727.0,-216.24550160039507,-5.985640805357265,-0.14351593952051594
63108.59684801668,5.6094659563023015,PPG_2,PPG_3,92755.0,92755.0,-188.2839609799703,-3.189771380389724,-0.07630524603563568
63108.60693698423,5.619554923854594,PPG_2,PPG_3,92803.0,92803.0,-140.32242035953095,-0.2938144952490565,-0.006688521873033664
63108.617025951775,5.62964389139961,PPG_2,PPG_3,92774.0,92774.0,-169.36087973910617,2.660064205222419,0.06432060114107478
63108.62711491932,5.639732858944626,PPG_2,PPG_3,92779.0,92779.0,-164.39933911866683,5.62286994662369,0.13554432380933784
63108.63720388687,5.649821826496918,PPG_2,PPG_3,92785.0,92785.0,-158.43779849824205,8.543934562382015,0.20576461978812505
63108.64729285442,5.659910794041934,PPG_2,PPG_3,92774.0,92774.0,-169.4762578778027,11.374487998963238,0.2738090920083696
63108.65738182196,5.669999761586951,PPG_2,PPG_3,92786.0,92786.0,-157.51471725737792,14.070843583671211,0.3386275442263793
63108.667470789514,5.680088729139243,PPG_2,PPG_3,92802.0,92802.0,-141.5531766369386,16.598609304001858,0.39939321715572335
63108.67755975706,5.690177696684259,PPG_2,PPG_3,92806.0,92806.0,-137.5916360165138,18.93782224654204,0.4556262166917293
63108.687648724605,5.700266664229275,PPG_2,PPG_3,92791.0,92791.0,-152.63009539607447,21.086883587953196,0.507288108269326
63108.69773769216,5.710355631781567,PPG_2,PPG_3,92801.0,92801.0,-142.66855477564968,23.062650238501366,0.5547841199077034
63108.7078266597,5.720444599326584,PPG_2,PPG_3,92784.0,92784.0,-159.70701415521035,24.896083244863764,0.5988585329383177
63108.71791562725,5.7305335668716,PPG_2,PPG_3,92789.0,92789.0,-154.74547353478556,26.625432172875133,0.640430839459867
63108.7280045948,5.740622534423892,PPG_2,PPG_3,92796.0,92796.0,-147.78393291434622,28.29005720781661,0.680447230065093
63108.738093562344,5.750711501968908,PPG_2,PPG_3,92806.0,92806.0,-137.82239229392144,29.927388580719807,0.7198075006323253
63108.74818252989,5.760800469513924,PPG_2,PPG_3,92818.0,92818.0,-125.8608516734821,31.573376175836806,0.7593758605662333
63108.75827149744,5.7708894370662165,PPG_2,PPG_3,92798.0,92798.0,-145.89931105305732,33.264270302183284,0.8000237412670914
63108.76836046499,5.780978404611233,PPG_2,PPG_3,92835.0,92835.0,-108.93777043261798,35.036686508701756,0.8426313542407661
63108.77844943253,5.791067372156249,PPG_2,PPG_3,92811.0,92811.0,-132.9762298121932,36.92371200552208,0.8879940922614864
63108.78853840008,5.801156339701265,PPG_2,PPG_3,92797.0,92797.0,-147.01468919175386,38.94586760130395,0.936605260835072
63108.79862736763,5.811245307253557,PPG_2,PPG_3,92782.0,92782.0,-162.05314857132907,41.0976805661176,0.9883332994635429
63108.808716335174,5.8213342747985735,PPG_2,PPG_3,92804.0,92804.0,-140.09160795088974,43.33424008022379,1.0420985842872534
63108.81880530272,5.83142324234359,PPG_2,PPG_3,92808.0,92808.0,-136.13006733046495,45.56409872226737,1.0957027849579417
63108.82889427027,5.841512209895882,PPG_2,PPG_3,92815.0,92815.0,-129.16852671002562,47.65223073409315,1.145899979200809
63108.838983237816,5.851601177440898,PPG_2,PPG_3,92806.0,92806.0,-138.20698608960083,49.432241363076805,1.1886901566375963
63108.84907220536,5.861690144985914,PPG_2,PPG_3,92841.0,92841.0,-103.2454454691615,50.72481630553259,1.21976273015903
63108.85916117291,5.871779112538206,PPG_2,PPG_3,92822.0,92822.0,-122.28390484873671,51.35914097010751,1.2350114396373488
63108.86925014046,5.881868080083223,PPG_2,PPG_3,92824.0,92824.0,-120.32236422831193,51.19358412367413,1.2310315719222868
63108.879339108,5.891957047628239,PPG_2,PPG_3,92838.0,92838.0,-106.36082360787259,50.131985790291765,1.2055115102370562
63108.88942807555,5.902046015180531,PPG_2,PPG_3,92808.0,92808.0,-136.3992829874478,48.13325094884648,1.1574633597811423
63108.8995170431,5.912134982725547,PPG_2,PPG_3,92822.0,92822.0,-122.43774236700847,45.213461883276466,1.087273727113011
63108.909606010646,5.922223950270563,PPG_2,PPG_3,92809.0,92809.0,-135.47620174658368,41.44092019198327,0.9965845336162931
63108.9196949782,5.9323129178228555,PPG_2,PPG_3,92784.0,92784.0,-160.51466112614435,36.925625703253054,0.888040096180865
63108.92978394574,5.942401885367872,PPG_2,PPG_3,92772.0,92772.0,-172.55312050571956,31.80579796218408,0.7649631134264331
63108.93987291329,5.952490852912888,PPG_2,PPG_3,92793.0,92793.0,-151.59157988528023,26.23547418084792,0.6310565293293341
63108.94996188083,5.962579820457904,PPG_2,PPG_3,92796.0,92796.0,-148.63003926485544,20.377152245751574,0.4902266764043956
63108.960050848385,5.972668788010196,PPG_2,PPG_3,92792.0,92792.0,-152.6684986444161,14.39979303546128,0.34653525285498893
63108.97013981593,5.9827577555552125,PPG_2,PPG_3,92774.0,92774.0,-170.70695802399132,8.478143310771562,0.2041830453388719
63108.980228783475,5.992846723100229,PPG_2,PPG_3,92773.0,92773.0,-171.74541740355198,2.7888396360591985,0.067416270035002
63108.99031775103,6.002935690652521,PPG_2,PPG_3,92758.0,92758.0,-186.7838767831272,-2.498309730916787,-0.0596830044658904
63109.00040671857,6.013024658197537,PPG_2,PPG_3,92734.0,92734.0,-210.82233616268786,-7.232536624942462,-0.17349041972668372
63109.01049568612,6.023113625742553,PPG_2,PPG_3,92759.0,92759.0,-185.86079554226308,-11.29487493209949,-0.2711461157888802
63109.02058465367,6.033202593294845,PPG_2,PPG_3,92739.0,92739.0,-205.89925492182374,-14.608240253961469,-0.35079703906248144
63109.030673621215,6.043291560839862,PPG_2,PPG_3,92738.0,92738.0,-206.93771430139896,-17.143018841782286,-0.41173129629090705
63109.04076258876,6.053380528384878,PPG_2,PPG_3,92722.0,92722.0,-222.97617368095962,-18.917990123382,-0.4544003314349387
63109.05085155631,6.06346949593717,PPG_2,PPG_3,92736.0,92736.0,-209.01463306053483,-19.996160362670718,-0.48031876983919114
63109.06094052386,6.073558463482186,PPG_2,PPG_3,92753.0,92753.0,-192.0530924400955,-20.474460425812836,-0.4918167599279153
63109.0710294914,6.083647431027202,PPG_2,PPG_3,92740.0,92740.0,-205.0915518196707,-20.46794155100594,-0.4916600508582427
63109.081118458955,6.093736398579495,PPG_2,PPG_3,92765.0,92765.0,-180.13001119923138,-20.09206255510974,-0.48262418968569276
63109.0912074265,6.103825366124511,PPG_2,PPG_3,92745.0,92745.0,-200.1684705788066,-19.44793897624652,-0.46713992134370363
63109.101296394045,6.113914333669527,PPG_2,PPG_3,92747.0,92747.0,-198.20692995836725,-18.6143838724088,-0.4471018551570308
63109.1113853616,6.124003301221819,PPG_2,PPG_3,92760.0,92760.0,-185.24538933794247,-17.64844657930258,-0.42388141619345837
63109.12147432914,6.134092268766835,PPG_2,PPG_3,92709.0,92709.0,-236.28384871750313,-16.59398383278039,-0.39853288889284927
63109.13156329669,6.1441812363118515,PPG_2,PPG_3,92721.0,92721.0,-224.32230809707835,-15.49553818732086,-0.3721270442824062
63109.14165226423,6.154270203856868,PPG_2,PPG_3,92716.0,92716.0,-229.360767476639,-14.411953791473795,-0.346078453441966
63109.151741231784,6.16435917140916,PPG_2,PPG_3,92733.0,92733.0,-212.39922685621423,-13.422695175621117,-0.3222973866247547
63109.16183019933,6.174448138954176,PPG_2,PPG_3,92770.0,92770.0,-175.4376862357749,-12.622734264322421,-0.30306690070540376
63109.171919166874,6.184537106499192,PPG_2,PPG_3,92770.0,92770.0,-175.4761456153501,-12.108202881576092,-0.2906979357082217
63109.18200813443,6.1946260740514845,PPG_2,PPG_3,92706.0,92706.0,-239.51460499491077,-11.960098146871504,-0.2871376042281472
63109.19209710197,6.204715041596501,PPG_2,PPG_3,92755.0,92755.0,-190.55306437448598,-12.232361410839315,-0.29368261760335024
63109.20218606952,6.214804009141517,PPG_2,PPG_3,92732.0,92732.0,-213.59152375404665,-12.944601133697773,-0.31080434913820243
63109.21227503707,6.224892976693809,PPG_2,PPG_3,92775.0,92775.0,-170.62998313362186,-14.076483169265494,-0.33801398055883564
63109.222364004614,6.234981944238825,PPG_2,PPG_3,92744.0,92744.0,-201.66844251319708,-15.563956610933786,-0.3737717740602357
63109.23245297216,6.245070911783841,PPG_2,PPG_3,92736.0,92736.0,-209.70690189275774,-17.30118710352855,-0.4155335477352455
63109.24254193971,6.255159879336134,PPG_2,PPG_3,92728.0,92728.0,-217.74536127233296,-19.150962587748296,-0.46000082219931765
63109.25263090726,6.26524884688115,PPG_2,PPG_3,92696.0,92696.0,-249.78382065189362,-20.961780090691473,-0.5035315747661272
63109.2627198748,6.275337814426166,PPG_2,PPG_3,92730.0,92730.0,-215.82228003146884,-22.586041850363625,-0.5425776612155344
63109.272808842354,6.285426781978458,PPG_2,PPG_3,92727.0,92727.0,-218.8607394110295,-23.893497460335954,-0.5740079552994428
63109.2828978099,6.295515749523474,PPG_2,PPG_3,92748.0,92748.0,-197.89919879060471,-24.777625322262214,-0.5952617542782911
63109.29298677744,6.305604717068491,PPG_2,PPG_3,92717.0,92717.0,-228.93765817016538,-25.15751071096148,-0.6043939262571549
63109.30307574499,6.315693684620783,PPG_2,PPG_3,92726.0,92726.0,-219.9761175497406,-24.9795499790442,-0.6001158780413032
63109.31316471254,6.325782652165799,PPG_2,PPG_3,92731.0,92731.0,-215.01457692930126,-24.220892871631786,-0.5818783059104038
63109.323253680086,6.335871619710815,PPG_2,PPG_3,92718.0,92718.0,-228.05303630887647,-22.893683830121155,-0.5499731535156819
63109.33334264763,6.345960587255831,PPG_2,PPG_3,92694.0,92694.0,-252.09149568843713,-21.048317982565983,-0.5056118835508169
63109.34343161518,6.3560495548081235,PPG_2,PPG_3,92725.0,92725.0,-221.12995506801235,-18.773199455704713,-0.4509196677466327
63109.35352058273,6.36613852235314,PPG_2,PPG_3,92731.0,92731.0,-215.168414447573,-16.187539435164723,-0.3887622574095459
63109.36360955027,6.376227489898156,PPG_2,PPG_3,92765.0,92765.0,-181.20687382714823,-13.425833586865865,-0.3223728317776351
63109.373698517826,6.386316457450448,PPG_2,PPG_3,92756.0,92756.0,-190.2453332067089,-10.617915855360161,-0.25487250565450753
63109.38378748537,6.396405424995464,PPG_2,PPG_3,92718.0,92718.0,-228.2837925862841,-7.871843737424225,-0.18885890367518374
63109.39387645291,6.4064943925404805,PPG_2,PPG_3,92741.0,92741.0,-205.32225196584477,-5.264376396646426,-0.1261772610176812
63109.40396542047,6.416583360092773,PPG_2,PPG_3,92758.0,92758.0,-188.36071134542,-2.8379922579132755,-0.0678487285158952
63109.41405438801,6.426672327637789,PPG_2,PPG_3,92748.0,92748.0,-198.39917072498065,-0.6010436892270505,-0.014074091099429671
63109.42414335556,6.436761295182805,PPG_2,PPG_3,92765.0,92765.0,-181.43763010455586,1.4695403151684858,0.03570126164464206
63109.43423232311,6.446850262735097,PPG_2,PPG_3,92749.0,92749.0,-197.47608948411653,3.4209661438070924,0.08261213740152064
63109.444321290655,6.456939230280113,PPG_2,PPG_3,92737.0,92737.0,-209.51454886369174,5.31152798730156,0.12805988665711832
63109.4544102582,6.46702819782513,PPG_2,PPG_3,92721.0,92721.0,-225.5530082432524,7.193624386407703,0.1733041327079826
63109.46449922575,6.477117165377422,PPG_2,PPG_3,92728.0,92728.0,-218.59146762282762,9.098019867059078,0.21908443266799832
63109.4745881933,6.487206132922438,PPG_2,PPG_3,92748.0,92748.0,-198.62992700238829,11.026091718095282,0.26543389557194796
63109.48467716084,6.497295100467454,PPG_2,PPG_3,92796.0,92796.0,-150.6683863819635,12.954060925152724,0.31178089098834866
63109.49476612839,6.50738406801247,PPG_2,PPG_3,92763.0,92763.0,-183.70684576152416,14.846626167794108,0.35727680052095667
63109.50485509594,6.5174730355647625,PPG_2,PPG_3,92778.0,92778.0,-168.74530514109938,16.6719214769199,0.4011555891530358
63109.514944063485,6.527562003109779,PPG_2,PPG_3,92766.0,92766.0,-180.78376452066004,18.41022355821196,0.4429431230509061
63109.52503303103,6.537650970654795,PPG_2,PPG_3,92764.0,92764.0,-182.82222390023526,20.053849744819104,0.4824547164197766
63109.53512199858,6.547739938207087,PPG_2,PPG_3,92745.0,92745.0,-201.86068327979592,21.599997156548756,0.5196229900323431
63109.54521096613,6.557828905752103,PPG_2,PPG_3,92769.0,92769.0,-177.89914265937114,23.040282769752817,0.5542464220192875
63109.55529993367,6.5679178732971195,PPG_2,PPG_3,92769.0,92769.0,-177.9376020389318,24.351055866272322,0.5857564660977669
63109.565388901225,6.578006840849412,PPG_2,PPG_3,92754.0,92754.0,-192.97606141850702,25.486866742435417,0.6130605440253251
63109.57547786877,6.588095808394428,PPG_2,PPG_3,92767.0,92767.0,-180.01452079808223,26.377351530492977,0.634467158943967
63109.585566836315,6.598184775939444,PPG_2,PPG_3,92756.0,92756.0,-191.0529801776429,26.927612052284232,0.6476950267895377
63109.59565580387,6.608273743491736,PPG_2,PPG_3,92776.0,92776.0,-171.0914395572181,27.02287472813545,0.6499850731164544
63109.60574477141,6.618362711036752,PPG_2,PPG_3,92753.0,92753.0,-194.12989893677877,26.537700203249695,0.6383218259034171
63109.61583373896,6.628451678581769,PPG_2,PPG_3,92759.0,92759.0,-188.168358316354,25.349035243706783,0.6097471737617193
63109.62592270651,6.638540646134061,PPG_2,PPG_3,92784.0,92784.0,-163.20681769591465,23.352274610805587,0.5617464818616833
63109.636011674054,6.648629613679077,PPG_2,PPG_3,92769.0,92769.0,-178.24527707548987,20.479020258795238,0.49267551029465173
63109.6461006416,6.658718581224093,PPG_2,PPG_3,92768.0,92768.0,-179.28373645505053,16.713354206216774,0.402151602215787
63109.65618960915,6.668807548776385,PPG_2,PPG_3,92768.0,92768.0,-179.32219583462575,12.102414869966006,0.29130793132091837
63109.6662785767,6.678896516321402,PPG_2,PPG_3,92733.0,92733.0,-214.3606552141864,6.758660655953294,0.1628479169406991
63109.67636754424,6.688985483866418,PPG_2,PPG_3,92754.0,92754.0,-193.39911459376162,0.8539279470655672,0.020902382337699144
63109.68645651179,6.699074451411434,PPG_2,PPG_3,92733.0,92733.0,-214.4375739733223,-5.392693530405681,-0.1292619127789314
63109.69654547934,6.709163418963726,PPG_2,PPG_3,92700.0,92700.0,-247.4760333528975,-11.730660597176913,-0.2816220902743351
63109.70663444688,6.719252386508742,PPG_2,PPG_3,92761.0,92761.0,-186.51449273245817,-17.89513625397417,-0.42981165884433953
63109.71672341443,6.7293413540537586,PPG_2,PPG_3,92696.0,92696.0,-251.55295211203338,-23.62375719965066,-0.5675235931115836
63109.72681238198,6.739430321606051,PPG_2,PPG_3,92713.0,92713.0,-234.59141149159404,-28.67280669991261,-0.6888991177772369
63109.736901349526,6.749519289151067,PPG_2,PPG_3,92689.0,92689.0,-258.62987087116926,-32.83309471758027,-0.788909454550217
63109.74699031707,6.759608256696083,PPG_2,PPG_3,92714.0,92714.0,-233.66833025072992,-35.943927654225746,-0.8636916447056017
63109.75707928462,6.769697224248375,PPG_2,PPG_3,92699.0,92699.0,-248.70678963030514,-37.90273601675809,-0.9107799912764757
63109.76716825217,6.7797861917933915,PPG_2,PPG_3,92717.0,92717.0,-230.7452490098658,-38.670070341146264,-0.9292261574730533
63109.777257219714,6.789875159338408,PPG_2,PPG_3,92697.0,92697.0,-250.78370838944102,-38.27186880788388,-0.9196536785302577
63109.787346187266,6.7999641268907,PPG_2,PPG_3,92690.0,92690.0,-257.8221677690017,-36.80081172369762,-0.8842905224754459
63109.79743515481,6.810053094435716,PPG_2,PPG_3,92671.0,92671.0,-276.8606271485769,-34.41623354904036,-0.8269669753325085
63109.80752412235,6.820142061980732,PPG_2,PPG_3,92706.0,92706.0,-241.89908652813756,-31.338991499869397,-0.7529922859930677
63109.81761308991,6.830231029533024,PPG_2,PPG_3,92732.0,92732.0,-215.93754590771277,-27.837184328252775,-0.668811355956461
63109.82770205745,6.840319997078041,PPG_2,PPG_3,92706.0,92706.0,-241.97600528727344,-24.202668767087005,-0.5814402115224264
63109.837791025,6.850408964623057,PPG_2,PPG_3,92742.0,92742.0,-206.01446466684865,-20.72331207449571,-0.49779897488168623
63109.84787999255,6.860497932175349,PPG_2,PPG_3,92725.0,92725.0,-223.05292404640932,-17.6568800205763,-0.4240841500662956
63109.857968960096,6.870586899720365,PPG_2,PPG_3,92736.0,92736.0,-212.09138342598453,-15.210332266734467,-0.36527089873518426
63109.86805792764,6.880675867265381,PPG_2,PPG_3,92707.0,92707.0,-241.1298428055452,-13.526267034890374,-0.32478717975487775
63109.878146895186,6.890764834810398,PPG_2,PPG_3,92746.0,92746.0,-202.1683021851204,-12.676319580571016,-0.3043550532326687
63109.88823586274,6.90085380236269,PPG_2,PPG_3,92731.0,92731.0,-217.20676156468107,-12.659889336608344,-0.30396008196505675
63109.89832483028,6.910942769907706,PPG_2,PPG_3,92713.0,92713.0,-235.2452209442563,-13.407236168954443,-0.32192576320437033
63109.90841379783,6.921031737452722,PPG_2,PPG_3,92764.0,92764.0,-184.2836803238315,-14.787267817184023,-0.3551007331369055
63109.91850276538,6.931120705005014,PPG_2,PPG_3,92694.0,92694.0,-254.32213970339217,-16.62037137943545,-0.39916722656763964
63109.928591732925,6.9412096725500305,PPG_2,PPG_3,92722.0,92722.0,-226.36059908296738,-18.695982208835403,-0.44906342057545456
63109.93868070047,6.951298640095047,PPG_2,PPG_3,92702.0,92702.0,-246.39905846252805,-20.792971737087182,-0.49947354315332504
63109.94876966802,6.961387607647339,PPG_2,PPG_3,92735.0,92735.0,-213.43751784210326,-22.699095276430125,-0.5452953844035047
63109.95885863557,6.971476575192355,PPG_2,PPG_3,92725.0,92725.0,-223.47597722166392,-24.22691176995418,-0.5820229959043822
63109.96894760311,6.981565542737371,PPG_2,PPG_3,92727.0,92727.0,-221.51443660123914,-25.227325826882932,-0.6060722315152278
63109.979036570665,6.9916545102896634,PPG_2,PPG_3,92672.0,92672.0,-276.5528959807998,-25.603465162303298,-0.6151143510630097
63109.98912553821,7.00174347783468,PPG_2,PPG_3,92697.0,92697.0,-251.59135536037502,-25.32438063240466,-0.608405359352638
63109.999214505755,7.011832445379696,PPG_2,PPG_3,92689.0,92689.0,-259.6298147399357,-24.432958344422563,-0.5869762076089542
63110.00930347331,7.021921412931988,PPG_2,PPG_3,92723.0,92723.0,-225.6682741195109,-23.04130863597785,-0.5535219478508517
63110.01939244085,7.032010380477004,PPG_2,PPG_3,92719.0,92719.0,-229.70673349907156,-21.31153919452186,-0.5119395324880309
63110.0294814084,7.04209934802202,PPG_2,PPG_3,92741.0,92741.0,-207.74519287864678,-19.42588887722539,-0.4666098527956571
63110.03957037594,7.052188315567037,PPG_2,PPG_3,92758.0,92758.0,-190.78365225820744,-17.553574963882426,-0.4216007706785151
63110.049659343495,7.062277283119329,PPG_2,PPG_3,92731.0,92731.0,-217.82211163778265,-15.822294346457207,-0.3799820277304493
63110.05974831104,7.072366250664345,PPG_2,PPG_3,92737.0,92737.0,-211.86057101734332,-14.300764070354802,-0.34340553238275573
63110.069837278585,7.082455218209361,PPG_2,PPG_3,92731.0,92731.0,-217.89903039691853,-12.994825066673307,-0.31201169642512483
63110.07992624614,7.092544185761653,PPG_2,PPG_3,92715.0,92715.0,-233.9374897764792,-11.855233757711503,-0.2846167396075136
63110.09001521368,7.1026331533066696,PPG_2,PPG_3,92726.0,92726.0,-222.9759491560544,-10.79283782580224,-0.25907750422638837
63110.10010418123,7.112722120851686,PPG_2,PPG_3,92704.0,92704.0,-245.01440853561508,-9.696255530080506,-0.2327164532057187
63110.11019314878,7.122811088403978,PPG_2,PPG_3,92753.0,92753.0,-196.0528679151903,-8.447616259185127,-0.20270006168188778
63110.12028211632,7.132900055948994,PPG_2,PPG_3,92715.0,92715.0,-234.09132729475095,-6.933813734482696,-0.16630933592916627
63110.13037108387,7.14298902349401,PPG_2,PPG_3,92742.0,92742.0,-207.12978667432617,-5.053448010465156,-0.12110669406477197
63110.14046005142,7.1530779910463025,PPG_2,PPG_3,92743.0,92743.0,-206.16824605388683,-2.720998769330701,-0.06503628905408396
63110.15054901897,7.163166958591319,PPG_2,PPG_3,92727.0,92727.0,-222.20670543346205,0.13060190682366407,0.0035141436931511705
63110.16063798651,7.173255926136335,PPG_2,PPG_3,92780.0,92780.0,-169.2451648130227,3.5482543993174693,0.08567205566842338
63110.170726954064,7.183344893688627,PPG_2,PPG_3,92758.0,92758.0,-191.28362419259793,7.556531472466142,0.18202815848212903
63110.18081592161,7.193433861233643,PPG_2,PPG_3,92744.0,92744.0,-205.3220835721586,12.152643533348432,0.2925153923234259
63110.190904889154,7.2035228287786595,PPG_2,PPG_3,92750.0,92750.0,-199.3605429517338,17.29680433491589,0.41617732438060717
63110.200993856706,7.213611796330952,PPG_2,PPG_3,92736.0,92736.0,-213.39900233129447,22.900169383724435,0.5508781968234375
63110.21108282425,7.223700763875968,PPG_2,PPG_3,92746.0,92746.0,-203.43746171086968,28.816214604831544,0.6930956760975766
63110.22117179179,7.233789731420984,PPG_2,PPG_3,92788.0,92788.0,-161.47592109043035,34.841430157825066,0.8379375317637375
63110.23126075934,7.243878698966,PPG_2,PPG_3,92766.0,92766.0,-183.51438047000556,40.72778222740905,0.9794412089955499
63110.24134972689,7.253967666518292,PPG_2,PPG_3,92815.0,92815.0,-134.55283984956623,46.204744363524306,1.111103446177106
63110.25143869444,7.264056634063309,PPG_2,PPG_3,92785.0,92785.0,-164.59129922914144,51.00570574722185,1.2265151106528849
63110.26152766198,7.274145601608325,PPG_2,PPG_3,92811.0,92811.0,-138.62975860871666,54.89349571445076,1.3199747899524816
63110.271616629536,7.284234569160617,PPG_2,PPG_3,92823.0,92823.0,-126.66821798827732,57.68122337873707,1.3869897613565356
63110.28170559708,7.294323536705633,PPG_2,PPG_3,92786.0,92786.0,-163.70667736785254,59.245910551603885,1.4246037175149124
63110.291794564626,7.304412504250649,PPG_2,PPG_3,92813.0,92813.0,-136.7451367474132,59.53352683114756,1.4315178063607805
63110.30188353218,7.314501471802941,PPG_2,PPG_3,92812.0,92812.0,-137.7835961269884,58.555826525515606,1.4080145930221726
63110.31197249972,7.324590439347958,PPG_2,PPG_3,92782.0,92782.0,-167.82205550654908,56.3806249446812,1.3557243088580668
63110.32206146727,7.334679406892974,PPG_2,PPG_3,92790.0,92790.0,-159.8605148861243,53.11711529633225,1.2772718801783272
63110.33215043482,7.344768374445266,PPG_2,PPG_3,92774.0,92774.0,-175.89897426568496,48.89858811372524,1.175861515697115
63110.342239402366,7.354857341990282,PPG_2,PPG_3,92773.0,92773.0,-176.93743364526017,43.86633121197786,1.0548896730423232
63110.35232836991,7.364946309535299,PPG_2,PPG_3,92764.0,92764.0,-185.97589302482083,38.15828920465586,0.9176724416770231
63110.36241733746,7.375035277087591,PPG_2,PPG_3,92795.0,92795.0,-155.01435240439605,31.904315368629867,0.7673314011398802
63110.37250630501,7.385124244632607,PPG_2,PPG_3,92765.0,92765.0,-185.0528117839567,25.227265133722057,0.606819907751112
63110.38259527255,7.395213212177623,PPG_2,PPG_3,92765.0,92765.0,-185.09127116353193,18.24650343082371,0.43900740874288724
63110.392684240105,7.405302179729915,PPG_2,PPG_3,92739.0,92739.0,-211.1297305430926,11.080085405800409,0.26673186505580887
63110.40277320765,7.415391147274931,PPG_2,PPG_3,92753.0,92753.0,-197.1681899226678,3.844512967206452,0.09279389892077312
63110.412862175195,7.425480114819948,PPG_2,PPG_3,92718.0,92718.0,-232.20664930222847,-3.3465827217537925,-0.08007487808828266
63110.42295114274,7.435569082364964,PPG_2,PPG_3,92735.0,92735.0,-215.24510868180369,-10.383191955581994,-0.24922991164039357
63110.43304011029,7.445658049917256,PPG_2,PPG_3,92731.0,92731.0,-219.28356806136435,-17.15829173200529,-0.412098445605621
63110.44312907784,7.455747017462272,PPG_2,PPG_3,92738.0,92738.0,-212.32202744093956,-23.566464621428505,-0.5661463206683641
63110.45321804538,7.465835985007288,PPG_2,PPG_3,92699.0,92699.0,-251.36048682050023,-29.504340021216738,-0.7088885817634833
63110.463307012935,7.475924952559581,PPG_2,PPG_3,92680.0,92680.0,-270.39894620007544,-34.87531073455305,-0.8380028612454398
63110.47339598048,7.486013920104597,PPG_2,PPG_3,92695.0,92695.0,-255.4374055796361,-39.59729635867334,-0.9515160051671894
63110.483484948025,7.496102887649613,PPG_2,PPG_3,92691.0,92691.0,-259.4758649592113,-43.60886662196528,-1.0479512739073613
63110.49357391558,7.506191855201905,PPG_2,PPG_3,92705.0,92705.0,-245.51432433877198,-46.87030090082235,-1.126353812194674
63110.50366288312,7.516280822746921,PPG_2,PPG_3,92692.0,92692.0,-258.5527837183472,-49.36057824395058,-1.1862182914534922
63110.51375185067,7.5263697902919375,PPG_2,PPG_3,92682.0,92682.0,-268.59124309790786,-51.073896359692135,-1.2274052287585258
63110.52384081822,7.53645875784423,PPG_2,PPG_3,92670.0,92670.0,-280.6297024774831,-52.01813390239442,-1.2501040213032513
63110.53392978576,7.546547725389246,PPG_2,PPG_3,92696.0,92696.0,-254.66816185704374,-52.21467480119057,-1.254828723389932
63110.54401875331,7.556636692934262,PPG_2,PPG_3,92686.0,92686.0,-264.70662123661896,-51.69767387461892,-1.2424003923323723
63110.55410772086,7.566725660486554,PPG_2,PPG_3,92658.0,92658.0,-292.7450806161796,-50.51217626873639,-1.2139018810984454
63110.56419668841,7.576814628031571,PPG_2,PPG_3,92712.0,92712.0,-238.78353999575484,-48.711516146120246,-1.170615304661491
63110.57428565595,7.586903595576587,PPG_2,PPG_3,92670.0,92670.0,-280.8219993753155,-46.35377902569454,-1.1139369971898552
63110.5843746235,7.596992563121603,PPG_2,PPG_3,92694.0,92694.0,-256.8604587548907,-43.49720445580957,-1.0452669956086937
63110.59446359105,7.607081530673895,PPG_2,PPG_3,92711.0,92711.0,-239.89891813445138,-40.19537162346477,-0.9658933051025225
63110.604552558594,7.617170498218911,PPG_2,PPG_3,92700.0,92700.0,-250.9373775140266,-36.493479858224276,-0.8769024851000219
63110.61464152614,7.627259465763927,PPG_2,PPG_3,92688.0,92688.0,-262.9758368936018,-32.427410488358,-0.7791570969692743
63110.62473049369,7.63734843331622,PPG_2,PPG_3,92709.0,92709.0,-242.01429627316247,-28.026536288298548,-0.6733632411173874
63110.63481946124,7.647437400861236,PPG_2,PPG_3,92711.0,92711.0,-240.0527556527377,-23.31905363111161,-0.5601987381072893
63110.64490842878,7.657526368406252,PPG_2,PPG_3,92703.0,92703.0,-248.09121503229835,-18.3378803762614,-0.4404549096448038
63110.654997396334,7.667615335958544,PPG_2,PPG_3,92720.0,92720.0,-231.12967441187357,-13.126269542879111,-0.3151715272532943
63110.66508636388,7.67770430350356,PPG_2,PPG_3,92719.0,92719.0,-232.16813379143423,-7.742693477692471,-0.18575422416375614
63110.675175331424,7.687793271048577,PPG_2,PPG_3,92715.0,92715.0,-236.20659317100944,-2.2642339214822007,-0.054055990078294
63110.685264298976,7.697882238600869,PPG_2,PPG_3,92729.0,92729.0,-222.2450525505701,3.2123394153799056,0.07759690064838229
63110.69535326652,7.707971206145885,PPG_2,PPG_3,92753.0,92753.0,-198.28351193014532,8.572506352036973,0.20645146509630183
63110.705442234066,7.718060173690901,PPG_2,PPG_3,92730.0,92730.0,-221.321971309706,13.688721179410384,0.3294415959996383
63110.71553120162,7.728149141243193,PPG_2,PPG_3,92726.0,92726.0,-225.3604306892812,18.426493958583816,0.4433342517933658
63110.72562016916,7.7382381087882095,PPG_2,PPG_3,92750.0,92750.0,-201.39889006884187,22.65138855022741,0.5448976842158877
63110.73570913671,7.748327076333226,PPG_2,PPG_3,92772.0,92772.0,-179.43734944841708,26.23836044348817,0.6311259130108101
63110.74579810426,7.758416043885518,PPG_2,PPG_3,92726.0,92726.0,-225.47580882797774,29.08368514123549,0.6995254757434206
63110.755887071806,7.768505011430534,PPG_2,PPG_3,92743.0,92743.0,-208.51426820755296,31.117535995398406,0.7484177899310521
63110.76597603935,7.77859397897555,PPG_2,PPG_3,92782.0,92782.0,-169.55272758711362,32.316368576460356,0.7772368643935077
63110.776065006896,7.7886829465205665,PPG_2,PPG_3,92754.0,92754.0,-197.59118696668884,32.71552296975762,0.7868322494073687
63110.78615397445,7.798771914072859,PPG_2,PPG_3,92793.0,92793.0,-158.6296463462495,32.419739144060955,0.7797218186164476
63110.79624294199,7.808860881617875,PPG_2,PPG_3,92748.0,92748.0,-203.66810572582472,31.606352556997226,0.7601685890916148
63110.80633190954,7.818949849162891,PPG_2,PPG_3,92769.0,92769.0,-182.70656510538538,30.517025746652187,0.7339819547298142
63110.81642087709,7.829038816715183,PPG_2,PPG_3,92726.0,92726.0,-225.7450244849606,29.43758852705283,0.7080330590286117
63110.826509844635,7.839127784260199,PPG_2,PPG_3,92750.0,92750.0,-201.78348386452126,28.669267211448865,0.6895631662718862
63110.83659881218,7.849216751805216,PPG_2,PPG_3,92743.0,92743.0,-208.82194324409647,28.496597170382906,0.685412302465276
63110.84668777973,7.859305719357508,PPG_2,PPG_3,92730.0,92730.0,-221.86040262365714,29.156737707840637,0.7012816069913738
63110.85677674728,7.869394686902524,PPG_2,PPG_3,92739.0,92739.0,-212.89886200323235,30.813132389548958,0.7411001458144364
63110.86686571482,7.87948365444754,PPG_2,PPG_3,92729.0,92729.0,-222.93732138279302,33.535771012999504,0.8065504234120588
63110.876954682375,7.889572621999832,PPG_2,PPG_3,92738.0,92738.0,-213.97578076236823,37.290538239763606,0.8968123315439258
63110.88704364992,7.899661589544848,PPG_2,PPG_3,92761.0,92761.0,-191.0142401419289,41.93956853541557,1.0085716817527124
63110.897132617465,7.909750557089865,PPG_2,PPG_3,92773.0,92773.0,-179.0526995215041,47.25243053450244,1.1362890694673555
63110.90722158502,7.919839524642157,PPG_2,PPG_3,92733.0,92733.0,-219.09115890106477,52.92522766873224,1.2726590393900579
63110.91731055256,7.929928492187173,PPG_2,PPG_3,92763.0,92763.0,-189.12961828064,58.60422092425084,1.4091779596196012
63110.92739952011,7.940017459732189,PPG_2,PPG_3,92776.0,92776.0,-176.16807766020065,63.91329755544111,1.5368043498079815
63110.93748848766,7.9501064272844815,PPG_2,PPG_3,92804.0,92804.0,-148.20653703977587,68.48583549233197,1.6467248786352269
63110.947577455205,7.960195394829498,PPG_2,PPG_3,92793.0,92793.0,-159.24499641935108,71.99807194805756,1.7311565211733742
63110.95766642275,7.970284362374514,PPG_2,PPG_3,92789.0,92789.0,-163.28345579891175,74.19739493893249,1.7840266667151894
63110.967755390295,7.98037332991953,PPG_2,PPG_3,92798.0,92798.0,-154.32191517848696,74.91985177208157,1.8013940102453343
63110.97784435785,7.990462297471822,PPG_2,PPG_3,92781.0,92781.0,-171.36037455804762,74.09492737339257,1.781563420013414
63110.98793332539,8.000551265016838,PPG_2,PPG_3,92748.0,92748.0,-204.39883393762284,71.73865519604009,1.7249203287213994
63110.99802229294,8.010640232561855,PPG_2,PPG_3,92760.0,92760.0,-192.4372933171835,67.93850122461075,1.6335673558363895
63111.00811126049,8.020729200114147,PPG_2,PPG_3,92764.0,92764.0,-188.47575269675872,62.835644466751525,1.5108983433328076
63111.018200228034,8.030818167659163,PPG_2,PPG_3,92727.0,92727.0,-225.51421207631938,56.60985642277707,1.3612348689986091
63111.02828919558,8.04090713520418,PPG_2,PPG_3,92778.0,92778.0,-174.5526714558946,49.469075449346306,1.1895756216238889
63111.03837816313,8.050996102756471,PPG_2,PPG_3,92750.0,92750.0,-202.59113083545526,41.64273746008235,1.0014360758324754
63111.04846713068,8.061085070301488,PPG_2,PPG_3,92721.0,92721.0,-231.62959021503048,33.375652677501364,0.8027012935949182
63111.05855609822,8.071174037846504,PPG_2,PPG_3,92725.0,92725.0,-227.66804959459114,24.9187963035887,0.5994045385616251
63111.068645065774,8.081263005398796,PPG_2,PPG_3,92699.0,92699.0,-253.70650897416635,16.516336627881344,0.3974154410952477
63111.07873403332,8.091351972943812,PPG_2,PPG_3,92707.0,92707.0,-245.74496835372702,8.391434579405024,0.20209862969546005
63111.088823000864,8.101440940488828,PPG_2,PPG_3,92670.0,92670.0,-282.78342773330223,0.7336015400039271,0.018009821908754678
63111.098911968416,8.11152990804112,PPG_2,PPG_3,92692.0,92692.0,-260.8218871128629,-6.3106012560696145,-0.15132775542740146
63111.10900093596,8.121618875586137,PPG_2,PPG_3,92662.0,92662.0,-290.8603464924381,-12.642231596017368,-0.303535602559868
63111.11908990351,8.131707843131153,PPG_2,PPG_3,92669.0,92669.0,-283.8988058719988,-18.209337268668545,-0.43736482563484774
63111.12917887105,8.14179681067617,PPG_2,PPG_3,92673.0,92673.0,-279.937265251574,-23.00133643995993,-0.5525610449594338
63111.13926783861,8.151885778228461,PPG_2,PPG_3,92646.0,92646.0,-306.97572463113465,-27.03958947518517,-0.6496377483781074
63111.14935680615,8.161974745773477,PPG_2,PPG_3,92677.0,92677.0,-276.01418401070987,-30.365958104827737,-0.7296012618341133
63111.159445773694,8.172063713318494,PPG_2,PPG_3,92662.0,92662.0,-291.05264339027053,-33.03150784787917,-0.7936791637379232
63111.169534741246,8.182152680870786,PPG_2,PPG_3,92673.0,92673.0,-280.09110276984575,-35.088166141626516,-0.8431197523969571
63111.17962370879,8.192241648415802,PPG_2,PPG_3,92620.0,92620.0,-333.1295621494064,-36.586590599842125,-0.8791408004731012
63111.189712676336,8.202330615960818,PPG_2,PPG_3,92625.0,92625.0,-328.1680215289816,-37.58123104903246,-0.9030512426994836
63111.19980164389,8.21241958351311,PPG_2,PPG_3,92638.0,92638.0,-315.2064809085423,-38.13879551288951,-0.9164546920679363
63111.20989061143,8.222508551058127,PPG_2,PPG_3,92617.0,92617.0,-336.2449402881175,-38.34385116082184,-0.9213840826100871
63111.21997957898,8.232597518603143,PPG_2,PPG_3,92635.0,92635.0,-318.28339966767817,-38.297499999464925,-0.9202698339721471
63111.23006854653,8.242686486155435,PPG_2,PPG_3,92667.0,92667.0,-286.3218590472534,-38.108824962361716,-0.9157342215527154
63111.24015751408,8.252775453700451,PPG_2,PPG_3,92644.0,92644.0,-309.36031842681405,-37.88199194053802,-0.9102813185788154
63111.25024648162,8.262864421245467,PPG_2,PPG_3,92612.0,92612.0,-341.39877780638926,-37.70417447581805,-0.9060067144035181
63111.26033544917,8.27295338879776,PPG_2,PPG_3,92658.0,92658.0,-295.4372371859499,-37.63818554920789,-0.9044203879892067
63111.27042441672,8.283042356342776,PPG_2,PPG_3,92626.0,92626.0,-327.47569656552514,-37.71959572990609,-0.9063774302790193
63111.28051338426,8.293131323887792,PPG_2,PPG_3,92628.0,92628.0,-325.5141559450858,-37.956614970067236,-0.9120752026278388
63111.290602351815,8.303220291440084,PPG_2,PPG_3,92642.0,92642.0,-311.552615324661,-38.33229451806353,-0.9211062692160827
63111.30069131936,8.3133092589851,PPG_2,PPG_3,92625.0,92625.0,-328.59107470423623,-38.809027326248206,-0.9325665836209511
63111.310780286905,8.323398226530117,PPG_2,PPG_3,92602.0,92602.0,-351.6295340837969,-39.33491716199644,-0.9452085976726977
63111.32086925445,8.333487194075133,PPG_2,PPG_3,92632.0,92632.0,-321.6679934633721,-39.85079541797036,-0.9576099405351887
63111.330958222,8.343576161627425,PPG_2,PPG_3,92620.0,92620.0,-333.7064528429328,-40.29556882249373,-0.9683019738235437
63111.34104718955,8.353665129172441,PPG_2,PPG_3,92624.0,92624.0,-329.744912222508,-40.608413754466675,-0.9758225413591237
63111.35113615709,8.363754096717457,PPG_2,PPG_3,92629.0,92629.0,-324.78337160206866,-40.72882191935537,-0.9787170671875268
63111.361225124645,8.37384306426975,PPG_2,PPG_3,92631.0,92631.0,-322.82183098164387,-40.59673689143795,-0.9755418379561392
63111.37131409219,8.383932031814766,PPG_2,PPG_3,92618.0,92618.0,-335.86029036120453,-40.15479770557293,-0.9649179372493042
63111.381403059735,8.394020999359782,PPG_2,PPG_3,92590.0,92590.0,-363.89874974077975,-39.35368688230057,-0.9456598082717667
63111.39149202729,8.404109966912074,PPG_2,PPG_3,92653.0,92653.0,-300.9372091203404,-38.15936075801552,-0.9169490657944996
63111.40158099483,8.41419893445709,PPG_2,PPG_3,92580.0,92580.0,-373.9756684999156,-36.55943251628071,-0.8784879396443432
63111.41166996238,8.424287902002106,PPG_2,PPG_3,92624.0,92624.0,-330.0141278794763,-34.56689891847493,-0.8305888626329034
63111.42175892993,8.434376869554399,PPG_2,PPG_3,92615.0,92615.0,-339.0525872590515,-32.22029210407763,-0.7741781197264035
63111.431847897475,8.444465837099415,PPG_2,PPG_3,92633.0,92633.0,-321.09104663861217,-29.57933437969632,-0.7106913922938518
63111.44193686502,8.454554804644431,PPG_2,PPG_3,92617.0,92617.0,-337.1295060181874,-26.71663625706923,-0.6418741849016055
63111.45202583257,8.464643772196723,PPG_2,PPG_3,92627.0,92627.0,-327.16796539774805,-23.70772264271366,-0.5695420620739154
63111.46211480012,8.47473273974174,PPG_2,PPG_3,92627.0,92627.0,-327.20642477732326,-20.621127330644324,-0.4953425270102316
63111.47220376766,8.484821707286756,PPG_2,PPG_3,92634.0,92634.0,-320.2448841568839,-17.508941965332685,-0.42052782544078365
63111.48229273521,8.494910674831772,PPG_2,PPG_3,92667.0,92667.0,-287.28334353645914,-14.398423720642981,-0.3457532002540604
63111.49238170276,8.504999642384064,PPG_2,PPG_3,92645.0,92645.0,-309.3218029160198,-11.287091234464643,-0.2709590012865924
63111.502470670304,8.51508860992908,PPG_2,PPG_3,92618.0,92618.0,-336.360262295595,-8.144998058459544,-0.19542533742249243
63111.51255963785,8.525177577474096,PPG_2,PPG_3,92606.0,92606.0,-348.3987216751557,-4.925281096196226,-0.11802565347220853
63111.5226486054,8.535266545026388,PPG_2,PPG_3,92665.0,92665.0,-289.4371810547309,-1.5784112731731494,-0.03756930604761055
63111.53273757295,8.545355512571405,PPG_2,PPG_3,92627.0,92627.0,-327.47564043429156,1.9364798184222367,0.04692615203076388
63111.54282654049,8.555444480116421,PPG_2,PPG_3,92637.0,92637.0,-317.5140998138668,5.645728684949063,0.13609383146563891
63111.55291550805,8.565533447668713,PPG_2,PPG_3,92662.0,92662.0,-292.55255919342744,9.55943256121727,0.2301764625318247
63111.56300447559,8.57562241521373,PPG_2,PPG_3,92679.0,92679.0,-275.59101857300266,13.67237114737237,0.3290485529691013
63111.573093443134,8.585711382758745,PPG_2,PPG_3,92654.0,92654.0,-300.6294779525633,17.96528323314676,0.43224707711257787
63111.583182410686,8.595800350311038,PPG_2,PPG_3,92633.0,92633.0,-321.66793733213854,22.40310023163934,0.5389290113131133
63111.59327137823,8.605889317856054,PPG_2,PPG_3,92685.0,92685.0,-269.7063967116992,26.929482081362718,0.6477399809458655
63111.603360345776,8.61597828540107,PPG_2,PPG_3,92653.0,92653.0,-301.7448560912744,31.46092421896171,0.7566725962657573
63111.61344931333,8.626067252953362,PPG_2,PPG_3,92670.0,92670.0,-284.7833154708351,35.88333833265829,0.8629842561753827
63111.62353828087,8.636156220498378,PPG_2,PPG_3,92639.0,92639.0,-315.8217748504103,40.05178606069021,0.9631907465266807
63111.63362724842,8.646245188043395,PPG_2,PPG_3,92707.0,92707.0,-247.86023422997096,43.794395796873395,1.0531603973143089
63111.64371621597,8.656334155595687,PPG_2,PPG_3,92657.0,92657.0,-297.89869360954617,46.92193886428285,1.1283442870150446
63111.65380518352,8.666423123140703,PPG_2,PPG_3,92682.0,92682.0,-272.9371529891214,49.24237678860297,1.1841259485938866
63111.66389415106,8.67651209068572,PPG_2,PPG_3,92696.0,92696.0,-258.97561236868205,50.57796446950162,1.2162325174634625
63111.673983118606,8.686601058230735,PPG_2,PPG_3,92670.0,92670.0,-285.01407174825727,50.78284671196467,1.2211577394626405
63111.68407208616,8.696690025783028,PPG_2,PPG_3,92711.0,92711.0,-244.05253112781793,49.75915053575831,1.1965488184213982
63111.6941610537,8.706778993328044,PPG_2,PPG_3,92687.0,92687.0,-268.09099050739314,47.4688125123578,1.1414907368483198
63111.70425002125,8.71686796087306,PPG_2,PPG_3,92657.0,92657.0,-298.1294498869538,43.938187391516905,1.0566170440042377
63111.7143389888,8.726956928425352,PPG_2,PPG_3,92640.0,92640.0,-315.167909266529,39.254377380243334,0.9440216144044535
63111.724427956346,8.737045895970368,PPG_2,PPG_3,92683.0,92683.0,-272.2063686460897,33.55633702858484,0.8070448156599113
63111.73451692389,8.747134863515384,PPG_2,PPG_3,92657.0,92657.0,-298.2448280256649,27.025556687802947,0.6500495455011592
63111.74460589144,8.757223831067677,PPG_2,PPG_3,92643.0,92643.0,-312.28328740522556,19.877450271568463,0.4782141997412551
63111.75469485899,8.767312798612693,PPG_2,PPG_3,92632.0,92632.0,-323.3217467848008,12.351010279971739,0.2972839864808754
63111.76478382653,8.777401766157709,PPG_2,PPG_3,92629.0,92629.0,-326.36020616436144,4.695687133353059,0.11325551471450508
63111.774872794085,8.787490733710001,PPG_2,PPG_3,92618.0,92618.0,-337.39866554393666,-2.842780087125321,-0.06796382449239363
63111.78496176163,8.797579701255017,PPG_2,PPG_3,92603.0,92603.0,-352.4371249234973,-10.035596289271094,-0.2408739614030659
63111.795050729175,8.807668668800034,PPG_2,PPG_3,92617.0,92617.0,-338.47558430307254,-16.682150730733998,-0.4006523578140209
63111.80513969673,8.817757636352326,PPG_2,PPG_3,92609.0,92609.0,-346.5140436826332,-22.61895780187788,-0.5433689370556118
63111.81522866427,8.827846603897342,PPG_2,PPG_3,92565.0,92565.0,-390.5525030622084,-27.72693650312185,-0.6661610774005032
63111.82531763182,8.837935571442358,PPG_2,PPG_3,92579.0,92579.0,-376.5909624417691,-31.937349456428322,-0.7673763816355128
63111.83540659937,8.84802453899465,PPG_2,PPG_3,92595.0,92595.0,-360.6294218213443,-35.23436745023067,-0.846634326880276
63111.845495566915,8.858113506539667,PPG_2,PPG_3,92553.0,92553.0,-402.66788120090496,-37.65142182383917,-0.9047385785274272
63111.85558453446,8.868202474084683,PPG_2,PPG_3,92608.0,92608.0,-347.7063405804802,-39.26092161208345,-0.9434297977831053
63111.865673502005,8.878291441629699,PPG_2,PPG_3,92591.0,92591.0,-364.74479996004084,-40.15948796298372,-0.965030687669759
63111.87576246956,8.888380409181991,PPG_2,PPG_3,92568.0,92568.0,-387.78325933961605,-40.45234177839095,-0.9720706831171292
63111.8858514371,8.898469376727007,PPG_2,PPG_3,92608.0,92608.0,-347.8217187191767,-40.240816964781445,-0.9669857784770922
63111.89594040465,8.908558344272024,PPG_2,PPG_3,92561.0,92561.0,-394.86017809875193,-39.615234021102175,-0.9519472136923707
63111.9060293722,8.918647311824316,PPG_2,PPG_3,92580.0,92580.0,-375.8986374783126,-38.653066635088535,-0.9288174005884337
63111.916118339745,8.928736279369332,PPG_2,PPG_3,92582.0,92582.0,-373.9370968578878,-37.42094073282072,-0.8991979785894734
63111.92620730729,8.938825246914348,PPG_2,PPG_3,92600.0,92600.0,-355.9755562374485,-35.97855851331291,-0.8645241456923931
63111.93629627484,8.94891421446664,PPG_2,PPG_3,92551.0,92551.0,-405.0140156170237,-34.383751679435726,-0.8261861345098587
63111.94638524239,8.959003182011656,PPG_2,PPG_3,92587.0,92587.0,-369.05247499658435,-32.698647647576365,-0.7856774435230647
63111.95647420993,8.969092149556673,PPG_2,PPG_3,92573.0,92573.0,-383.09093437615957,-30.99524050137596,-0.7447287588095218
63111.96656317749,8.979181117108965,PPG_2,PPG_3,92580.0,92580.0,-376.12939375572023,-29.35736644914664,-0.7053554426209442
63111.97665214503,8.989270084653981,PPG_2,PPG_3,92567.0,92567.0,-389.16785313529545,-27.87736884920154,-0.6697773629867627
63111.986741112574,8.999359052198997,PPG_2,PPG_3,92597.0,92597.0,-359.20631251487066,-26.647137731701857,-0.6402034902531343
63111.99683008013,9.00944801975129,PPG_2,PPG_3,92617.0,92617.0,-339.2447718944313,-25.7440982031133,-0.6184950683866871
63112.00691904767,9.019536987296306,PPG_2,PPG_3,92602.0,92602.0,-354.28323127400654,-25.215294578353923,-0.6057830089392726
63112.01700801522,9.029625954841322,PPG_2,PPG_3,92597.0,92597.0,-359.3216906535672,-25.065480314228928,-0.6021815815994086
63112.02709698276,9.039714922386338,PPG_2,PPG_3,92594.0,92594.0,-362.3601500331424,-25.254054655086357,-0.6067147733533937
63112.037185950314,9.04980388993863,PPG_2,PPG_3,92560.0,92560.0,-396.3986094127031,-25.7011711745705,-0.6174631334430013
63112.04727491786,9.059892857483646,PPG_2,PPG_3,92590.0,92590.0,-366.4370687922783,-26.299226275278848,-0.6318399486482552
63112.05736388541,9.069981825028664,PPG_2,PPG_3,92614.0,92614.0,-342.47552817183896,-26.92479960640067,-0.6468782823539977
63112.06745285296,9.080070792580957,PPG_2,PPG_3,92576.0,92576.0,-380.5139875514142,-27.44885551085666,-0.659476210014279
63112.0775418205,9.090159760125973,PPG_2,PPG_3,92562.0,92562.0,-394.55244693097484,-27.746707453816462,-0.6666363568592554
63112.087630788046,9.100248727670987,PPG_2,PPG_3,92595.0,92595.0,-361.59090631055005,-27.708543893426747,-0.6657189322697024
63112.0977197556,9.11033769522328,PPG_2,PPG_3,92572.0,92572.0,-384.6293656901107,-27.247780058209315,-0.6546425005089179
63112.10780872314,9.120426662768296,PPG_2,PPG_3,92593.0,92593.0,-363.66782506968593,-26.304402733358668,-0.6319643869836915
63112.11789769069,9.130515630313312,PPG_2,PPG_3,92603.0,92603.0,-353.7062844492466,-24.843497538098504,-0.5968452750493994
63112.12798665824,9.140604597865604,PPG_2,PPG_3,92614.0,92614.0,-342.7447438288218,-22.851468309878616,-0.5489583227206568
63112.138075625786,9.15069356541062,PPG_2,PPG_3,92575.0,92575.0,-381.7832032083825,-20.33349937605728,-0.4884281575047039
63112.14816459333,9.160782532955636,PPG_2,PPG_3,92595.0,92595.0,-361.8216625879577,-17.314763851864328,-0.415859923016855
63112.15825356088,9.170871500507928,PPG_2,PPG_3,92596.0,92596.0,-360.86012196751835,-13.844248219774464,-0.3324312191225073
63112.16834252843,9.180960468052945,PPG_2,PPG_3,92597.0,92597.0,-359.89858134709357,-9.99751800623797,-0.2399585868199344
63112.17843149597,9.19104943559796,PPG_2,PPG_3,92600.0,92600.0,-356.93704072665423,-5.875751241272219,-0.14087427330286242
63112.188520463525,9.201138403150251,PPG_2,PPG_3,92615.0,92615.0,-341.97550010622945,-1.6003256638036438,-0.03809611226338767
63112.19860943107,9.21122737069527,PPG_2,PPG_3,92608.0,92608.0,-349.0139594857901,2.696858386528131,0.06520510684069059
63112.208698398616,9.221316338240284,PPG_2,PPG_3,92641.0,92641.0,-316.0524188653653,6.8864192893084,0.16591914275324826
63112.21878736616,9.231405305785302,PPG_2,PPG_3,92640.0,92640.0,-317.090878244926,10.855785381673774,0.26133985352780215
63112.22887633371,9.241494273337594,PPG_2,PPG_3,92634.0,92634.0,-323.1293376245012,14.521308918709725,0.349456407437396
63112.23896530126,9.25158324088261,PPG_2,PPG_3,92620.0,92620.0,-337.16779700406187,17.834872941189396,0.42911210733117544
63112.2490542688,9.261672208427626,PPG_2,PPG_3,92627.0,92627.0,-330.2062563836371,20.784498839486737,0.5000189960346165
63112.259143236355,9.271761175979918,PPG_2,PPG_3,92652.0,92652.0,-305.24471576319775,23.39185554657549,0.5626979791376716
63112.2692322039,9.281850143524936,PPG_2,PPG_3,92646.0,92646.0,-311.28317514277296,25.709595596600632,0.6184147857555914
63112.279321171445,9.29193911106995,PPG_2,PPG_3,92637.0,92637.0,-320.3216345223336,27.81844480576881,0.669110006547199
63112.289410139,9.302028078622245,PPG_2,PPG_3,92671.0,92671.0,-286.36009390190884,29.822176558245197,0.7172782791564164
63112.29949910654,9.31211704616726,PPG_2,PPG_3,92624.0,92624.0,-333.3985532814695,31.83942361169487,0.7657714498967695
63112.30958807409,9.322206013712275,PPG_2,PPG_3,92660.0,92660.0,-297.4370126610447,33.99268816392666,0.8175343836445029
63112.31967704164,9.332294981264567,PPG_2,PPG_3,92668.0,92668.0,-289.4754720406054,36.395870690870176,0.8753051660580972
63112.329766009185,9.342383948809584,PPG_2,PPG_3,92655.0,92655.0,-302.5139314201806,39.14145383076948,0.9413070133565166
63112.33985497673,9.3524729163546,PPG_2,PPG_3,92653.0,92653.0,-304.5523907997558,42.287137913967356,1.0169270000511863
63112.34994394428,9.362561883906892,PPG_2,PPG_3,92665.0,92665.0,-292.5908501793165,45.84185856033633,1.102379932027884
63112.36003291183,9.372650851451908,PPG_2,PPG_3,92658.0,92658.0,-299.6293095588917,49.75307331357086,1.1964027263635815
63112.37012187937,9.382739818996924,PPG_2,PPG_3,92666.0,92666.0,-291.66776893845235,53.89800536496274,1.296043916733189
63112.380210846924,9.392828786549217,PPG_2,PPG_3,92651.0,92651.0,-306.70622831802757,58.08094382814157,1.3965987539527749
63112.39029981447,9.402917754094233,PPG_2,PPG_3,92660.0,92660.0,-297.74468769758823,62.038728062383036,1.4917410451740405
63112.400388782014,9.413006721639247,PPG_2,PPG_3,92688.0,92688.0,-269.78314707716345,65.45688739270446,1.5739111411667688
63112.41047774956,9.423095689184263,PPG_2,PPG_3,92681.0,92681.0,-276.8216064567241,67.99744559975042,1.6349843362914822
63112.42056671711,9.433184656736556,PPG_2,PPG_3,92712.0,92712.0,-245.86006583629933,69.33582987129749,1.6671581331922367
63112.43065568466,9.443273624281574,PPG_2,PPG_3,92726.0,92726.0,-231.89852521586,69.20084783922934,1.6639132620611738
63112.4407446522,9.45336259182659,PPG_2,PPG_3,92693.0,92693.0,-264.9369845954352,67.40990475890138,1.6208602763437927
63112.450833619754,9.463451559378882,PPG_2,PPG_3,92707.0,92707.0,-250.97544397499587,63.89223459093765,1.536298011264957
63112.4609225873,9.473540526923898,PPG_2,PPG_3,92692.0,92692.0,-266.0139033545711,58.696367653065664,1.4113931008170766
63112.47101155485,9.483629494468914,PPG_2,PPG_3,92664.0,92664.0,-294.05236273413175,51.982232955003404,1.2499901235614772
63112.4811005224,9.493718462021208,PPG_2,PPG_3,92657.0,92657.0,-301.09082211370696,44.00096851986487,1.0581262572515906
63112.49118948994,9.503807429566224,PPG_2,PPG_3,92665.0,92665.0,-293.1292814932676,35.067221719790915,0.8433653987904444
63112.50127845749,9.51389639711124,PPG_2,PPG_3,92632.0,92632.0,-326.16774087284284,25.52909255391393,0.6140756222142736
63112.51136742504,9.523985364663533,PPG_2,PPG_3,92613.0,92613.0,-345.2062002524035,15.739458922439184,0.3787398588704746
63112.521456392584,9.534074332208547,PPG_2,PPG_3,92620.0,92620.0,-338.2446596319787,6.031758838094446,0.14537371916972114
63112.53154536013,9.544163299753563,PPG_2,PPG_3,92639.0,92639.0,-319.2831190115394,-3.2963863198711425,-0.07886819262906533
63112.54163432768,9.554252267305856,PPG_2,PPG_3,92599.0,92599.0,-359.3215783911146,-11.990482370690618,-0.28786801915226556
63112.551723295226,9.564341234850872,PPG_2,PPG_3,92640.0,92640.0,-318.36003777067526,-19.840206045350595,-0.47656974002919983
63112.56181226277,9.574430202395888,PPG_2,PPG_3,92608.0,92608.0,-350.3984971502505,-26.6788682355653,-0.6409662687828617
63112.57190123032,9.584519169940904,PPG_2,PPG_3,92581.0,92581.0,-377.43695652981114,-32.38526303250843,-0.7781439023933846
63112.58199019787,9.594608137493196,PPG_2,PPG_3,92574.0,92574.0,-384.47541590938636,-36.88935627828923,-0.8864190699910298
63112.59207916541,9.604697105038213,PPG_2,PPG_3,92576.0,92576.0,-382.513875288947,-40.17907418335835,-0.965501526344259
63112.60216813296,9.614786072583229,PPG_2,PPG_3,92582.0,92582.0,-376.55233466852224,-42.30287001566862,-1.0165560532242217
63112.61225710051,9.62487504013552,PPG_2,PPG_3,92581.0,92581.0,-377.5907940480829,-43.36465034333422,-1.0420804899213458
63112.622346068056,9.634964007680535,PPG_2,PPG_3,92593.0,92593.0,-365.6292534276581,-43.51147956802946,-1.0456101590566376
63112.6324350356,9.645052975225552,PPG_2,PPG_3,92577.0,92577.0,-381.6677128072188,-42.91672015050997,-1.031312569708876
63112.64252400315,9.655141942777846,PPG_2,PPG_3,92600.0,92600.0,-358.706172186794,-41.76144030021704,-1.0035404716223575
63112.6526129707,9.665230910322862,PPG_2,PPG_3,92604.0,92604.0,-354.74463156635466,-40.21634696549528,-0.9663975372642121
63112.66270193824,9.675319877867878,PPG_2,PPG_3,92620.0,92620.0,-338.78309094592987,-38.42675674591689,-0.923377073347869
63112.672790905795,9.68540884542017,PPG_2,PPG_3,92580.0,92580.0,-378.82155032549053,-36.50405754804156,-0.877156765168232
63112.68287987334,9.695497812965186,PPG_2,PPG_3,92593.0,92593.0,-365.86000970506575,-34.52606882343359,-0.8296073364649518
63112.692968840885,9.705586780510204,PPG_2,PPG_3,92586.0,92586.0,-372.89846908464096,-32.544729374801605,-0.7819773587620223
63112.70305780844,9.715675748062496,PPG_2,PPG_3,92610.0,92610.0,-348.9369284642016,-30.5963497315587,-0.735139711114833
63112.71314677598,9.72576471560751,PPG_2,PPG_3,92574.0,92574.0,-384.97538784377684,-28.710374714873623,-0.6898022258822978
63112.72323574353,9.735853683152529,PPG_2,PPG_3,92607.0,92607.0,-352.0138472233375,-26.9148534757026,-0.6466391845135411
63112.73332471108,9.74594265070482,PPG_2,PPG_3,92632.0,92632.0,-327.0523066029127,-25.237808494345014,-0.606324227314247
63112.743413678625,9.756031618249835,PPG_2,PPG_3,92603.0,92603.0,-356.0907659824734,-23.70512556977856,-0.569479630305307
63112.75350264617,9.766120585794852,PPG_2,PPG_3,92610.0,92610.0,-349.1292253620486,-22.337932178419038,-0.5366132828497975
63112.763591613715,9.776209553339868,PPG_2,PPG_3,92605.0,92605.0,-354.16768474160926,-21.152001638146466,-0.5081043641839897
63112.77368058127,9.78629852089216,PPG_2,PPG_3,92621.0,92621.0,-338.2061441211845,-20.158549449357963,-0.4842224868844722
63112.78376954881,9.796387488437176,PPG_2,PPG_3,92588.0,92588.0,-371.24460350074514,-19.364290359576994,-0.46512906866038317
63112.79385851636,9.806476455982192,PPG_2,PPG_3,92639.0,92639.0,-320.28306288032036,-18.769412513514006,-0.45082863237546994
63112.80394748391,9.816565423534485,PPG_2,PPG_3,92611.0,92611.0,-348.321522259881,-18.36316705407528,-0.44106278322309844
63112.814036451455,9.8266543910795,PPG_2,PPG_3,92624.0,92624.0,-335.35998163945624,-18.118136048859707,-0.43517241379498145
63112.824125419,9.836743358624515,PPG_2,PPG_3,92634.0,92634.0,-325.3984410190169,-17.985467990247702,-0.43198316892432403
