timestamp,time_from_start_sec,PPG_1,PPG_2,PPG_3
62847.424696724425,0.0,171730.0,151647.0,18853.0
62847.43479652617,0.010099801744217984,171748.0,151620.0,18834.0
62847.444896327914,0.02019960348843597,171739.0,151631.0,18841.0
62847.45499612965,0.030299405225377996,171773.0,151648.0,18842.0
62847.465095931395,0.04039920696959598,171759.0,151598.0,18818.0
62847.47519573314,0.050499008713813964,171731.0,151600.0,18825.0
62847.48529553488,0.06059881045803195,171740.0,151640.0,18846.0
62847.49539533662,0.07069861219497398,171724.0,151664.0,18836.0
62847.505495138364,0.08079841393919196,171737.0,151641.0,18839.0
62847.51559494011,0.09089821568340994,171753.0,151638.0,18831.0
62847.52569474185,0.10099801742762793,171769.0,151639.0,18846.0
62847.5357945436,0.11109781917184591,171765.0,151619.0,18884.0
62847.545894345334,0.12119762090878794,171784.0,151659.0,18871.0
62847.55599414708,0.13129742265300592,171763.0,151659.0,18879.0
62847.56609394882,0.1413972243972239,171752.0,151629.0,18849.0
62847.57619375057,0.1514970261414419,171747.0,151648.0,18857.0
62847.58629355231,0.16159682788565988,171760.0,151635.0,18813.0
62847.59639335405,0.1716966296226019,171775.0,151605.0,18878.0
62847.60649315579,0.1817964313668199,171753.0,151609.0,18837.0
62847.616592957536,0.19189623311103787,171746.0,151611.0,18865.0
62847.62669275928,0.20199603485525586,171745.0,151613.0,18855.0
62847.63679256102,0.21209583659219788,171711.0,151586.0,18816.0
62847.64689236276,0.22219563833641587,171689.0,151582.0,18815.0
62847.656992164506,0.23229544008063385,171700.0,151592.0,18799.0
62847.66709196625,0.24239524182485184,171647.0,151567.0,18794.0
62847.677191767994,0.2524950435690698,171652.0,151547.0,18801.0
62847.68729156973,0.26259484530601185,171679.0,151574.0,18807.0
62847.697391371476,0.27269464705022983,171664.0,151593.0,18815.0
62847.70749117322,0.2827944487944478,171656.0,151585.0,18804.0
62847.717590974964,0.2928942505386658,171687.0,151589.0,18783.0
62847.72769077671,0.3029940522828838,171706.0,151562.0,18817.0
62847.737790578445,0.3130938540198258,171678.0,151562.0,18798.0
62847.74789038019,0.3231936557640438,171655.0,151560.0,18787.0
62847.75799018193,0.3332934575082618,171693.0,151589.0,18823.0
62847.76808998368,0.34339325925247977,171696.0,151596.0,18805.0
62847.778189785415,0.3534930609894218,171701.0,151583.0,18815.0
62847.78828958716,0.3635928627336398,171709.0,151617.0,18807.0
62847.7983893889,0.37369266447785776,171702.0,151607.0,18838.0
62847.80848919065,0.38379246622207575,171697.0,151607.0,18814.0
62847.81858899239,0.39389226796629373,171648.0,151602.0,18800.0
62847.82868879413,0.40399206970323576,171694.0,151619.0,18846.0
62847.83878859587,0.41409187144745374,171657.0,151599.0,18814.0
62847.84888839762,0.4241916731916717,171708.0,151606.0,18828.0
62847.85898819936,0.4342914749358897,171735.0,151611.0,18863.0
62847.869088001105,0.4443912766801077,171697.0,151560.0,18809.0
62847.87918780284,0.4544910784170497,171670.0,151595.0,18819.0
62847.88928760459,0.4645908801612677,171669.0,151572.0,18821.0
62847.89938740633,0.4746906819054857,171692.0,151605.0,18840.0
62847.909487208075,0.4847904836497037,171671.0,151533.0,18820.0
62847.91958700981,0.4948902853866457,171708.0,151603.0,18850.0
62847.929686811556,0.5049900871308637,171677.0,151582.0,18788.0
62847.9397866133,0.5150898888750817,171654.0,151570.0,18829.0
62847.949886415045,0.5251896906192997,171682.0,151571.0,18813.0
62847.95998621679,0.5352894923635176,171674.0,151569.0,18833.0
62847.970086018526,0.5453892941004597,171660.0,151571.0,18811.0
62847.98018582027,0.5554890958446776,171683.0,151579.0,18820.0
62847.990285622014,0.5655888975888956,171716.0,151596.0,18849.0
62848.00038542376,0.5756886993331136,171681.0,151555.0,18807.0
62848.0104852255,0.5857885010773316,171663.0,151570.0,18813.0
62848.02058502724,0.5958883028142736,171695.0,151589.0,18818.0
62848.030684828984,0.6059881045584916,171682.0,151612.0,18823.0
62848.04078463073,0.6160879063027096,171715.0,151616.0,18850.0
62848.05088443247,0.6261877080469276,171662.0,151581.0,18818.0
62848.06098423421,0.6362875097838696,171677.0,151588.0,18821.0
62848.07108403595,0.6463873115280876,171656.0,151581.0,18820.0
62848.0811838377,0.6564871132723056,171701.0,151599.0,18848.0
62848.09128363944,0.6665869150165236,171672.0,151596.0,18841.0
62848.101383441186,0.6766867167607415,171681.0,151585.0,18832.0
62848.11148324292,0.6867865184976836,171731.0,151602.0,18849.0
62848.12158304467,0.6968863202419016,171690.0,151591.0,18844.0
62848.13168284641,0.7069861219861195,171696.0,151560.0,18820.0
62848.141782648156,0.7170859237303375,171700.0,151608.0,18831.0
62848.1518824499,0.7271857254745555,171665.0,151596.0,18828.0
62848.16198225164,0.7372855272114975,171698.0,151565.0,18839.0
62848.17208205338,0.7473853289557155,171678.0,151595.0,18822.0
62848.182181855125,0.7574851306999335,171714.0,151597.0,18842.0
62848.19228165687,0.7675849324441515,171721.0,151627.0,18857.0
62848.20238145861,0.7776847341810935,171723.0,151581.0,18851.0
62848.21248126035,0.7877845359253115,171679.0,151573.0,18819.0
62848.222581062095,0.7978843376695295,171700.0,151595.0,18835.0
62848.23268086384,0.8079841394137475,171725.0,151607.0,18848.0
62848.24278066558,0.8180839411579655,171728.0,151603.0,18839.0
62848.25288046732,0.8281837428949075,171707.0,151599.0,18830.0
62848.262980269064,0.8382835446391255,171736.0,151580.0,18872.0
62848.27308007081,0.8483833463833435,171690.0,151584.0,18840.0
62848.28317987255,0.8584831481275614,171733.0,151597.0,18861.0
62848.2932796743,0.8685829498717794,171680.0,151565.0,18844.0
62848.303379476034,0.8786827516087214,171707.0,151562.0,18833.0
62848.31347927778,0.8887825533529394,171702.0,151564.0,18809.0
62848.32357907952,0.8988823550971574,171677.0,151560.0,18796.0
62848.33367888127,0.9089821568413754,171630.0,151563.0,18793.0
62848.343778683,0.9190819585783174,171639.0,151537.0,18808.0
62848.35387848475,0.9291817603225354,171611.0,151531.0,18781.0
62848.36397828649,0.9392815620667534,171608.0,151558.0,18797.0
62848.374078088236,0.9493813638109714,171607.0,151511.0,18768.0
62848.38417788998,0.9594811655551894,171627.0,151545.0,18800.0
62848.39427769172,0.9695809672921314,171625.0,151509.0,18818.0
62848.40437749346,0.9796807690363494,171643.0,151556.0,18835.0
62848.414477295206,0.9897805707805674,171624.0,151533.0,18774.0
62848.42457709695,0.9998803725247853,171637.0,151551.0,18792.0
62848.434676898694,1.0099801742690033,171627.0,151571.0,18801.0
62848.44477670043,1.0200799760059454,171645.0,151585.0,18809.0
62848.454876502175,1.0301797777501633,171670.0,151592.0,18775.0
62848.46497630392,1.0402795794943813,171638.0,151568.0,18784.0
62848.475076105664,1.0503793812385993,171605.0,151557.0,18818.0
62848.4851759074,1.0604791829755413,171659.0,151589.0,18834.0
62848.495275709145,1.0705789847197593,171625.0,151589.0,18808.0
62848.50537551089,1.0806787864639773,171649.0,151556.0,18804.0
62848.51547531263,1.0907785882081953,171650.0,151564.0,18814.0
62848.52557511438,1.1008783899524133,171661.0,151539.0,18839.0
62848.535674916115,1.1109781916893553,171652.0,151585.0,18828.0
62848.54577471786,1.1210779934335733,171631.0,151546.0,18809.0
62848.5558745196,1.1311777951777913,171662.0,151554.0,18821.0
62848.56597432135,1.1412775969220093,171641.0,151581.0,18843.0
62848.57607412309,1.1513773986662272,171676.0,151553.0,18808.0
62848.58617392483,1.1614772004031693,171631.0,151543.0,18787.0
62848.59627372657,1.1715770021473872,171648.0,151560.0,18816.0
62848.60637352832,1.1816768038916052,171635.0,151568.0,18843.0
62848.61647333006,1.1917766056358232,171613.0,151551.0,18795.0
62848.6265731318,1.2018764073727652,171647.0,151571.0,18838.0
62848.63667293354,1.2119762091169832,171666.0,151557.0,18814.0
62848.64677273529,1.2220760108612012,171648.0,151562.0,18791.0
62848.65687253703,1.2321758126054192,171646.0,151578.0,18781.0
62848.666972338775,1.2422756143496372,171646.0,151533.0,18843.0
62848.67707214051,1.2523754160865792,171652.0,151562.0,18805.0
62848.687171942256,1.2624752178307972,171635.0,151572.0,18809.0
62848.697271744,1.2725750195750152,171637.0,151531.0,18816.0
62848.707371545745,1.2826748213192332,171640.0,151556.0,18813.0
62848.71747134749,1.2927746230634511,171658.0,151564.0,18819.0
62848.727571149226,1.3028744248003932,171678.0,151588.0,18797.0
62848.73767095097,1.3129742265446112,171677.0,151552.0,18814.0
62848.747770752714,1.3230740282888291,171664.0,151559.0,18807.0
62848.75787055446,1.3331738300330471,171664.0,151574.0,18825.0
62848.767970356195,1.3432736317699892,171631.0,151596.0,18811.0
62848.77807015794,1.3533734335142071,171668.0,151553.0,18825.0
62848.788169959684,1.3634732352584251,171682.0,151596.0,18826.0
62848.79826976143,1.373573037002643,171679.0,151554.0,18813.0
62848.80836956317,1.383672838746861,171649.0,151589.0,18844.0
62848.81846936491,1.3937726404838031,171642.0,151562.0,18813.0
62848.82856916665,1.403872442228021,171673.0,151605.0,18860.0
62848.8386689684,1.413972243972239,171684.0,151578.0,18828.0
62848.84876877014,1.424072045716457,171657.0,151549.0,18804.0
62848.858868571886,1.434171847460675,171682.0,151592.0,18819.0
62848.86896837362,1.444271649197617,171659.0,151571.0,18826.0
62848.87906817537,1.454371450941835,171693.0,151577.0,18830.0
62848.88916797711,1.464471252686053,171678.0,151572.0,18808.0
62848.899267778856,1.474571054430271,171691.0,151562.0,18862.0
62848.90936758059,1.484670856167213,171688.0,151564.0,18822.0
62848.91946738234,1.494770657911431,171706.0,151587.0,18830.0
62848.92956718408,1.504870459655649,171693.0,151572.0,18807.0
62848.939666985825,1.514970261399867,171719.0,151596.0,18831.0
62848.94976678757,1.525070063144085,171710.0,151599.0,18832.0
62848.959866589306,1.535169864881027,171722.0,151606.0,18847.0
62848.96996639105,1.545269666625245,171698.0,151606.0,18852.0
62848.980066192795,1.555369468369463,171709.0,151575.0,18840.0
62848.99016599454,1.565469270113681,171730.0,151594.0,18818.0
62849.00026579628,1.575569071857899,171718.0,151574.0,18822.0
62849.01036559802,1.585668873594841,171671.0,151586.0,18832.0
62849.020465399764,1.595768675339059,171659.0,151554.0,18803.0
62849.03056520151,1.605868477083277,171663.0,151566.0,18834.0
62849.04066500325,1.615968278827495,171624.0,151538.0,18780.0
62849.05076480499,1.626068080564437,171626.0,151519.0,18800.0
62849.060864606734,1.636167882308655,171643.0,151545.0,18780.0
62849.07096440848,1.646267684052873,171604.0,151542.0,18806.0
62849.08106421022,1.656367485797091,171624.0,151544.0,18794.0
62849.09116401197,1.666467287541309,171635.0,151572.0,18786.0
62849.1012638137,1.676567089278251,171660.0,151563.0,18809.0
62849.11136361545,1.686666891022469,171618.0,151527.0,18765.0
62849.12146341719,1.696766692766687,171654.0,151578.0,18770.0
62849.131563218936,1.7068664945109049,171637.0,151547.0,18789.0
62849.14166302068,1.7169662962551229,171623.0,151541.0,18775.0
62849.15176282242,1.727066097992065,171630.0,151571.0,18788.0
62849.16186262416,1.7371658997362829,171653.0,151572.0,18832.0
62849.171962425906,1.7472657014805009,171647.0,151561.0,18798.0
62849.18206222765,1.7573655032247189,171654.0,151538.0,18799.0
62849.19216202939,1.7674653049616609,171670.0,151562.0,18783.0
62849.20226183113,1.7775651067058789,171665.0,151604.0,18792.0
62849.212361632875,1.7876649084500968,171659.0,151578.0,18813.0
62849.22246143462,1.7977647101943148,171655.0,151564.0,18812.0
62849.232561236364,1.8078645119385328,171685.0,151565.0,18836.0
62849.2426610381,1.8179643136754748,171659.0,151572.0,18794.0
62849.252760839845,1.8280641154196928,171669.0,151580.0,18816.0
62849.26286064159,1.8381639171639108,171686.0,151595.0,18801.0
62849.27296044333,1.8482637189081288,171662.0,151561.0,18805.0
62849.28306024508,1.8583635206523468,171651.0,151561.0,18793.0
62849.293160046815,1.8684633223892888,171667.0,151567.0,18807.0
62849.30325984856,1.8785631241335068,171646.0,151539.0,18793.0
62849.3133596503,1.8886629258777248,171648.0,151544.0,18802.0
62849.32345945205,1.8987627276219428,171684.0,151581.0,18791.0
62849.333559253784,1.9088625293588848,171666.0,151561.0,18802.0
62849.34365905553,1.9189623311031028,171666.0,151575.0,18812.0
62849.35375885727,1.9290621328473208,171683.0,151607.0,18808.0
62849.36385865902,1.9391619345915387,171700.0,151587.0,18824.0
62849.37395846076,1.9492617363357567,171683.0,151589.0,18813.0
62849.3840582625,1.9593615380726987,171693.0,151579.0,18793.0
62849.39415806424,1.9694613398169167,171698.0,151608.0,18806.0
62849.40425786599,1.9795611415611347,171667.0,151563.0,18798.0
62849.41435766773,1.9896609433053527,171670.0,151587.0,18810.0
62849.424457469475,1.9997607450495707,171679.0,151573.0,18817.0
62849.43455727121,2.0098605467865127,171669.0,151561.0,18826.0
62849.444657072956,2.0199603485307307,171647.0,151555.0,18795.0
62849.4547568747,2.0300601502749487,171679.0,151587.0,18813.0
62849.464856676444,2.0401599520191667,171714.0,151592.0,18853.0
62849.47495647818,2.0502597537561087,171666.0,151551.0,18816.0
62849.485056279926,2.0603595555003267,171706.0,151598.0,18836.0
62849.49515608167,2.0704593572445447,171687.0,151583.0,18835.0
62849.505255883414,2.0805591589887626,171699.0,151574.0,18824.0
62849.51535568516,2.0906589607329806,171678.0,151564.0,18818.0
62849.525455486895,2.1007587624699227,171724.0,151617.0,18837.0
62849.53555528864,2.1108585642141406,171686.0,151600.0,18821.0
62849.545655090384,2.1209583659583586,171676.0,151574.0,18850.0
62849.55575489213,2.1310581677025766,171714.0,151605.0,18850.0
62849.56585469387,2.1411579694467946,171708.0,151562.0,18846.0
62849.57595449561,2.1512577711837366,171690.0,151579.0,18826.0
62849.58605429735,2.1613575729279546,171668.0,151566.0,18831.0
62849.5961540991,2.1714573746721726,171725.0,151599.0,18865.0
62849.60625390084,2.1815571764163906,171704.0,151621.0,18856.0
62849.61635370258,2.1916569781533326,171711.0,151588.0,18837.0
62849.62645350432,2.2017567798975506,171703.0,151613.0,18827.0
62849.63655330607,2.2118565816417686,171710.0,151562.0,18822.0
62849.64665310781,2.2219563833859866,171687.0,151560.0,18823.0
62849.656752909556,2.2320561851302045,171711.0,151605.0,18856.0
62849.66685271129,2.2421559868671466,171691.0,151584.0,18835.0
62849.67695251304,2.2522557886113646,171680.0,151576.0,18828.0
62849.68705231478,2.2623555903555825,171714.0,151603.0,18850.0
62849.697152116525,2.2724553920998005,171683.0,151563.0,18841.0
62849.70725191827,2.2825551938440185,171697.0,151572.0,18836.0
62849.717351720006,2.2926549955809605,171673.0,151543.0,18831.0
62849.72745152175,2.3027547973251785,171689.0,151565.0,18820.0
62849.737551323495,2.3128545990693965,171624.0,151524.0,18805.0
62849.74765112524,2.3229544008136145,171620.0,151511.0,18798.0
62849.757750926976,2.3330542025505565,171621.0,151523.0,18819.0
62849.76785072872,2.3431540042947745,171618.0,151498.0,18795.0
62849.777950530464,2.3532538060389925,171585.0,151494.0,18768.0
62849.78805033221,2.3633536077832105,171587.0,151521.0,18780.0
62849.79815013395,2.3734534095274284,171582.0,151530.0,18789.0
62849.80824993569,2.3835532112643705,171581.0,151533.0,18775.0
62849.818349737434,2.3936530130085885,171622.0,151548.0,18805.0
62849.82844953918,2.4037528147528064,171608.0,151531.0,18795.0
62849.83854934092,2.4138526164970244,171601.0,151509.0,18784.0
62849.84864914267,2.4239524182412424,171584.0,151490.0,18770.0
62849.8587489444,2.4340522199781844,171609.0,151546.0,18810.0
62849.86884874615,2.4441520217224024,171570.0,151501.0,18778.0
62849.87894854789,2.4542518234666204,171591.0,151513.0,18787.0
62849.889048349636,2.4643516252108384,171608.0,151558.0,18802.0
62849.89914815137,2.4744514269477804,171591.0,151515.0,18815.0
62849.90924795312,2.4845512286919984,171609.0,151528.0,18804.0
62849.91934775486,2.4946510304362164,171577.0,151535.0,18778.0
62849.929447556606,2.5047508321804344,171613.0,151571.0,18820.0
62849.93954735835,2.5148506339246524,171596.0,151521.0,18788.0
62849.94964716009,2.5249504356615944,171602.0,151541.0,18801.0
62849.95974696183,2.5350502374058124,171628.0,151521.0,18829.0
62849.969846763575,2.5451500391500304,171598.0,151522.0,18795.0
62849.97994656532,2.5552498408942483,171611.0,151494.0,18803.0
62849.990046367064,2.5653496426384663,171591.0,151518.0,18801.0
62850.0001461688,2.5754494443754083,171551.0,151502.0,18789.0
62850.010245970545,2.5855492461196263,171563.0,151534.0,18800.0
62850.02034577229,2.5956490478638443,171573.0,151504.0,18822.0
62850.03044557403,2.6057488496080623,171590.0,151513.0,18803.0
62850.04054537577,2.6158486513450043,171556.0,151479.0,18805.0
62850.050645177515,2.6259484530892223,171566.0,151491.0,18784.0
62850.06074497926,2.6360482548334403,171597.0,151543.0,18817.0
62850.070844781,2.6461480565776583,171601.0,151528.0,18778.0
62850.08094458275,2.6562478583218763,171569.0,151513.0,18831.0
62850.091044384484,2.6663476600588183,171596.0,151526.0,18820.0
62850.10114418623,2.6764474618030363,171571.0,151509.0,18797.0
62850.11124398797,2.6865472635472543,171575.0,151506.0,18816.0
62850.12134378972,2.6966470652914722,171554.0,151518.0,18804.0
62850.13144359146,2.7067468670356902,171562.0,151468.0,18848.0
62850.1415433932,2.7168466687726323,171527.0,151495.0,18791.0
62850.15164319494,2.7269464705168502,171575.0,151497.0,18813.0
62850.16174299669,2.7370462722610682,171551.0,151492.0,18795.0
62850.17184279843,2.747146074005286,171532.0,151471.0,18790.0
62850.18194260017,2.7572458757422282,171603.0,151518.0,18824.0
62850.19204240191,2.767345677486446,171521.0,151472.0,18808.0
62850.202142203656,2.777445479230664,171561.0,151492.0,18803.0
62850.2122420054,2.787545280974882,171530.0,151497.0,18794.0
62850.222341807144,2.7976450827191,171578.0,151497.0,18826.0
62850.23244160888,2.807744884456042,171551.0,151457.0,18803.0
62850.242541410626,2.81784468620026,171563.0,151497.0,18806.0
62850.25264121237,2.827944487944478,171589.0,151515.0,18839.0
62850.262741014114,2.838044289688696,171592.0,151533.0,18825.0
62850.27284081586,2.848144091432914,171540.0,151516.0,18793.0
62850.282940617595,2.858243893169856,171577.0,151495.0,18813.0
62850.29304041934,2.868343694914074,171585.0,151489.0,18834.0
62850.30314022108,2.878443496658292,171558.0,151484.0,18805.0
62850.31324002283,2.88854329840251,171614.0,151532.0,18824.0
62850.323339824565,2.898643100139452,171591.0,151508.0,18812.0
62850.33343962631,2.90874290188367,171586.0,151538.0,18831.0
62850.34353942805,2.918842703627888,171566.0,151503.0,18810.0
62850.3536392298,2.928942505372106,171617.0,151507.0,18849.0
62850.36373903154,2.939042307116324,171593.0,151518.0,18820.0
62850.37383883328,2.949142108853266,171575.0,151499.0,18828.0
62850.38393863502,2.959241910597484,171593.0,151496.0,18820.0
62850.39403843677,2.969341712341702,171596.0,151520.0,18841.0
62850.40413823851,2.97944151408592,171544.0,151505.0,18796.0
62850.414238040255,2.989541315830138,171543.0,151506.0,18795.0
62850.42433784199,2.99964111756708,171552.0,151478.0,18795.0
62850.43443764374,3.009740919311298,171530.0,151458.0,18805.0
62850.44453744548,3.019840721055516,171536.0,151465.0,18780.0
62850.454637247225,3.029940522799734,171519.0,151441.0,18776.0
62850.46473704896,3.040040324536676,171521.0,151477.0,18793.0
62850.474836850706,3.050140126280894,171496.0,151453.0,18752.0
62850.48493665245,3.060239928025112,171529.0,151466.0,18763.0
62850.495036454195,3.07033972976933,171556.0,151464.0,18812.0
62850.50513625594,3.080439531513548,171537.0,151474.0,18752.0
62850.515236057676,3.09053933325049,171548.0,151464.0,18767.0
62850.52533585942,3.100639134994708,171529.0,151468.0,18772.0
62850.535435661164,3.110738936738926,171477.0,151456.0,18747.0
62850.54553546291,3.120838738483144,171494.0,151466.0,18761.0
62850.55563526465,3.130938540227362,171494.0,151464.0,18765.0
62850.56573506639,3.141038341964304,171527.0,151483.0,18779.0
62850.575834868134,3.151138143708522,171527.0,151464.0,18781.0
62850.58593466988,3.16123794545274,171563.0,151495.0,18789.0
62850.59603447162,3.171337747196958,171557.0,151502.0,18811.0
62850.60613427336,3.1814375489339,171562.0,151513.0,18800.0
62850.6162340751,3.191537350678118,171530.0,151521.0,18782.0
62850.62633387685,3.201637152422336,171517.0,151477.0,18765.0
62850.63643367859,3.211736954166554,171533.0,151481.0,18795.0
62850.646533480336,3.221836755910772,171558.0,151504.0,18798.0
62850.65663328207,3.231936557647714,171554.0,151479.0,18801.0
62850.66673308382,3.242036359391932,171507.0,151517.0,18775.0
62850.67683288556,3.25213616113615,171537.0,151505.0,18781.0
62850.686932687306,3.262235962880368,171563.0,151495.0,18797.0
62850.69703248905,3.272335764624586,171557.0,151528.0,18802.0
62850.70713229079,3.282435566361528,171558.0,151501.0,18786.0
62850.71723209253,3.292535368105746,171585.0,151517.0,18822.0
62850.727331894275,3.302635169849964,171567.0,151497.0,18785.0
62850.73743169602,3.312734971594182,171563.0,151513.0,18799.0
62850.74753149776,3.322834773331124,171534.0,151511.0,18767.0
62850.7576312995,3.332934575075342,171547.0,151490.0,18772.0
62850.767731101245,3.34303437681956,171550.0,151465.0,18786.0
62850.77783090299,3.353134178563778,171558.0,151504.0,18795.0
62850.78793070473,3.363233980307996,171549.0,151491.0,18786.0
62850.79803050647,3.373333782044938,171518.0,151465.0,18782.0
62850.808130308214,3.383433583789156,171531.0,151478.0,18793.0
62850.81823010996,3.393533385533374,171547.0,151495.0,18799.0
62850.8283299117,3.403633187277592,171565.0,151506.0,18824.0
62850.83842971345,3.4137329890218098,171562.0,151500.0,18790.0
62850.848529515184,3.423832790758752,171600.0,151523.0,18786.0
62850.85862931693,3.43393259250297,171586.0,151516.0,18803.0
62850.86872911867,3.4440323942471878,171571.0,151534.0,18808.0
62850.87882892042,3.4541321959914058,171583.0,151535.0,18789.0
62850.888928722154,3.464231997728348,171612.0,151522.0,18845.0
62850.8990285239,3.4743317994725658,171592.0,151535.0,18816.0
62850.90912832564,3.4844316012167837,171575.0,151497.0,18803.0
62850.919228127386,3.4945314029610017,171585.0,151537.0,18846.0
62850.92932792913,3.5046312047052197,171585.0,151532.0,18804.0
62850.93942773087,3.5147310064421617,171564.0,151514.0,18788.0
62850.94952753261,3.5248308081863797,171563.0,151538.0,18803.0
62850.959627334356,3.5349306099305977,171607.0,151514.0,18834.0
62850.9697271361,3.5450304116748157,171576.0,151495.0,18805.0
62850.979826937844,3.5551302134190337,171600.0,151522.0,18815.0
62850.98992673958,3.5652300151559757,171579.0,151510.0,18808.0
62851.000026541325,3.5753298169001937,171586.0,151510.0,18805.0
62851.01012634307,3.5854296186444117,171631.0,151567.0,18848.0
62851.020226144814,3.5955294203886297,171621.0,151531.0,18823.0
62851.03032594655,3.6056292221255717,171653.0,151533.0,18836.0
62851.040425748295,3.6157290238697897,171641.0,151561.0,18819.0
62851.05052555004,3.6258288256140077,171631.0,151546.0,18828.0
62851.06062535178,3.6359286273582256,171628.0,151547.0,18824.0
62851.07072515353,3.6460284291024436,171583.0,151564.0,18817.0
62851.080824955265,3.6561282308393857,171599.0,151540.0,18799.0
62851.09092475701,3.6662280325836036,171646.0,151529.0,18839.0
62851.10102455875,3.6763278343278216,171615.0,151528.0,18824.0
62851.1111243605,3.6864276360720396,171590.0,151505.0,18813.0
62851.12122416224,3.6965274378162576,171615.0,151521.0,18825.0
62851.13132396398,3.7066272395531996,171557.0,151461.0,18797.0
62851.14142376572,3.7167270412974176,171571.0,151496.0,18793.0
62851.15152356747,3.7268268430416356,171542.0,151505.0,18792.0
62851.16162336921,3.7369266447858536,171518.0,151469.0,18765.0
62851.17172317095,3.7470264465227956,171534.0,151485.0,18796.0
62851.18182297269,3.7571262482670136,171500.0,151476.0,18743.0
62851.19192277444,3.7672260500112316,171535.0,151455.0,18771.0
62851.20202257618,3.7773258517554495,171509.0,151483.0,18731.0
62851.212122377925,3.7874256534996675,171518.0,151440.0,18746.0
62851.22222217966,3.7975254552366096,171524.0,151478.0,18763.0
62851.232321981406,3.8076252569808275,171534.0,151480.0,18775.0
62851.24242178315,3.8177250587250455,171531.0,151493.0,18786.0
62851.252521584895,3.8278248604692635,171530.0,151457.0,18761.0
62851.26262138664,3.8379246622134815,171520.0,151465.0,18763.0
62851.272721188376,3.8480244639504235,171542.0,151510.0,18778.0
62851.28282099012,3.8581242656946415,171536.0,151462.0,18770.0
62851.292920791864,3.8682240674388595,171526.0,151498.0,18767.0
62851.30302059361,3.8783238691830775,171527.0,151497.0,18778.0
62851.313120395345,3.8884236709200195,171558.0,151514.0,18784.0
62851.32322019709,3.8985234726642375,171555.0,151514.0,18796.0
62851.333319998834,3.9086232744084555,171559.0,151488.0,18787.0
62851.34341980058,3.9187230761526735,171542.0,151554.0,18800.0
62851.35351960232,3.9288228778968914,171563.0,151500.0,18791.0
62851.36361940406,3.9389226796338335,171564.0,151512.0,18784.0
62851.3737192058,3.9490224813780515,171579.0,151530.0,18774.0
62851.38381900755,3.9591222831222694,171589.0,151526.0,18795.0
62851.39391880929,3.9692220848664874,171572.0,151518.0,18792.0
62851.404018611036,3.9793218866107054,171544.0,151519.0,18778.0
62851.41411841277,3.9894216883476474,171538.0,151519.0,18780.0
62851.42421821452,3.9995214900918654,171576.0,151512.0,18795.0
62851.43431801626,4.009621291836083,171542.0,151496.0,18782.0
62851.444417818006,4.019721093580301,171540.0,151475.0,18776.0
62851.45451761974,4.029820895317243,171539.0,151498.0,18795.0
62851.46461742149,4.039920697061461,171551.0,151490.0,18787.0
62851.47471722323,4.050020498805679,171517.0,151494.0,18775.0
62851.484817024975,4.060120300549897,171544.0,151524.0,18791.0
62851.49491682672,4.070220102294115,171564.0,151521.0,18807.0
62851.505016628456,4.080319904031057,171585.0,151501.0,18825.0
62851.5151164302,4.090419705775275,171564.0,151509.0,18796.0
62851.525216231945,4.100519507519493,171550.0,151480.0,18794.0
62851.53531603369,4.110619309263711,171532.0,151497.0,18770.0
62851.54541583543,4.120719111007929,171533.0,151490.0,18777.0
62851.55551563717,4.130818912744871,171547.0,151501.0,18811.0
62851.565615438914,4.140918714489089,171542.0,151495.0,18770.0
62851.57571524066,4.151018516233307,171548.0,151501.0,18775.0
62851.5858150424,4.161118317977525,171528.0,151482.0,18806.0
62851.59591484414,4.171218119714467,171557.0,151495.0,18803.0
62851.606014645884,4.181317921458685,171506.0,151523.0,18777.0
62851.61611444763,4.191417723202903,171573.0,151534.0,18823.0
62851.62621424937,4.201517524947121,171592.0,151527.0,18826.0
62851.63631405112,4.211617326691339,171569.0,151511.0,18800.0
62851.64641385285,4.221717128428281,171548.0,151494.0,18807.0
62851.6565136546,4.231816930172499,171543.0,151501.0,18814.0
62851.66661345634,4.241916731916717,171555.0,151491.0,18800.0
62851.676713258086,4.252016533660935,171546.0,151491.0,18808.0
62851.68681305983,4.262116335405153,171551.0,151523.0,18812.0
62851.69691286157,4.272216137142095,171559.0,151518.0,18823.0
62851.70701266331,4.282315938886313,171581.0,151492.0,18824.0
62851.717112465056,4.292415740630531,171556.0,151500.0,18818.0
62851.7272122668,4.302515542374749,171559.0,151523.0,18799.0
62851.73731206854,4.312615344111691,171547.0,151519.0,18802.0
62851.74741187028,4.322715145855909,171574.0,151505.0,18801.0
62851.757511672025,4.332814947600127,171547.0,151522.0,18794.0
62851.76761147377,4.342914749344345,171585.0,151506.0,18820.0
62851.777711275514,4.353014551088563,171613.0,151550.0,18805.0
62851.78781107725,4.363114352825505,171610.0,151523.0,18810.0
62851.797910878995,4.373214154569723,171618.0,151514.0,18828.0
62851.80801068074,4.383313956313941,171587.0,151525.0,18814.0
62851.81811048248,4.393413758058159,171560.0,151491.0,18843.0
62851.82821028423,4.403513559802377,171600.0,151501.0,18833.0
62851.838310085965,4.413613361539319,171564.0,151477.0,18803.0
62851.84840988771,4.423713163283537,171555.0,151489.0,18797.0
62851.85850968945,4.433812965027755,171527.0,151460.0,18782.0
62851.8686094912,4.443912766771973,171508.0,151447.0,18770.0
62851.878709292934,4.454012568508915,171506.0,151431.0,18749.0
62851.88880909468,4.464112370253133,171505.0,151462.0,18773.0
62851.89890889642,4.474212171997351,171501.0,151460.0,18784.0
62851.90900869817,4.484311973741569,171522.0,151441.0,18769.0
62851.91910849991,4.494411775485787,171503.0,151474.0,18787.0
62851.92920830165,4.504511577222729,171498.0,151462.0,18756.0
62851.93930810339,4.514611378966947,171512.0,151501.0,18784.0
62851.94940790514,4.524711180711165,171457.0,151465.0,18755.0
62851.95950770688,4.534810982455383,171484.0,151445.0,18762.0
62851.96960750862,4.544910784192325,171506.0,151467.0,18770.0
62851.97970731036,4.555010585936543,171486.0,151469.0,18784.0
62851.989807112106,4.565110387680761,171499.0,151483.0,18744.0
62851.99990691385,4.575210189424979,171534.0,151475.0,18779.0
62852.010006715594,4.585309991169197,171481.0,151477.0,18761.0
62852.02010651733,4.595409792906139,171484.0,151472.0,18746.0
62852.030206319076,4.605509594650357,171524.0,151492.0,18803.0
62852.04030612082,4.615609396394575,171493.0,151470.0,18781.0
62852.050405922564,4.625709198138793,171523.0,151492.0,18775.0
62852.06050572431,4.635808999883011,171508.0,151476.0,18805.0
62852.070605526045,4.645908801619953,171489.0,151454.0,18796.0
62852.08070532779,4.656008603364171,171490.0,151471.0,18782.0
62852.090805129534,4.666108405108389,171519.0,151492.0,18774.0
62852.10090493128,4.676208206852607,171532.0,151484.0,18808.0
62852.111004733015,4.686308008589549,171503.0,151466.0,18778.0
62852.12110453476,4.696407810333767,171522.0,151458.0,18807.0
62852.1312043365,4.706507612077985,171512.0,151477.0,18780.0
62852.14130413825,4.716607413822203,171519.0,151516.0,18795.0
62852.15140393999,4.726707215566421,171476.0,151452.0,18763.0
62852.16150374173,4.736807017303363,171477.0,151461.0,18747.0
62852.17160354347,4.746906819047581,171506.0,151470.0,18780.0
62852.18170334522,4.757006620791799,171478.0,151468.0,18786.0
62852.19180314696,4.767106422536017,171522.0,151448.0,18759.0
62852.201902948706,4.777206224280235,171485.0,151462.0,18792.0
62852.21200275044,4.787306026017177,171527.0,151485.0,18766.0
62852.22210255219,4.797405827761395,171487.0,151471.0,18782.0
62852.23220235393,4.807505629505613,171543.0,151506.0,18810.0
62852.242302155675,4.817605431249831,171486.0,151449.0,18799.0
62852.25240195741,4.827705232986773,171511.0,151479.0,18760.0
62852.262501759156,4.837805034730991,171476.0,151487.0,18777.0
62852.2726015609,4.847904836475209,171480.0,151493.0,18792.0
62852.282701362645,4.858004638219427,171495.0,151486.0,18819.0
62852.29280116439,4.868104439963645,171495.0,151472.0,18786.0
62852.302900966126,4.878204241700587,171497.0,151474.0,18790.0
62852.31300076787,4.888304043444805,171493.0,151484.0,18785.0
62852.323100569614,4.898403845189023,171527.0,151457.0,18811.0
62852.33320037136,4.908503646933241,171498.0,151474.0,18805.0
62852.3433001731,4.918603448677459,171527.0,151498.0,18801.0
62852.35339997484,4.928703250414401,171514.0,151489.0,18816.0
62852.363499776584,4.938803052158619,171554.0,151510.0,18822.0
62852.37359957833,4.948902853902837,171547.0,151515.0,18832.0
62852.38369938007,4.959002655647055,171530.0,151496.0,18811.0
62852.39379918181,4.969102457383997,171502.0,151442.0,18830.0
62852.40389898355,4.979202259128215,171497.0,151470.0,18807.0
62852.4139987853,4.989302060872433,171488.0,151479.0,18783.0
62852.42409858704,4.999401862616651,171530.0,151487.0,18800.0
62852.434198388786,5.009501664360869,171531.0,151482.0,18821.0
62852.44429819052,5.019601466097811,171558.0,151523.0,18799.0
62852.45439799227,5.029701267842029,171546.0,151493.0,18815.0
62852.46449779401,5.039801069586247,171548.0,151505.0,18808.0
62852.474597595756,5.049900871330465,171534.0,151514.0,18811.0
62852.4846973975,5.060000673074683,171526.0,151494.0,18812.0
62852.49479719924,5.070100474811625,171561.0,151488.0,18813.0
62852.50489700098,5.080200276555843,171537.0,151503.0,18808.0
62852.514996802725,5.090300078300061,171498.0,151489.0,18820.0
62852.52509660447,5.100399880044279,171549.0,151504.0,18818.0
62852.53519640621,5.110499681781221,171496.0,151471.0,18806.0
62852.54529620795,5.120599483525439,171529.0,151495.0,18809.0
62852.555396009695,5.130699285269657,171492.0,151490.0,18804.0
62852.56549581144,5.140799087013875,171478.0,151451.0,18821.0
62852.57559561318,5.150898888758093,171492.0,151460.0,18791.0
62852.58569541492,5.160998690495035,171481.0,151450.0,18793.0
62852.595795216665,5.171098492239253,171452.0,151444.0,18743.0
62852.60589501841,5.181198293983471,171413.0,151398.0,18754.0
62852.61599482015,5.191298095727689,171442.0,151429.0,18787.0
62852.6260946219,5.201397897471907,171430.0,151420.0,18765.0
62852.636194423634,5.211497699208849,171426.0,151424.0,18764.0
62852.64629422538,5.221597500953067,171417.0,151417.0,18735.0
62852.65639402712,5.231697302697285,171430.0,151390.0,18771.0
62852.66649382887,5.241797104441503,171428.0,151420.0,18750.0
62852.676593630604,5.251896906178445,171405.0,151443.0,18781.0
62852.68669343235,5.261996707922663,171418.0,151451.0,18759.0
62852.69679323409,5.272096509666881,171412.0,151428.0,18746.0
62852.70689303584,5.282196311411099,171446.0,151453.0,18755.0
62852.71699283758,5.292296113155317,171443.0,151433.0,18757.0
62852.72709263932,5.302395914892259,171474.0,151462.0,18777.0
62852.73719244106,5.312495716636477,171417.0,151440.0,18766.0
62852.747292242806,5.322595518380695,171459.0,151455.0,18776.0
62852.75739204455,5.3326953201249125,171449.0,151480.0,18774.0
62852.767491846294,5.3427951218691305,171458.0,151435.0,18777.0
62852.77759164803,5.3528949236060726,171477.0,151462.0,18753.0
62852.787691449776,5.3629947253502905,171456.0,151447.0,18789.0
62852.79779125152,5.3730945270945085,171441.0,151467.0,18774.0
62852.807891053264,5.3831943288387265,171439.0,151472.0,18757.0
62852.817990855,5.3932941305756685,171498.0,151480.0,18792.0
62852.828090656745,5.4033939323198865,171434.0,151452.0,18775.0
62852.83819045849,5.4134937340641045,171468.0,151445.0,18777.0
62852.84829026023,5.4235935358083225,171465.0,151461.0,18759.0
62852.85839006198,5.4336933375525405,171440.0,151432.0,18795.0
62852.868489863715,5.4437931392894825,171438.0,151430.0,18757.0
62852.87858966546,5.4538929410337005,171456.0,151450.0,18784.0
62852.8886894672,5.4639927427779185,171456.0,151434.0,18769.0
62852.89878926895,5.4740925445221364,171468.0,151462.0,18794.0
62852.90888907069,5.484192346266354,171488.0,151479.0,18767.0
62852.91898887243,5.4942921480032965,171462.0,151455.0,18773.0
62852.92908867417,5.5043919497475144,171460.0,151425.0,18790.0
62852.93918847592,5.514491751491732,171444.0,151437.0,18766.0
62852.94928827766,5.52459155323595,171418.0,151461.0,18790.0
62852.9593880794,5.534691354972892,171457.0,151432.0,18776.0
62852.96948788114,5.54479115671711,171459.0,151426.0,18754.0
62852.97958768289,5.554890958461328,171470.0,151464.0,18785.0
62852.98968748463,5.564990760205546,171452.0,151457.0,18809.0
62852.999787286375,5.575090561949764,171463.0,151449.0,18781.0
62853.00988708811,5.585190363686706,171483.0,151457.0,18803.0
62853.019986889856,5.595290165430924,171482.0,151452.0,18801.0
62853.0300866916,5.605389967175142,171432.0,151452.0,18766.0
62853.040186493345,5.61548976891936,171461.0,151464.0,18787.0
62853.05028629509,5.625589570663578,171489.0,151478.0,18768.0
62853.060386096826,5.63568937240052,171467.0,151447.0,18794.0
62853.07048589857,5.645789174144738,171504.0,151478.0,18784.0
62853.080585700314,5.655888975888956,171491.0,151495.0,18804.0
62853.09068550206,5.665988777633174,171497.0,151485.0,18817.0
62853.100785303795,5.676088579370116,171494.0,151464.0,18797.0
62853.11088510554,5.686188381114334,171509.0,151482.0,18784.0
62853.120984907284,5.696288182858552,171490.0,151463.0,18798.0
62853.13108470903,5.70638798460277,171460.0,151447.0,18823.0
62853.14118451077,5.716487786346988,171477.0,151458.0,18793.0
62853.15128431251,5.72658758808393,171486.0,151452.0,18810.0
62853.16138411425,5.736687389828148,171468.0,151462.0,18800.0
62853.171483916,5.746787191572366,171454.0,151434.0,18784.0
62853.18158371774,5.756886993316584,171483.0,151462.0,18789.0
62853.191683519486,5.766986795060802,171453.0,151435.0,18783.0
62853.20178332122,5.777086596797744,171476.0,151449.0,18794.0
62853.21188312297,5.787186398541962,171539.0,151463.0,18833.0
62853.22198292471,5.79728620028618,171471.0,151438.0,18814.0
62853.232082726456,5.807386002030398,171431.0,151440.0,18792.0
62853.24218252819,5.81748580376734,171443.0,151420.0,18801.0
62853.25228232994,5.827585605511558,171461.0,151454.0,18780.0
62853.26238213168,5.837685407255776,171428.0,151451.0,18795.0
62853.272481933425,5.847785208999994,171456.0,151463.0,18812.0
62853.28258173517,5.857885010744212,171450.0,151436.0,18801.0
62853.29268153691,5.867984812481154,171424.0,151423.0,18798.0
62853.30278133865,5.878084614225372,171403.0,151387.0,18786.0
62853.312881140395,5.88818441596959,171403.0,151398.0,18796.0
62853.32298094214,5.898284217713808,171394.0,151389.0,18769.0
62853.33308074388,5.908384019458026,171381.0,151362.0,18812.0
62853.34318054562,5.918483821194968,171387.0,151394.0,18785.0
62853.353280347364,5.928583622939186,171360.0,151343.0,18775.0
62853.36338014911,5.938683424683404,171307.0,151356.0,18720.0
62853.37347995085,5.948783226427622,171324.0,151342.0,18745.0
62853.38357975259,5.958883028164564,171345.0,151367.0,18760.0
62853.393679554334,5.968982829908782,171319.0,151325.0,18717.0
62853.40377935608,5.979082631653,171349.0,151343.0,18757.0
62853.41387915782,5.989182433397218,171311.0,151370.0,18738.0
62853.42397895957,5.999282235141436,171303.0,151350.0,18750.0
62853.434078761304,6.009382036878378,171313.0,151360.0,18717.0
62853.44417856305,6.019481838622596,171370.0,151398.0,18748.0
62853.45427836479,6.029581640366814,171350.0,151385.0,18754.0
62853.464378166536,6.039681442111032,171335.0,151366.0,18770.0
62853.47447796828,6.04978124385525,171359.0,151412.0,18761.0
62853.48457777002,6.059881045592192,171370.0,151393.0,18769.0
62853.49467757176,6.06998084733641,171364.0,151380.0,18756.0
62853.504777373506,6.080080649080628,171328.0,151357.0,18760.0
62853.51487717525,6.090180450824846,171369.0,151383.0,18776.0
62853.52497697699,6.100280252561788,171353.0,151367.0,18754.0
62853.53507677873,6.110380054306006,171351.0,151382.0,18761.0
62853.545176580476,6.120479856050224,171344.0,151386.0,18771.0
62853.55527638222,6.130579657794442,171354.0,151369.0,18776.0
62853.565376183964,6.14067945953866,171339.0,151348.0,18764.0
62853.5754759857,6.150779261275602,171359.0,151377.0,18766.0
62853.585575787445,6.16087906301982,171379.0,151418.0,18772.0
62853.59567558919,6.170978864764038,171324.0,151366.0,18759.0
62853.60577539093,6.181078666508256,171342.0,151393.0,18765.0
62853.61587519268,6.191178468252474,171339.0,151349.0,18782.0
62853.625974994415,6.201278269989416,171347.0,151360.0,18749.0
62853.63607479616,6.211378071733634,171303.0,151345.0,18747.0
62853.6461745979,6.221477873477852,171357.0,151387.0,18762.0
62853.65627439965,6.23157767522207,171322.0,151348.0,18765.0
62853.666374201384,6.241677476959012,171315.0,151357.0,18738.0
62853.67647400313,6.25177727870323,171327.0,151382.0,18784.0
62853.68657380487,6.261877080447448,171320.0,151341.0,18770.0
62853.69667360662,6.271976882191666,171313.0,151364.0,18754.0
62853.70677340836,6.282076683935884,171306.0,151354.0,18767.0
62853.7168732101,6.292176485672826,171316.0,151334.0,18762.0
62853.72697301184,6.302276287417044,171312.0,151339.0,18753.0
62853.73707281359,6.312376089161262,171312.0,151348.0,18770.0
62853.74717261533,6.32247589090548,171315.0,151374.0,18795.0
62853.757272417075,6.332575692649698,171316.0,151341.0,18779.0
62853.76737221881,6.34267549438664,171288.0,151342.0,18742.0
62853.777472020556,6.352775296130858,171326.0,151373.0,18767.0
62853.7875718223,6.362875097875076,171327.0,151385.0,18766.0
62853.797671624045,6.372974899619294,171302.0,151394.0,18761.0
62853.80777142578,6.383074701356236,171311.0,151381.0,18794.0
62853.817871227526,6.393174503100454,171327.0,151351.0,18776.0
62853.82797102927,6.403274304844672,171316.0,151349.0,18760.0
62853.838070831014,6.41337410658889,171307.0,151335.0,18755.0
62853.84817063276,6.423473908333108,171334.0,151379.0,18792.0
62853.858270434495,6.43357371007005,171327.0,151358.0,18760.0
62853.86837023624,6.443673511814268,171316.0,151337.0,18799.0
62853.878470037984,6.453773313558486,171318.0,151356.0,18808.0
62853.88856983973,6.463873115302704,171288.0,151331.0,18778.0
62853.89866964147,6.473972917046922,171317.0,151351.0,18788.0
62853.90876944321,6.484072718783864,171329.0,151366.0,18783.0
62853.91886924495,6.494172520528082,171291.0,151345.0,18786.0
62853.9289690467,6.5042723222723,171306.0,151359.0,18761.0
62853.93906884844,6.514372124016518,171337.0,151377.0,18797.0
62853.94916865018,6.52447192575346,171339.0,151404.0,18780.0
62853.95926845192,6.534571727497678,171338.0,151344.0,18789.0
62853.96936825367,6.544671529241896,171331.0,151335.0,18765.0
62853.97946805541,6.554771330986114,171330.0,151379.0,18793.0
62853.989567857156,6.564871132730332,171331.0,151362.0,18783.0
62853.99966765889,6.574970934467274,171312.0,151373.0,18780.0
62854.00976746064,6.585070736211492,171331.0,151397.0,18803.0
62854.01986726238,6.59517053795571,171325.0,151357.0,18835.0
62854.029967064125,6.605270339699928,171328.0,151356.0,18785.0
62854.04006686587,6.615370141444146,171306.0,151342.0,18775.0
62854.05016666761,6.625469943181088,171352.0,151360.0,18804.0
62854.06026646935,6.635569744925306,171294.0,151330.0,18764.0
62854.070366271095,6.645669546669524,171300.0,151332.0,18766.0
62854.08046607284,6.655769348413742,171290.0,151325.0,18784.0
62854.090565874576,6.665869150150684,171263.0,151292.0,18758.0
62854.10066567632,6.675968951894902,171269.0,151341.0,18765.0
62854.110765478064,6.68606875363912,171255.0,151303.0,18744.0
62854.12086527981,6.696168555383338,171253.0,151325.0,18755.0
62854.13096508155,6.706268357127556,171225.0,151305.0,18713.0
62854.14106488329,6.716368158864498,171266.0,151342.0,18756.0
62854.151164685034,6.726467960608716,171233.0,151321.0,18751.0
62854.16126448678,6.736567762352934,171220.0,151298.0,18740.0
62854.17136428852,6.746667564097152,171240.0,151307.0,18723.0
62854.18146409027,6.75676736584137,171284.0,151344.0,18752.0
62854.191563892,6.766867167578312,171272.0,151319.0,18731.0
62854.20166369375,6.77696696932253,171249.0,151329.0,18754.0
62854.21176349549,6.787066771066748,171270.0,151346.0,18779.0
62854.221863297236,6.797166572810966,171283.0,151349.0,18741.0
62854.23196309897,6.807266374547908,171269.0,151342.0,18747.0
62854.24206290072,6.817366176292126,171254.0,151333.0,18745.0
62854.25216270246,6.827465978036344,171292.0,151369.0,18755.0
62854.262262504206,6.837565779780562,171248.0,151342.0,18745.0
62854.27236230595,6.8476655815247796,171279.0,151341.0,18754.0
62854.28246210769,6.857765383261722,171294.0,151334.0,18798.0
62854.29256190943,6.86786518500594,171262.0,151326.0,18765.0
62854.302661711175,6.8779649867501575,171304.0,151360.0,18774.0
62854.31276151292,6.8880647884943755,171307.0,151355.0,18767.0
62854.322861314664,6.8981645902385935,171311.0,151359.0,18778.0
62854.3329611164,6.9082643919755355,171279.0,151371.0,18772.0
62854.343060918145,6.9183641937197535,171299.0,151368.0,18782.0
62854.35316071989,6.9284639954639715,171274.0,151331.0,18761.0
62854.36326052163,6.9385637972081895,171254.0,151315.0,18756.0
62854.37336032337,6.9486635989451315,171265.0,151308.0,18757.0
62854.383460125115,6.9587634006893495,171264.0,151336.0,18772.0
62854.39355992686,6.9688632024335675,171274.0,151339.0,18744.0
62854.4036597286,6.9789630041777855,171257.0,151345.0,18784.0
62854.41375953035,6.9890628059220035,171279.0,151326.0,18804.0
62854.423859332084,6.9991626076589455,171265.0,151316.0,18741.0
62854.43395913383,7.0092624094031635,171276.0,151342.0,18766.0
62854.44405893557,7.0193622111473815,171274.0,151354.0,18756.0
62854.45415873732,7.029462012891599,171298.0,151381.0,18785.0
62854.46425853906,7.039561814635817,171280.0,151342.0,18728.0
62854.4743583408,7.0496616163727595,171315.0,151347.0,18786.0
62854.48445814254,7.059761418116977,171289.0,151347.0,18756.0
62854.49455794429,7.069861219861195,171277.0,151315.0,18769.0
62854.50465774603,7.079961021605413,171293.0,151327.0,18764.0
62854.51475754777,7.090060823342355,171245.0,151318.0,18759.0
62854.52485734951,7.100160625086573,171285.0,151359.0,18772.0
62854.534957151256,7.110260426830791,171299.0,151378.0,18773.0
62854.545056953,7.120360228575009,171319.0,151387.0,18787.0
62854.555156754745,7.130460030319227,171255.0,151322.0,18783.0
62854.56525655648,7.140559832056169,171293.0,151349.0,18782.0
62854.575356358226,7.150659633800387,171271.0,151337.0,18783.0
62854.58545615997,7.160759435544605,171321.0,151349.0,18770.0
62854.595555961714,7.170859237288823,171272.0,151366.0,18779.0
62854.60565576346,7.180959039033041,171291.0,151355.0,18781.0
62854.615755565195,7.191058840769983,171324.0,151344.0,18789.0
62854.62585536694,7.201158642514201,171299.0,151359.0,18763.0
62854.635955168684,7.211258444258419,171319.0,151365.0,18800.0
62854.64605497043,7.221358246002637,171297.0,151354.0,18785.0
62854.656154772165,7.231458047739579,171280.0,151394.0,18802.0
62854.66625457391,7.241557849483797,171301.0,151317.0,18756.0
62854.67635437565,7.251657651228015,171315.0,151352.0,18816.0
62854.6864541774,7.261757452972233,171272.0,151326.0,18799.0
62854.69655397914,7.271857254716451,171281.0,151326.0,18787.0
62854.70665378088,7.281957056453393,171288.0,151321.0,18763.0
62854.71675358262,7.292056858197611,171269.0,151329.0,18760.0
62854.72685338437,7.302156659941829,171302.0,151354.0,18783.0
62854.73695318611,7.312256461686047,171335.0,151370.0,18799.0
62854.747052987856,7.322356263430265,171329.0,151360.0,18778.0
62854.75715278959,7.332456065167207,171284.0,151318.0,18777.0
62854.76725259134,7.342555866911425,171307.0,151351.0,18797.0
62854.77735239308,7.352655668655643,171295.0,151348.0,18772.0
62854.787452194825,7.362755470399861,171336.0,151389.0,18813.0
62854.79755199656,7.372855272136803,171302.0,151342.0,18761.0
62854.807651798306,7.382955073881021,171303.0,151354.0,18791.0
62854.81775160005,7.393054875625239,171293.0,151305.0,18795.0
62854.827851401795,7.403154677369457,171263.0,151298.0,18783.0
62854.83795120354,7.413254479113675,171287.0,151316.0,18780.0
62854.848051005276,7.423354280850617,171259.0,151298.0,18762.0
62854.85815080702,7.433454082594835,171255.0,151318.0,18725.0
62854.868250608764,7.443553884339053,171190.0,151276.0,18724.0
62854.87835041051,7.453653686083271,171155.0,151272.0,18722.0
62854.88845021225,7.463753487827489,171187.0,151277.0,18735.0
62854.89855001399,7.473853289564431,171186.0,151242.0,18732.0
62854.908649815734,7.483953091308649,171188.0,151254.0,18733.0
62854.91874961748,7.494052893052867,171197.0,151292.0,18724.0
62854.92884941922,7.504152694797085,171216.0,151293.0,18741.0
62854.93894922096,7.514252496534027,171217.0,151280.0,18714.0
62854.9490490227,7.524352298278245,171230.0,151270.0,18780.0
62854.95914882445,7.534452100022463,171219.0,151304.0,18726.0
62854.96924862619,7.544551901766681,171206.0,151316.0,18731.0
62854.979348427936,7.554651703510899,171212.0,151268.0,18744.0
62854.98944822967,7.564751505247841,171225.0,151322.0,18752.0
62854.99954803142,7.574851306992059,171202.0,151299.0,18723.0
62855.00964783316,7.584951108736277,171205.0,151320.0,18739.0
62855.019747634906,7.595050910480495,171219.0,151302.0,18746.0
62855.02984743665,7.605150712224713,171233.0,151315.0,18743.0
62855.03994723839,7.615250513961655,171221.0,151297.0,18787.0
62855.05004704013,7.625350315705873,171252.0,151333.0,18745.0
62855.060146841875,7.635450117450091,171249.0,151325.0,18766.0
62855.07024664362,7.645549919194309,171211.0,151312.0,18774.0
62855.08034644536,7.655649720931251,171216.0,151325.0,18755.0
62855.0904462471,7.665749522675469,171237.0,151262.0,18764.0
62855.100546048845,7.675849324419687,171217.0,151304.0,18763.0
62855.11064585059,7.685949126163905,171233.0,151289.0,18735.0
62855.12074565233,7.696048927908123,171216.0,151297.0,18752.0
62855.13084545407,7.706148729645065,171210.0,151285.0,18742.0
62855.140945255815,7.716248531389283,171211.0,151309.0,18757.0
62855.15104505756,7.726348333133501,171233.0,151291.0,18758.0
62855.1611448593,7.736448134877719,171231.0,151279.0,18761.0
62855.17124466105,7.746547936621937,171196.0,151288.0,18745.0
62855.181344462784,7.756647738358879,171209.0,151305.0,18756.0
62855.19144426453,7.766747540103097,171250.0,151321.0,18767.0
62855.20154406627,7.776847341847315,171210.0,151293.0,18741.0
62855.21164386802,7.786947143591533,171235.0,151331.0,18768.0
62855.221743669754,7.797046945328475,171206.0,151298.0,18732.0
62855.2318434715,7.807146747072693,171215.0,151276.0,18757.0
62855.24194327324,7.817246548816911,171216.0,151288.0,18741.0
62855.25204307499,7.827346350561129,171250.0,151338.0,18740.0
62855.26214287673,7.837446152305347,171237.0,151306.0,18754.0
62855.27224267847,7.847545954042289,171237.0,151338.0,18753.0
62855.28234248021,7.857645755786507,171228.0,151335.0,18783.0
62855.292442281956,7.867745557530725,171247.0,151276.0,18786.0
62855.3025420837,7.877845359274943,171226.0,151310.0,18769.0
62855.312641885444,7.887945161019161,171231.0,151289.0,18757.0
62855.32274168718,7.898044962756103,171240.0,151335.0,18780.0
62855.332841488926,7.908144764500321,171242.0,151335.0,18787.0
62855.34294129067,7.918244566244539,171228.0,151306.0,18768.0
62855.353041092414,7.928344367988757,171216.0,151270.0,18759.0
62855.36314089415,7.938444169725699,171230.0,151277.0,18756.0
62855.373240695895,7.948543971469917,171227.0,151263.0,18765.0
62855.38334049764,7.958643773214135,171243.0,151312.0,18775.0
62855.393440299384,7.968743574958353,171267.0,151303.0,18788.0
62855.40354010113,7.978843376702571,171263.0,151337.0,18791.0
62855.413639902865,7.988943178439513,171274.0,151333.0,18797.0
62855.42373970461,7.999042980183731,171249.0,151309.0,18775.0
62855.43383950635,8.009142781927949,171250.0,151327.0,18753.0
62855.4439393081,8.019242583672167,171245.0,151281.0,18778.0
62855.45403910984,8.029342385416385,171231.0,151315.0,18781.0
62855.46413891158,8.039442187153327,171234.0,151298.0,18768.0
62855.47423871332,8.049541988897545,171211.0,151303.0,18793.0
62855.48433851507,8.059641790641763,171254.0,151355.0,18796.0
62855.49443831681,8.06974159238598,171245.0,151280.0,18778.0
62855.50453811855,8.079841394122923,171261.0,151321.0,18793.0
62855.51463792029,8.08994119586714,171243.0,151293.0,18785.0
62855.52473772204,8.100040997611359,171285.0,151347.0,18798.0
62855.53483752378,8.110140799355577,171272.0,151325.0,18801.0
62855.544937325525,8.120240601099795,171238.0,151332.0,18779.0
62855.55503712726,8.130340402836737,171261.0,151292.0,18794.0
62855.565136929006,8.140440204580955,171236.0,151315.0,18783.0
62855.57523673075,8.150540006325173,171264.0,151296.0,18783.0
62855.585336532495,8.16063980806939,171271.0,151311.0,18808.0
62855.59543633424,8.170739609813609,171254.0,151307.0,18784.0
62855.605536135976,8.18083941155055,171225.0,151332.0,18780.0
62855.61563593772,8.190939213294769,171241.0,151313.0,18797.0
62855.625735739464,8.201039015038987,171164.0,151273.0,18741.0
62855.63583554121,8.211138816783205,171180.0,151267.0,18768.0
62855.645935342945,8.221238618520147,171153.0,151247.0,18760.0
62855.65603514469,8.231338420264365,171168.0,151279.0,18757.0
62855.666134946434,8.241438222008583,171133.0,151249.0,18731.0
62855.67623474818,8.2515380237528,171144.0,151263.0,18740.0
62855.68633454992,8.261637825497019,171179.0,151260.0,18763.0
62855.69643435166,8.27173762723396,171151.0,151254.0,18717.0
62855.7065341534,8.281837428978179,171186.0,151254.0,18750.0
62855.71663395515,8.291937230722397,171167.0,151272.0,18744.0
62855.72673375689,8.302037032466615,171158.0,151278.0,18753.0
62855.736833558636,8.312136834210833,171185.0,151248.0,18743.0
62855.74693336037,8.322236635947775,171171.0,151302.0,18757.0
62855.75703316212,8.332336437691993,171195.0,151271.0,18735.0
62855.76713296386,8.34243623943621,171170.0,151278.0,18725.0
62855.777232765606,8.352536041180429,171203.0,151262.0,18774.0
62855.78733256734,8.36263584291737,171173.0,151265.0,18764.0
62855.79743236909,8.372735644661589,171207.0,151291.0,18755.0
62855.80753217083,8.382835446405807,171206.0,151329.0,18762.0
62855.817631972575,8.392935248150025,171221.0,151317.0,18787.0
62855.82773177432,8.403035049894243,171199.0,151284.0,18751.0
62855.83783157606,8.413134851631185,171213.0,151305.0,18750.0
62855.8479313778,8.423234653375403,171217.0,151327.0,18782.0
62855.858031179545,8.43333445511962,171203.0,151294.0,18765.0
62855.86813098129,8.443434256863839,171208.0,151298.0,18760.0
62855.87823078303,8.453534058608057,171227.0,151299.0,18771.0
62855.88833058477,8.463633860344999,171249.0,151280.0,18731.0
62855.898430386515,8.473733662089217,171202.0,151307.0,18755.0
62855.90853018826,8.483833463833435,171232.0,151304.0,18794.0
62855.91862999,8.493933265577652,171216.0,151300.0,18768.0
62855.92872979174,8.504033067314595,171191.0,151295.0,18750.0
62855.938829593484,8.514132869058813,171210.0,151271.0,18753.0
62855.94892939523,8.52423267080303,171234.0,151299.0,18772.0
62855.95902919697,8.534332472547248,171231.0,151322.0,18764.0
62855.96912899872,8.544432274291466,171225.0,151297.0,18743.0
62855.979228800454,8.554532076028408,171256.0,151313.0,18779.0
62855.9893286022,8.564631877772626,171204.0,151292.0,18761.0
62855.99942840394,8.574731679516844,171236.0,151313.0,18769.0
62856.00952820569,8.584831481261062,171213.0,151336.0,18762.0
62856.01962800743,8.59493128300528,171206.0,151307.0,18732.0
62856.02972780917,8.605031084742222,171221.0,151311.0,18757.0
62856.03982761091,8.61513088648644,171221.0,151313.0,18777.0
62856.049927412656,8.625230688230658,171228.0,151323.0,18776.0
62856.0600272144,8.635330489974876,171241.0,151325.0,18797.0
62856.07012701614,8.645430291711818,171210.0,151316.0,18774.0
62856.08022681788,8.655530093456036,171226.0,151323.0,18761.0
62856.090326619626,8.665629895200254,171231.0,151306.0,18783.0
62856.10042642137,8.675729696944472,171254.0,151337.0,18776.0
62856.110526223114,8.68582949868869,171249.0,151330.0,18799.0
62856.12062602485,8.695929300425632,171219.0,151299.0,18754.0
62856.130725826595,8.70602910216985,171252.0,151318.0,18775.0
62856.14082562834,8.716128903914068,171251.0,151346.0,18789.0
62856.15092543008,8.726228705658286,171260.0,151333.0,18762.0
62856.16102523183,8.736328507402504,171314.0,151350.0,18770.0
62856.171125033565,8.746428309139446,171286.0,151337.0,18792.0
62856.18122483531,8.756528110883664,171278.0,151341.0,18815.0
62856.19132463705,8.766627912627882,171269.0,151322.0,18781.0
62856.2014244388,8.7767277143721,171307.0,151364.0,18810.0
62856.211524240534,8.786827516109042,171301.0,151354.0,18787.0
62856.22162404228,8.79692731785326,171306.0,151330.0,18795.0
62856.23172384402,8.807027119597478,171313.0,151348.0,18775.0
62856.24182364577,8.817126921341696,171292.0,151349.0,18820.0
62856.25192344751,8.827226723085914,171311.0,151352.0,18805.0
62856.26202324925,8.837326524822856,171344.0,151367.0,18819.0
62856.27212305099,8.847426326567074,171344.0,151393.0,18827.0
62856.28222285274,8.857526128311292,171325.0,151361.0,18804.0
62856.29232265448,8.86762593005551,171299.0,151342.0,18787.0
62856.302422456225,8.877725731799728,171315.0,151358.0,18791.0
62856.31252225796,8.88782553353667,171330.0,151381.0,18818.0
62856.322622059706,8.897925335280888,171305.0,151333.0,18788.0
62856.33272186145,8.908025137025106,171352.0,151377.0,18801.0
62856.342821663195,8.918124938769324,171327.0,151383.0,18794.0
62856.35292146493,8.928224740506266,171369.0,151383.0,18830.0
62856.363021266676,8.938324542250484,171359.0,151385.0,18793.0
62856.37312106842,8.948424343994702,171359.0,151390.0,18811.0
62856.383220870164,8.95852414573892,171342.0,151368.0,18822.0
62856.39332067191,8.968623947483138,171356.0,151381.0,18801.0
62856.403420473645,8.97872374922008,171361.0,151356.0,18803.0
62856.41352027539,8.988823550964298,171330.0,151359.0,18796.0
62856.423620077134,8.998923352708516,171328.0,151339.0,18776.0
62856.43371987888,9.009023154452734,171319.0,151340.0,18771.0
62856.443819680615,9.019122956189676,171252.0,151314.0,18790.0
62856.45391948236,9.029222757933894,171252.0,151310.0,18769.0
62856.4640192841,9.039322559678112,171243.0,151297.0,18758.0
62856.47411908585,9.04942236142233,171256.0,151330.0,18780.0
62856.48421888759,9.059522163166548,171227.0,151281.0,18744.0
62856.49431868933,9.06962196490349,171261.0,151314.0,18757.0
62856.50441849107,9.079721766647708,171236.0,151306.0,18769.0
62856.51451829282,9.089821568391926,171284.0,151325.0,18783.0
62856.52461809456,9.099921370136144,171296.0,151345.0,18753.0
62856.534717896306,9.110021171880362,171279.0,151345.0,18766.0
62856.54481769804,9.120120973617304,171303.0,151366.0,18768.0
62856.55491749979,9.130220775361522,171266.0,151324.0,18744.0
62856.56501730153,9.14032057710574,171317.0,151360.0,18760.0
62856.575117103275,9.150420378849958,171304.0,151350.0,18757.0
62856.58521690501,9.1605201805869,171283.0,151332.0,18790.0
62856.59531670676,9.170619982331118,171315.0,151351.0,18771.0
62856.6054165085,9.180719784075336,171308.0,151338.0,18773.0
62856.615516310245,9.190819585819554,171313.0,151373.0,18772.0
62856.62561611199,9.200919387563772,171337.0,151356.0,18790.0
62856.635715913726,9.211019189300714,171353.0,151397.0,18770.0
62856.64581571547,9.221118991044932,171344.0,151357.0,18766.0
62856.655915517214,9.23121879278915,171335.0,151378.0,18785.0
62856.66601531896,9.241318594533368,171343.0,151388.0,18786.0
62856.6761151207,9.251418396277586,171368.0,151369.0,18804.0
62856.68621492244,9.261518198014528,171360.0,151358.0,18789.0
62856.696314724184,9.271617999758746,171352.0,151410.0,18787.0
62856.70641452593,9.281717801502964,171344.0,151374.0,18787.0
62856.71651432767,9.291817603247182,171329.0,151348.0,18784.0
62856.72661412941,9.301917404984124,171348.0,151388.0,18792.0
62856.736713931154,9.312017206728342,171346.0,151371.0,18802.0
62856.7468137329,9.32211700847256,171332.0,151368.0,18788.0
62856.75691353464,9.332216810216778,171287.0,151352.0,18766.0
62856.767013336386,9.342316611960996,171355.0,151371.0,18790.0
62856.77711313812,9.352416413697938,171312.0,151348.0,18769.0
62856.78721293987,9.362516215442156,171328.0,151364.0,18788.0
62856.79731274161,9.372616017186374,171353.0,151363.0,18809.0
62856.807412543356,9.382715818930592,171305.0,151338.0,18760.0
62856.8175123451,9.39281562067481,171293.0,151345.0,18769.0
62856.82761214684,9.402915422411752,171372.0,151352.0,18784.0
62856.83771194858,9.41301522415597,171359.0,151377.0,18797.0
62856.847811750325,9.423115025900188,171340.0,151345.0,18781.0
62856.85791155207,9.433214827644406,171361.0,151393.0,18794.0
62856.86801135381,9.443314629381348,171358.0,151380.0,18800.0
62856.87811115555,9.453414431125566,171352.0,151342.0,18804.0
62856.888210957295,9.463514232869784,171385.0,151364.0,18781.0
62856.89831075904,9.473614034614002,171388.0,151395.0,18811.0
62856.90841056078,9.48371383635822,171346.0,151375.0,18799.0
62856.91851036252,9.493813638095162,171332.0,151366.0,18790.0
62856.928610164265,9.50391343983938,171364.0,151410.0,18825.0
62856.93870996601,9.514013241583598,171335.0,151354.0,18792.0
62856.94880976775,9.524113043327816,171353.0,151376.0,18807.0
62856.9589095695,9.534212845072034,171337.0,151363.0,18795.0
62856.969009371234,9.544312646808976,171334.0,151358.0,18821.0
62856.97910917298,9.554412448553194,171327.0,151365.0,18795.0
62856.98920897472,9.564512250297412,171352.0,151362.0,18798.0
62856.99930877647,9.57461205204163,171385.0,151355.0,18821.0
62857.009408578204,9.584711853778572,171316.0,151329.0,18792.0
62857.01950837995,9.59481165552279,171345.0,151331.0,18792.0
62857.02960818169,9.604911457267008,171337.0,151375.0,18799.0
62857.03970798344,9.615011259011226,171359.0,151390.0,18818.0
62857.04980778518,9.625111060755444,171334.0,151349.0,18793.0
62857.05990758692,9.635210862492386,171364.0,151377.0,18819.0
62857.07000738866,9.645310664236604,171362.0,151371.0,18813.0
62857.080107190406,9.655410465980822,171352.0,151350.0,18814.0
62857.09020699215,9.66551026772504,171395.0,151376.0,18840.0
62857.100306793895,9.675610069469258,171348.0,151363.0,18820.0
62857.11040659563,9.6857098712062,171359.0,151381.0,18826.0
62857.120506397376,9.695809672950418,171361.0,151389.0,18812.0
62857.13060619912,9.705909474694636,171386.0,151394.0,18834.0
62857.140706000864,9.716009276438854,171347.0,151342.0,18815.0
62857.1508058026,9.726109078175796,171357.0,151371.0,18811.0
62857.160905604345,9.736208879920014,171342.0,151339.0,18818.0
62857.17100540609,9.746308681664232,171316.0,151331.0,18811.0
62857.181105207834,9.75640848340845,171347.0,151384.0,18827.0
62857.19120500958,9.766508285152668,171367.0,151377.0,18825.0
62857.201304811315,9.77660808688961,171354.0,151339.0,18819.0
62857.21140461306,9.786707888633828,171341.0,151353.0,18805.0
62857.2215044148,9.796807690378046,171348.0,151343.0,18800.0
62857.23160421655,9.806907492122264,171320.0,151360.0,18834.0
62857.24170401829,9.817007293866482,171306.0,151324.0,18796.0
62857.25180382003,9.827107095603424,171259.0,151294.0,18783.0
62857.26190362177,9.837206897347642,171277.0,151308.0,18798.0
62857.27200342352,9.84730669909186,171250.0,151298.0,18746.0
62857.28210322526,9.857406500836078,171240.0,151283.0,18771.0
62857.292203027,9.86750630257302,171210.0,151256.0,18759.0
62857.30230282874,9.877606104317238,171202.0,151260.0,18754.0
62857.31240263049,9.887705906061456,171218.0,151297.0,18767.0
62857.32250243223,9.897805707805674,171250.0,151310.0,18769.0
62857.332602233975,9.907905509549892,171275.0,151300.0,18777.0
62857.34270203571,9.918005311286834,171250.0,151295.0,18767.0
62857.352801837456,9.928105113031052,171282.0,151319.0,18784.0
62857.3629016392,9.93820491477527,171285.0,151316.0,18773.0
62857.373001440945,9.948304716519488,171251.0,151331.0,18780.0
62857.38310124269,9.958404518263706,171255.0,151318.0,18747.0
62857.393201044426,9.968504320000648,171276.0,151328.0,18773.0
62857.40330084617,9.978604121744866,171281.0,151327.0,18784.0
62857.413400647914,9.988703923489084,171275.0,151288.0,18787.0
62857.42350044966,9.998803725233302,171313.0,151345.0,18766.0
62857.433600251396,10.008903526970244,171281.0,151320.0,18770.0
62857.44370005314,10.019003328714462,171318.0,151339.0,18794.0
62857.453799854884,10.02910313045868,171309.0,151334.0,18779.0
62857.46389965663,10.039202932202898,171344.0,151358.0,18820.0
62857.47399945837,10.049302733947115,171284.0,151307.0,18786.0
62857.48409926011,10.059402535684058,171317.0,151335.0,18790.0
62857.49419906185,10.069502337428275,171322.0,151303.0,18779.0
62857.5042988636,10.079602139172493,171287.0,151312.0,18791.0
62857.51439866534,10.089701940916711,171343.0,151360.0,18807.0
62857.524498467086,10.09980174266093,171319.0,151332.0,18782.0
62857.53459826882,10.109901544397871,171327.0,151335.0,18806.0
62857.54469807057,10.12000134614209,171293.0,151304.0,18796.0
62857.55479787231,10.130101147886307,171341.0,151344.0,18791.0
62857.564897674056,10.140200949630525,171310.0,151341.0,18793.0
62857.57499747579,10.150300751367467,171286.0,151346.0,18792.0
62857.58509727754,10.160400553111685,171297.0,151348.0,18789.0
62857.59519707928,10.170500354855903,171308.0,151329.0,18781.0
62857.605296881025,10.180600156600121,171328.0,151344.0,18797.0
62857.61539668277,10.19069995834434,171338.0,151380.0,18770.0
62857.62549648451,10.200799760081281,171309.0,151363.0,18802.0
62857.63559628625,10.2108995618255,171296.0,151305.0,18782.0
62857.645696087995,10.220999363569717,171315.0,151337.0,18777.0
62857.65579588974,10.231099165313935,171291.0,151334.0,18811.0
62857.66589569148,10.241198967058153,171325.0,151372.0,18803.0
62857.67599549322,10.251298768795095,171284.0,151329.0,18793.0
62857.686095294965,10.261398570539313,171330.0,151357.0,18795.0
62857.69619509671,10.271498372283531,171322.0,151334.0,18797.0
62857.70629489845,10.28159817402775,171318.0,151340.0,18794.0
62857.71639470019,10.291697975764691,171362.0,151390.0,18830.0
62857.726494501934,10.30179777750891,171365.0,151362.0,18825.0
62857.73659430368,10.311897579253127,171345.0,151354.0,18811.0
62857.74669410542,10.321997380997345,171341.0,151348.0,18818.0
62857.75679390717,10.332097182741563,171398.0,151381.0,18817.0
62857.766893708904,10.342196984478505,171311.0,151341.0,18784.0
62857.77699351065,10.352296786222723,171363.0,151367.0,18810.0
62857.78709331239,10.362396587966941,171369.0,151376.0,18815.0
62857.79719311414,10.37249638971116,171367.0,151371.0,18835.0
62857.80729291588,10.382596191455377,171350.0,151369.0,18807.0
62857.81739271762,10.39269599319232,171346.0,151364.0,18818.0
62857.82749251936,10.402795794936537,171333.0,151373.0,18842.0
62857.837592321106,10.412895596680755,171327.0,151331.0,18810.0
62857.84769212285,10.422995398424973,171304.0,151371.0,18806.0
62857.85779192459,10.433095200161915,171361.0,151358.0,18819.0
62857.86789172633,10.443195001906133,171372.0,151342.0,18845.0
62857.877991528076,10.453294803650351,171323.0,151344.0,18796.0
62857.88809132982,10.46339460539457,171358.0,151366.0,18830.0
62857.898191131564,10.473494407138787,171355.0,151370.0,18817.0
62857.9082909333,10.48359420887573,171370.0,151376.0,18814.0
62857.918390735045,10.493694010619947,171345.0,151379.0,18823.0
62857.92849053679,10.503793812364165,171349.0,151348.0,18807.0
62857.938590338534,10.513893614108383,171388.0,151361.0,18822.0
62857.94869014028,10.523993415852601,171386.0,151381.0,18808.0
62857.958789942015,10.534093217589543,171405.0,151392.0,18851.0
62857.96888974376,10.544193019333761,171367.0,151366.0,18846.0
62857.9789895455,10.55429282107798,171376.0,151362.0,18836.0
62857.98908934725,10.564392622822197,171353.0,151359.0,18842.0
62857.999189148984,10.57449242455914,171367.0,151355.0,18814.0
62858.00928895073,10.584592226303357,171370.0,151358.0,18812.0
62858.01938875247,10.594692028047575,171366.0,151355.0,18827.0
62858.02948855422,10.604791829791793,171293.0,151318.0,18825.0
62858.03958835596,10.614891631536011,171285.0,151294.0,18793.0
62858.0496881577,10.624991433272953,171271.0,151322.0,18795.0
62858.05978795944,10.635091235017171,171270.0,151305.0,18787.0
62858.06988776119,10.64519103676139,171283.0,151289.0,18795.0
62858.07998756293,10.655290838505607,171266.0,151261.0,18782.0
62858.090087364675,10.665390640249825,171267.0,151288.0,18802.0
62858.10018716641,10.675490441986767,171255.0,151291.0,18788.0
62858.110286968156,10.685590243730985,171278.0,151312.0,18762.0
62858.1203867699,10.695690045475203,171302.0,151336.0,18787.0
62858.130486571645,10.705789847219421,171279.0,151310.0,18758.0
62858.14058637338,10.715889648956363,171300.0,151325.0,18779.0
62858.150686175126,10.725989450700581,171284.0,151302.0,18771.0
62858.16078597687,10.736089252444799,171301.0,151330.0,18795.0
62858.170885778614,10.746189054189017,171274.0,151307.0,18759.0
62858.18098558036,10.756288855933235,171314.0,151330.0,18759.0
62858.191085382095,10.766388657670177,171288.0,151335.0,18777.0
62858.20118518384,10.776488459414395,171301.0,151317.0,18777.0
62858.211284985584,10.786588261158613,171357.0,151357.0,18768.0
62858.22138478733,10.796688062902831,171335.0,151345.0,18779.0
62858.23148458907,10.806787864647049,171339.0,151348.0,18809.0
62858.24158439081,10.816887666383991,171342.0,151343.0,18790.0
62858.25168419255,10.826987468128209,171331.0,151379.0,18814.0
62858.2617839943,10.837087269872427,171376.0,151353.0,18818.0
62858.27188379604,10.847187071616645,171368.0,151375.0,18794.0
62858.28198359778,10.857286873353587,171385.0,151398.0,18779.0
62858.29208339952,10.867386675097805,171404.0,151381.0,18822.0
62858.30218320127,10.877486476842023,171326.0,151317.0,18774.0
62858.31228300301,10.887586278586241,171346.0,151364.0,18804.0
62858.322382804756,10.897686080330459,171372.0,151360.0,18804.0
62858.33248260649,10.907785882067401,171377.0,151363.0,18801.0
62858.34258240824,10.917885683811619,171371.0,151364.0,18816.0
62858.35268220998,10.927985485555837,171371.0,151360.0,18802.0
62858.362782011725,10.938085287300055,171358.0,151334.0,18823.0
62858.37288181347,10.948185089044273,171342.0,151343.0,18783.0
62858.38298161521,10.958284890781215,171361.0,151404.0,18818.0
62858.39308141695,10.968384692525433,171378.0,151380.0,18805.0
62858.403181218695,10.978484494269651,171340.0,151343.0,18805.0
62858.41328102044,10.988584296013869,171392.0,151390.0,18797.0
62858.423380822176,10.998684097750811,171396.0,151370.0,18820.0
62858.43348062392,11.008783899495029,171350.0,151362.0,18814.0
62858.443580425665,11.018883701239247,171374.0,151365.0,18804.0
62858.45368022741,11.028983502983465,171342.0,151368.0,18803.0
62858.46378002915,11.039083304727683,171387.0,151380.0,18812.0
62858.47387983089,11.049183106464625,171374.0,151372.0,18806.0
62858.483979632634,11.059282908208843,171367.0,151353.0,18796.0
62858.49407943438,11.06938270995306,171364.0,151333.0,18800.0
62858.50417923612,11.079482511697279,171351.0,151370.0,18815.0
62858.51427903787,11.089582313441497,171367.0,151374.0,18808.0
62858.524378839604,11.099682115178439,171376.0,151338.0,18815.0
62858.53447864135,11.109781916922657,171358.0,151337.0,18814.0
62858.54457844309,11.119881718666875,171379.0,151357.0,18789.0
62858.55467824484,11.129981520411093,171388.0,151377.0,18807.0
62858.56477804657,11.140081322148035,171354.0,151329.0,18842.0
62858.57487784832,11.150181123892253,171371.0,151355.0,18820.0
62858.58497765006,11.16028092563647,171402.0,151390.0,18839.0
62858.595077451806,11.170380727380689,171389.0,151378.0,18819.0
62858.60517725355,11.180480529124907,171359.0,151364.0,18810.0
62858.61527705529,11.190580330861849,171391.0,151383.0,18833.0
62858.62537685703,11.200680132606067,171395.0,151381.0,18851.0
62858.635476658776,11.210779934350285,171388.0,151357.0,18822.0
62858.64557646052,11.220879736094503,171400.0,151377.0,18831.0
62858.655676262264,11.23097953783872,171349.0,151374.0,18832.0
62858.665776064,11.241079339575663,171396.0,151343.0,18840.0
62858.675875865745,11.25117914131988,171382.0,151362.0,18823.0
62858.68597566749,11.261278943064099,171359.0,151370.0,18826.0
62858.69607546923,11.271378744808317,171394.0,151362.0,18848.0
62858.70617527097,11.281478546545259,171365.0,151341.0,18821.0
62858.716275072715,11.291578348289477,171399.0,151375.0,18830.0
62858.72637487446,11.301678150033695,171383.0,151359.0,18807.0
62858.7364746762,11.311777951777913,171387.0,151366.0,18845.0
62858.74657447795,11.32187775352213,171432.0,151400.0,18824.0
62858.756674279684,11.331977555259073,171419.0,151385.0,18845.0
62858.76677408143,11.34207735700329,171426.0,151402.0,18830.0
62858.77687388317,11.352177158747509,171392.0,151389.0,18817.0
62858.78697368492,11.362276960491727,171392.0,151411.0,18839.0
62858.79707348666,11.372376762235945,171410.0,151387.0,18811.0
62858.8071732884,11.382476563972887,171407.0,151391.0,18827.0
62858.81727309014,11.392576365717105,171385.0,151350.0,18810.0
62858.82737289189,11.402676167461323,171389.0,151376.0,18841.0
62858.83747269363,11.41277596920554,171340.0,151318.0,18806.0
62858.84757249537,11.422875770942483,171330.0,151298.0,18796.0
62858.85767229711,11.4329755726867,171288.0,151322.0,18801.0
62858.867772098856,11.443075374430919,171311.0,151306.0,18799.0
62858.8778719006,11.453175176175137,171316.0,151313.0,18768.0
62858.887971702345,11.463274977919355,171315.0,151329.0,18781.0
62858.89807150408,11.473374779656297,171313.0,151351.0,18791.0
62858.908171305826,11.483474581400515,171309.0,151324.0,18776.0
62858.91827110757,11.493574383144733,171309.0,151318.0,18777.0
62858.928370909314,11.50367418488895,171335.0,151326.0,18775.0
62858.93847071106,11.513773986633169,171322.0,151322.0,18768.0
62858.948570512795,11.52387378837011,171302.0,151321.0,18774.0
62858.95867031454,11.533973590114329,171336.0,151353.0,18810.0
62858.968770116284,11.544073391858547,171323.0,151327.0,18788.0
62858.97886991803,11.554173193602765,171323.0,151342.0,18779.0
62858.988969719765,11.564272995339707,171332.0,151365.0,18824.0
62858.99906952151,11.574372797083925,171321.0,151358.0,18782.0
62859.00916932325,11.584472598828143,171371.0,151359.0,18809.0
62859.019269125,11.59457240057236,171374.0,151379.0,18774.0
62859.02936892674,11.604672202316578,171376.0,151376.0,18833.0
62859.03946872848,11.61477200405352,171363.0,151355.0,18793.0
62859.04956853022,11.624871805797738,171378.0,151368.0,18805.0
62859.05966833197,11.634971607541956,171384.0,151373.0,18815.0
62859.06976813371,11.645071409286174,171352.0,151353.0,18800.0
62859.079867935456,11.655171211030392,171370.0,151364.0,18798.0
62859.08996773719,11.665271012767334,171360.0,151348.0,18800.0
62859.10006753894,11.675370814511552,171341.0,151347.0,18809.0
62859.11016734068,11.68547061625577,171319.0,151320.0,18794.0
62859.120267142425,11.695570417999988,171318.0,151355.0,18815.0
62859.13036694416,11.70567021973693,171353.0,151323.0,18806.0
62859.14046674591,11.715770021481148,171355.0,151333.0,18777.0
62859.15056654765,11.725869823225366,171332.0,151330.0,18794.0
62859.160666349395,11.735969624969584,171373.0,151374.0,18784.0
62859.17076615114,11.746069426713802,171362.0,151367.0,18806.0
62859.180865952876,11.756169228450744,171366.0,151350.0,18804.0
62859.19096575462,11.766269030194962,171394.0,151370.0,18828.0
62859.201065556364,11.77636883193918,171352.0,151325.0,18789.0
62859.21116535811,11.786468633683398,171369.0,151345.0,18806.0
62859.22126515985,11.796568435427616,171357.0,151366.0,18786.0
62859.23136496159,11.806668237164558,171320.0,151315.0,18784.0
62859.241464763334,11.816768038908776,171342.0,151337.0,18784.0
62859.25156456508,11.826867840652994,171338.0,151338.0,18805.0
62859.26166436682,11.836967642397212,171345.0,151326.0,18808.0
62859.27176416856,11.847067444134154,171329.0,151320.0,18784.0
62859.281863970304,11.857167245878372,171385.0,151389.0,18789.0
62859.29196377205,11.86726704762259,171359.0,151347.0,18789.0
62859.30206357379,11.877366849366808,171356.0,151359.0,18816.0
62859.312163375536,11.887466651111026,171375.0,151379.0,18809.0
62859.32226317727,11.897566452847968,171382.0,151365.0,18833.0
62859.33236297902,11.907666254592186,171378.0,151368.0,18786.0
62859.34246278076,11.917766056336404,171393.0,151359.0,18818.0
62859.352562582506,11.927865858080622,171375.0,151366.0,18806.0
62859.36266238425,11.93796565982484,171397.0,151360.0,18799.0
62859.37276218599,11.948065461561782,171372.0,151359.0,18809.0
62859.38286198773,11.958165263306,171397.0,151363.0,18827.0
62859.392961789476,11.968265065050218,171412.0,151354.0,18823.0
62859.40306159122,11.978364866794436,171372.0,151373.0,18812.0
62859.41316139296,11.988464668531378,171429.0,151402.0,18815.0
62859.4232611947,11.998564470275596,171419.0,151384.0,18825.0
62859.433360996445,12.008664272019814,171409.0,151345.0,18850.0
62859.44346079819,12.018764073764032,171434.0,151401.0,18827.0
62859.45356059993,12.02886387550825,171429.0,151390.0,18851.0
62859.46366040167,12.038963677245192,171433.0,151389.0,18830.0
62859.473760203415,12.04906347898941,171376.0,151371.0,18813.0
62859.48386000516,12.059163280733628,171457.0,151415.0,18829.0
62859.4939598069,12.069263082477846,171445.0,151373.0,18823.0
62859.50405960865,12.079362884222064,171421.0,151390.0,18828.0
62859.514159410384,12.089462685959006,171428.0,151379.0,18843.0
62859.52425921213,12.099562487703224,171445.0,151374.0,18848.0
62859.53435901387,12.109662289447442,171446.0,151369.0,18825.0
62859.54445881562,12.11976209119166,171450.0,151386.0,18835.0
62859.554558617354,12.129861892928602,171452.0,151434.0,18857.0
62859.5646584191,12.13996169467282,171419.0,151360.0,18823.0
62859.57475822084,12.150061496417038,171417.0,151395.0,18824.0
62859.58485802259,12.160161298161256,171411.0,151382.0,18821.0
62859.59495782433,12.170261099905474,171420.0,151368.0,18804.0
62859.60505762607,12.180360901642416,171391.0,151358.0,18805.0
62859.61515742781,12.190460703386634,171363.0,151347.0,18819.0
62859.625257229556,12.200560505130852,171374.0,151360.0,18798.0
62859.6353570313,12.21066030687507,171340.0,151321.0,18781.0
62859.645456833045,12.220760108619288,171393.0,151378.0,18802.0
62859.65555663478,12.23085991035623,171364.0,151334.0,18793.0
62859.665656436526,12.240959712100448,171380.0,151365.0,18783.0
62859.67575623827,12.251059513844666,171379.0,151346.0,18779.0
62859.685856040014,12.261159315588884,171421.0,151385.0,18799.0
62859.69595584175,12.271259117325826,171382.0,151341.0,18779.0
62859.706055643495,12.281358919070044,171390.0,151370.0,18793.0
62859.71615544524,12.291458720814262,171412.0,151363.0,18814.0
62859.726255246984,12.30155852255848,171413.0,151366.0,18821.0
62859.73635504873,12.311658324302698,171437.0,151359.0,18826.0
62859.746454850465,12.32175812603964,171422.0,151395.0,18812.0
62859.75655465221,12.331857927783858,171452.0,151431.0,18827.0
62859.76665445395,12.341957729528076,171430.0,151399.0,18791.0
62859.7767542557,12.352057531272294,171460.0,151419.0,18833.0
62859.78685405744,12.362157333016512,171449.0,151401.0,18819.0
62859.79695385918,12.372257134753454,171445.0,151370.0,18798.0
62859.80705366092,12.382356936497672,171441.0,151383.0,18816.0
62859.81715346267,12.39245673824189,171475.0,151403.0,18829.0
62859.82725326441,12.402556539986108,171447.0,151396.0,18801.0
62859.83735306615,12.41265634172305,171428.0,151347.0,18827.0
62859.84745286789,12.422756143467268,171434.0,151390.0,18820.0
62859.85755266964,12.432855945211486,171397.0,151360.0,18804.0
62859.86765247138,12.442955746955704,171428.0,151365.0,18815.0
62859.877752273125,12.453055548699922,171410.0,151361.0,18814.0
62859.88785207486,12.463155350436864,171439.0,151394.0,18828.0
62859.89795187661,12.473255152181082,171406.0,151369.0,18797.0
62859.90805167835,12.4833549539253,171441.0,151370.0,18833.0
62859.918151480095,12.493454755669518,171415.0,151400.0,18815.0
62859.92825128184,12.503554557413736,171407.0,151345.0,18810.0
62859.938351083576,12.513654359150678,171445.0,151393.0,18841.0
62859.94845088532,12.523754160894896,171387.0,151347.0,18813.0
62859.958550687064,12.533853962639114,171391.0,151372.0,18808.0
62859.96865048881,12.543953764383332,171390.0,151355.0,18814.0
62859.978750290546,12.554053566120274,171420.0,151392.0,18813.0
62859.98885009229,12.564153367864492,171398.0,151336.0,18809.0
62859.998949894034,12.57425316960871,171406.0,151347.0,18812.0
62860.00904969578,12.584352971352928,171405.0,151348.0,18809.0
62860.01914949752,12.594452773097146,171420.0,151371.0,18827.0
62860.02924929926,12.604552574834088,171377.0,151360.0,18797.0
62860.039349101,12.614652376578306,171427.0,151379.0,18830.0
62860.04944890275,12.624752178322524,171432.0,151380.0,18839.0
62860.05954870449,12.634851980066742,171394.0,151347.0,18810.0
62860.069648506236,12.64495178181096,171442.0,151385.0,18813.0
62860.07974830797,12.655051583547902,171427.0,151381.0,18829.0
62860.08984810972,12.66515138529212,171433.0,151391.0,18846.0
62860.09994791146,12.675251187036338,171397.0,151356.0,18797.0
62860.110047713206,12.685350988780556,171418.0,151386.0,18839.0
62860.12014751494,12.695450790517498,171404.0,151363.0,18818.0
62860.13024731669,12.705550592261716,171399.0,151338.0,18814.0
62860.14034711843,12.715650394005934,171423.0,151356.0,18819.0
62860.150446920175,12.725750195750152,171396.0,151334.0,18818.0
62860.16054672192,12.73584999749437,171413.0,151362.0,18825.0
62860.17064652366,12.745949799231312,171383.0,151378.0,18815.0
62860.1807463254,12.75604960097553,171427.0,151389.0,18851.0
62860.190846127145,12.766149402719748,171399.0,151333.0,18834.0
62860.20094592889,12.776249204463966,171406.0,151356.0,18830.0
62860.21104573063,12.786349006208184,171406.0,151333.0,18823.0
62860.22114553237,12.796448807945126,171401.0,151356.0,18850.0
62860.231245334115,12.806548609689344,171388.0,151365.0,18810.0
62860.24134513586,12.816648411433562,171421.0,151360.0,18833.0
62860.2514449376,12.82674821317778,171407.0,151355.0,18818.0
62860.26154473934,12.836848014914722,171414.0,151326.0,18820.0
62860.271644541084,12.84694781665894,171399.0,151356.0,18838.0
62860.28174434283,12.857047618403158,171383.0,151343.0,18822.0
62860.29184414457,12.867147420147376,171348.0,151320.0,18825.0
62860.30194394632,12.877247221891594,171341.0,151324.0,18806.0
62860.312043748054,12.887347023628536,171355.0,151309.0,18833.0
62860.3221435498,12.897446825372754,171336.0,151291.0,18793.0
62860.33224335154,12.907546627116972,171285.0,151254.0,18785.0
62860.34234315329,12.91764642886119,171329.0,151286.0,18784.0
62860.35244295503,12.927746230605408,171289.0,151267.0,18773.0
62860.36254275677,12.93784603234235,171309.0,151288.0,18768.0
62860.37264255851,12.947945834086568,171302.0,151330.0,18775.0
62860.382742360256,12.958045635830786,171278.0,151299.0,18789.0
62860.392842162,12.968145437575004,171285.0,151283.0,18765.0
62860.40294196374,12.978245239311946,171305.0,151297.0,18779.0
62860.41304176548,12.988345041056164,171297.0,151289.0,18778.0
62860.423141567226,12.998444842800382,171287.0,151294.0,18779.0
62860.43324136897,13.0085446445446,171300.0,151300.0,18787.0
62860.443341170714,13.018644446288818,171347.0,151305.0,18834.0
62860.45344097245,13.02874424802576,171310.0,151325.0,18790.0
62860.463540774195,13.038844049769978,171324.0,151302.0,18777.0
62860.47364057594,13.048943851514196,171348.0,151328.0,18828.0
62860.483740377684,13.059043653258414,171313.0,151314.0,18808.0
62860.49384017943,13.069143455002632,171332.0,151313.0,18799.0
62860.503939981165,13.079243256739574,171301.0,151313.0,18785.0
62860.51403978291,13.089343058483792,171347.0,151332.0,18823.0
62860.52413958465,13.09944286022801,171305.0,151278.0,18790.0
62860.5342393864,13.109542661972228,171323.0,151289.0,18796.0
62860.544339188134,13.11964246370917,171322.0,151309.0,18794.0
62860.55443898988,13.129742265453388,171300.0,151273.0,18784.0
62860.56453879162,13.139842067197606,171276.0,151294.0,18806.0
62860.57463859337,13.149941868941823,171325.0,151304.0,18823.0
62860.58473839511,13.160041670686041,171301.0,151288.0,18771.0
62860.59483819685,13.170141472422983,171273.0,151270.0,18802.0
62860.60493799859,13.180241274167201,171314.0,151291.0,18797.0
62860.61503780034,13.19034107591142,171296.0,151277.0,18782.0
62860.62513760208,13.200440877655637,171274.0,151265.0,18792.0
62860.635237403825,13.210540679399855,171247.0,151288.0,18771.0
62860.64533720556,13.220640481136797,171295.0,151273.0,18819.0
62860.655437007306,13.230740282881015,171275.0,151282.0,18798.0
62860.66553680905,13.240840084625233,171293.0,151290.0,18770.0
62860.675636610795,13.250939886369451,171278.0,151284.0,18810.0
62860.68573641253,13.261039688106393,171278.0,151261.0,18785.0
62860.695836214276,13.271139489850611,171289.0,151288.0,18792.0
62860.70593601602,13.28123929159483,171284.0,151325.0,18802.0
62860.716035817764,13.291339093339047,171311.0,151273.0,18801.0
62860.72613561951,13.301438895083265,171281.0,151273.0,18791.0
62860.736235421246,13.311538696820207,171291.0,151276.0,18785.0
62860.74633522299,13.321638498564425,171310.0,151309.0,18810.0
62860.756435024734,13.331738300308643,171281.0,151276.0,18791.0
62860.76653482648,13.341838102052861,171273.0,151291.0,18807.0
62860.77663462822,13.35193790379708,171289.0,151281.0,18805.0
62860.78673442996,13.362037705534021,171296.0,151267.0,18786.0
62860.7968342317,13.37213750727824,171280.0,151270.0,18791.0
62860.80693403345,13.382237309022457,171303.0,151298.0,18837.0
62860.81703383519,13.392337110766675,171282.0,151286.0,18805.0
62860.82713363693,13.402436912503617,171274.0,151267.0,18784.0
62860.83723343867,13.412536714247835,171267.0,151322.0,18814.0
62860.84733324042,13.422636515992053,171309.0,151266.0,18829.0
62860.85743304216,13.432736317736271,171286.0,151286.0,18805.0
62860.867532843906,13.44283611948049,171319.0,151285.0,18788.0
62860.87763264564,13.452935921217431,171306.0,151269.0,18807.0
62860.88773244739,13.46303572296165,171282.0,151250.0,18781.0
62860.89783224913,13.473135524705867,171297.0,151285.0,18795.0
62860.907932050875,13.483235326450085,171276.0,151307.0,18794.0
62860.91803185262,13.493335128194303,171306.0,151274.0,18796.0
62860.92813165436,13.503434929931245,171302.0,151268.0,18802.0
62860.9382314561,13.513534731675463,171281.0,151264.0,18820.0
62860.948331257845,13.523634533419681,171277.0,151264.0,18799.0
62860.95843105959,13.5337343351639,171250.0,151225.0,18779.0
62860.968530861326,13.543834136900841,171236.0,151260.0,18799.0
62860.97863066307,13.55393393864506,171185.0,151227.0,18772.0
62860.988730464815,13.564033740389277,171200.0,151190.0,18775.0
62860.99883026656,13.574133542133495,171177.0,151202.0,18760.0
62861.0089300683,13.584233343877713,171200.0,151215.0,18778.0
62861.01902987004,13.594333145614655,171148.0,151179.0,18740.0
62861.029129671784,13.604432947358873,171166.0,151206.0,18753.0
62861.03922947353,13.614532749103091,171168.0,151228.0,18755.0
62861.04932927527,13.62463255084731,171171.0,151207.0,18749.0
62861.05942907701,13.634732352584251,171206.0,151223.0,18770.0
62861.069528878754,13.64483215432847,171176.0,151214.0,18762.0
62861.0796286805,13.654931956072687,171166.0,151230.0,18768.0
62861.08972848224,13.665031757816905,171210.0,151243.0,18794.0
62861.09982828399,13.675131559561123,171165.0,151246.0,18759.0
62861.10992808572,13.685231361298065,171202.0,151239.0,18769.0
62861.12002788747,13.695331163042283,171184.0,151210.0,18744.0
62861.13012768921,13.705430964786501,171182.0,151216.0,18742.0
62861.140227490956,13.71553076653072,171195.0,151228.0,18785.0
62861.1503272927,13.725630568274937,171194.0,151236.0,18772.0
62861.16042709444,13.73573037001188,171182.0,151243.0,18747.0
62861.17052689618,13.745830171756097,171220.0,151263.0,18800.0
62861.180626697926,13.755929973500315,171174.0,151210.0,18768.0
62861.19072649967,13.766029775244533,171176.0,151216.0,18765.0
62861.20082630141,13.776129576981475,171186.0,151214.0,18758.0
62861.21092610315,13.786229378725693,171193.0,151233.0,18789.0
62861.221025904895,13.796329180469911,171153.0,151197.0,18759.0
62861.23112570664,13.806428982214129,171185.0,151221.0,18763.0
62861.241225508384,13.816528783958347,171175.0,151255.0,18796.0
62861.25132531012,13.826628585695289,171127.0,151200.0,18749.0
62861.261425111865,13.836728387439507,171194.0,151241.0,18751.0
62861.27152491361,13.846828189183725,171184.0,151207.0,18773.0
62861.28162471535,13.856927990927943,171158.0,151199.0,18809.0
62861.2917245171,13.867027792672161,171206.0,151234.0,18785.0
62861.301824318834,13.877127594409103,171183.0,151222.0,18791.0
62861.31192412058,13.887227396153321,171167.0,151189.0,18758.0
62861.32202392232,13.897327197897539,171171.0,151220.0,18768.0
62861.33212372407,13.907426999641757,171149.0,151196.0,18740.0
62861.342223525804,13.917526801378699,171142.0,151179.0,18761.0
62861.35232332755,13.927626603122917,171164.0,151205.0,18758.0
62861.36242312929,13.937726404867135,171129.0,151213.0,18784.0
62861.37252293104,13.947826206611353,171182.0,151209.0,18771.0
62861.38262273278,13.957926008355571,171150.0,151191.0,18761.0
62861.39272253452,13.968025810092513,171176.0,151218.0,18776.0
62861.40282233626,13.978125611836731,171171.0,151250.0,18783.0
62861.412922138006,13.988225413580949,171179.0,151204.0,18771.0
62861.42302193975,13.998325215325167,171208.0,151236.0,18782.0
62861.433121741495,14.008425017069385,171180.0,151225.0,18749.0
62861.44322154323,14.018524818806327,171181.0,151209.0,18805.0
62861.453321344976,14.028624620550545,171223.0,151241.0,18793.0
62861.46342114672,14.038724422294763,171194.0,151215.0,18783.0
62861.473520948464,14.048824224038981,171209.0,151240.0,18773.0
62861.4836207502,14.058924025775923,171214.0,151197.0,18788.0
62861.493720551945,14.069023827520141,171229.0,151256.0,18801.0
62861.50382035369,14.079123629264359,171216.0,151220.0,18792.0
62861.513920155434,14.089223431008577,171176.0,151240.0,18773.0
62861.52401995718,14.099323232752795,171197.0,151205.0,18790.0
62861.534119758915,14.109423034489737,171219.0,151253.0,18794.0
62861.54421956066,14.119522836233955,171194.0,151219.0,18766.0
62861.5543193624,14.129622637978173,171178.0,151198.0,18771.0
62861.56441916415,14.13972243972239,171194.0,151233.0,18792.0
62861.57451896589,14.149822241466609,171180.0,151224.0,18780.0
62861.58461876763,14.15992204320355,171226.0,151237.0,18813.0
62861.59471856937,14.170021844947769,171212.0,151237.0,18778.0
62861.60481837112,14.180121646691987,171184.0,151204.0,18771.0
62861.61491817286,14.190221448436205,171138.0,151188.0,18779.0
62861.6250179746,14.200321250173147,171131.0,151198.0,18768.0
62861.63511777634,14.210421051917365,171131.0,151195.0,18778.0
62861.64521757809,14.220520853661583,171098.0,151141.0,18745.0
62861.65531737983,14.2306206554058,171077.0,151135.0,18722.0
62861.665417181575,14.240720457150019,171076.0,151148.0,18746.0
62861.67551698331,14.25082025888696,171134.0,151171.0,18777.0
62861.68561678506,14.260920060631179,171114.0,151167.0,18736.0
62861.6957165868,14.271019862375397,171100.0,151162.0,18731.0
62861.705816388545,14.281119664119615,171132.0,151172.0,18754.0
62861.71591619029,14.291219465863833,171110.0,151199.0,18760.0
62861.726015992026,14.301319267600775,171127.0,151176.0,18737.0
62861.73611579377,14.311419069344993,171138.0,151229.0,18758.0
62861.746215595515,14.32151887108921,171135.0,151170.0,18763.0
62861.75631539726,14.331618672833429,171112.0,151164.0,18743.0
62861.766415198996,14.34171847457037,171128.0,151182.0,18746.0
62861.77651500074,14.351818276314589,171139.0,151209.0,18760.0
62861.786614802484,14.361918078058807,171119.0,151188.0,18745.0
62861.79671460423,14.372017879803025,171125.0,151174.0,18747.0
62861.80681440597,14.382117681547243,171165.0,151208.0,18764.0
62861.81691420771,14.392217483284185,171156.0,151218.0,18746.0
62861.827014009454,14.402317285028403,171164.0,151198.0,18770.0
62861.8371138112,14.41241708677262,171198.0,151258.0,18791.0
62861.84721361294,14.422516888516839,171192.0,151220.0,18766.0
62861.857313414686,14.432616690261057,171224.0,151215.0,18780.0
62861.86741321642,14.442716491997999,171179.0,151206.0,18762.0
62861.87751301817,14.452816293742217,171198.0,151235.0,18785.0
62861.88761281991,14.462916095486435,171172.0,151211.0,18768.0
62861.897712621656,14.473015897230653,171148.0,151191.0,18759.0
62861.90781242339,14.483115698967595,171149.0,151174.0,18760.0
62861.91791222514,14.493215500711813,171133.0,151229.0,18778.0
62861.92801202688,14.50331530245603,171171.0,151206.0,18763.0
62861.938111828626,14.513415104200249,171199.0,151256.0,18777.0
62861.94821163037,14.523514905944467,171202.0,151204.0,18781.0
62861.95831143211,14.533614707681409,171202.0,151238.0,18780.0
62861.96841123385,14.543714509425627,171193.0,151229.0,18756.0
62861.978511035595,14.553814311169845,171168.0,151227.0,18773.0
62861.98861083734,14.563914112914063,171190.0,151200.0,18782.0
62861.99871063908,14.57401391465828,171184.0,151206.0,18747.0
62862.00881044082,14.584113716395223,171188.0,151231.0,18745.0
62862.018910242565,14.59421351813944,171176.0,151233.0,18767.0
62862.02901004431,14.604313319883659,171159.0,151199.0,18766.0
62862.03910984605,14.614413121627877,171189.0,151196.0,18767.0
62862.04920964779,14.624512923364819,171148.0,151199.0,18739.0
62862.059309449534,14.634612725109037,171196.0,151210.0,18775.0
62862.06940925128,14.644712526853255,171180.0,151214.0,18744.0
62862.07950905302,14.654812328597473,171201.0,151235.0,18786.0
62862.08960885477,14.66491213034169,171154.0,151186.0,18771.0
62862.099708656504,14.675011932078633,171194.0,151218.0,18766.0
62862.10980845825,14.68511173382285,171180.0,151206.0,18762.0
62862.11990825999,14.695211535567068,171213.0,151202.0,18771.0
62862.13000806174,14.705311337311286,171179.0,151209.0,18758.0
62862.14010786348,14.715411139055504,171206.0,151227.0,18775.0
62862.15020766522,14.725510940792446,171210.0,151249.0,18794.0
62862.16030746696,14.735610742536664,171170.0,151224.0,18764.0
62862.170407268706,14.745710544280882,171198.0,151247.0,18789.0
62862.18050707045,14.7558103460251,171170.0,151196.0,18766.0
62862.19060687219,14.765910147762042,171197.0,151236.0,18773.0
62862.20070667393,14.77600994950626,171197.0,151244.0,18771.0
62862.210806475676,14.786109751250478,171216.0,151248.0,18801.0
62862.22090627742,14.796209552994696,171207.0,151222.0,18782.0
62862.231006079164,14.806309354738914,171200.0,151225.0,18759.0
62862.2411058809,14.816409156475856,171175.0,151186.0,18765.0
62862.251205682645,14.826508958220074,171161.0,151199.0,18760.0
62862.26130548439,14.836608759964292,171178.0,151191.0,18776.0
62862.271405286134,14.84670856170851,171145.0,151192.0,18750.0
62862.28150508788,14.856808363452728,171153.0,151179.0,18749.0
62862.291604889615,14.86690816518967,171106.0,151146.0,18737.0
62862.30170469136,14.877007966933888,171088.0,151156.0,18747.0
62862.3118044931,14.887107768678106,171076.0,151124.0,18724.0
62862.32190429485,14.897207570422324,171074.0,151151.0,18747.0
62862.332004096585,14.907307372159266,171080.0,151142.0,18711.0
62862.34210389833,14.917407173903484,171088.0,151143.0,18722.0
62862.35220370007,14.927506975647702,171079.0,151159.0,18724.0
62862.36230350182,14.93760677739192,171117.0,151188.0,18749.0
62862.37240330356,14.947706579136138,171138.0,151177.0,18746.0
62862.3825031053,14.95780638087308,171113.0,151180.0,18725.0
62862.39260290704,14.967906182617298,171105.0,151165.0,18717.0
62862.40270270879,14.978005984361516,171109.0,151197.0,18713.0
62862.41280251053,14.988105786105734,171105.0,151168.0,18713.0
62862.422902312275,14.998205587849952,171125.0,151183.0,18733.0
62862.43300211401,15.008305389586894,171135.0,151191.0,18733.0
62862.44310191576,15.018405191331112,171111.0,151158.0,18709.0
62862.4532017175,15.02850499307533,171109.0,151161.0,18712.0
62862.463301519245,15.038604794819548,171129.0,151171.0,18741.0
62862.47340132098,15.04870459655649,171163.0,151201.0,18726.0
62862.483501122726,15.058804398300708,171180.0,151213.0,18727.0
62862.49360092447,15.068904200044926,171151.0,151188.0,18740.0
62862.503700726214,15.079004001789144,171155.0,151195.0,18747.0
62862.51380052796,15.089103803533362,171147.0,151206.0,18766.0
62862.523900329696,15.099203605270304,171157.0,151173.0,18747.0
62862.53400013144,15.109303407014522,171165.0,151187.0,18731.0
62862.544099933184,15.11940320875874,171147.0,151174.0,18726.0
62862.55419973493,15.129503010502958,171123.0,151161.0,18766.0
62862.56429953667,15.139602812247176,171113.0,151188.0,18742.0
62862.57439933841,15.149702613984118,171148.0,151164.0,18748.0
62862.584499140154,15.159802415728336,171084.0,151153.0,18698.0
62862.5945989419,15.169902217472554,171167.0,151176.0,18749.0
62862.60469874364,15.180002019216772,171152.0,151217.0,18752.0
62862.61479854538,15.190101820953714,171130.0,151171.0,18740.0
62862.62489834712,15.200201622697932,171132.0,151196.0,18745.0
62862.63499814887,15.21030142444215,171151.0,151198.0,18756.0
62862.64509795061,15.220401226186368,171176.0,151225.0,18767.0
62862.655197752356,15.230501027930586,171137.0,151167.0,18741.0
62862.66529755409,15.240600829667528,171176.0,151228.0,18725.0
62862.67539735584,15.250700631411746,171146.0,151189.0,18749.0
62862.68549715758,15.260800433155964,171134.0,151177.0,18766.0
62862.695596959325,15.270900234900182,171161.0,151223.0,18753.0
62862.70569676107,15.2810000366444,171188.0,151166.0,18780.0
62862.71579656281,15.291099838381342,171174.0,151215.0,18750.0
62862.72589636455,15.30119964012556,171145.0,151169.0,18780.0
62862.735996166295,15.311299441869778,171208.0,151218.0,18768.0
62862.74609596804,15.321399243613996,171168.0,151183.0,18756.0
62862.756195769776,15.331499045350938,171187.0,151217.0,18766.0
62862.76629557152,15.341598847095156,171190.0,151219.0,18770.0
62862.776395373265,15.351698648839374,171222.0,151201.0,18759.0
62862.78649517501,15.361798450583592,171191.0,151194.0,18751.0
62862.79659497675,15.37189825232781,171196.0,151226.0,18768.0
62862.80669477849,15.381998054064752,171213.0,151246.0,18768.0
62862.816794580234,15.39209785580897,171182.0,151191.0,18756.0
62862.82689438198,15.402197657553188,171187.0,151218.0,18763.0
62862.83699418372,15.412297459297406,171203.0,151222.0,18766.0
62862.84709398547,15.422397261041624,171183.0,151162.0,18768.0
62862.857193787204,15.432497062778566,171216.0,151222.0,18796.0
62862.86729358895,15.442596864522784,171221.0,151232.0,18789.0
62862.87739339069,15.452696666267002,171218.0,151225.0,18779.0
62862.88749319244,15.46279646801122,171203.0,151226.0,18779.0
62862.89759299417,15.472896269748162,171203.0,151245.0,18786.0
62862.90769279592,15.48299607149238,171225.0,151255.0,18795.0
62862.91779259766,15.493095873236598,171202.0,151224.0,18781.0
62862.927892399406,15.503195674980816,171203.0,151196.0,18768.0
62862.93799220115,15.513295476725034,171220.0,151238.0,18796.0
62862.94809200289,15.523395278461976,171190.0,151204.0,18755.0
62862.95819180463,15.533495080206194,171165.0,151180.0,18753.0
62862.968291606376,15.543594881950412,171185.0,151174.0,18774.0
62862.97839140812,15.55369468369463,171105.0,151119.0,18722.0
62862.988491209864,15.563794485438848,171109.0,151121.0,18732.0
62862.9985910116,15.57389428717579,171118.0,151140.0,18717.0
62863.008690813345,15.583994088920008,171112.0,151171.0,18734.0
62863.01879061509,15.594093890664226,171090.0,151139.0,18691.0
62863.028890416834,15.604193692408444,171137.0,151187.0,18748.0
62863.03899021857,15.614293494145386,171127.0,151173.0,18727.0
62863.049090020315,15.624393295889604,171120.0,151145.0,18723.0
62863.05918982206,15.634493097633822,171173.0,151178.0,18736.0
62863.0692896238,15.64459289937804,171168.0,151207.0,18739.0
62863.07938942555,15.654692701122258,171152.0,151186.0,18709.0
62863.089489227285,15.6647925028592,171130.0,151164.0,18762.0
62863.09958902903,15.674892304603418,171170.0,151216.0,18764.0
62863.10968883077,15.684992106347636,171166.0,151163.0,18750.0
62863.11978863252,15.695091908091854,171136.0,151170.0,18721.0
62863.12988843426,15.705191709836072,171138.0,151177.0,18738.0
62863.139988236,15.715291511573014,171135.0,151167.0,18738.0
62863.15008803774,15.725391313317232,171161.0,151194.0,18729.0
62863.16018783949,15.73549111506145,171193.0,151190.0,18764.0
62863.17028764123,15.745590916805668,171167.0,151217.0,18750.0
62863.18038744297,15.75569071854261,171167.0,151196.0,18761.0
62863.19048724471,15.765790520286828,171191.0,151188.0,18741.0
62863.200587046456,15.775890322031046,171210.0,151228.0,18765.0
62863.2106868482,15.785990123775264,171188.0,151214.0,18749.0
62863.220786649945,15.796089925519482,171176.0,151205.0,18750.0
62863.23088645168,15.806189727256424,171180.0,151239.0,18756.0
62863.240986253426,15.816289529000642,171161.0,151175.0,18739.0
62863.25108605517,15.82638933074486,171134.0,151153.0,18733.0
62863.261185856914,15.836489132489078,171131.0,151176.0,18751.0
62863.27128565866,15.846588934233296,171170.0,151184.0,18764.0
62863.281385460396,15.856688735970238,171150.0,151184.0,18708.0
62863.29148526214,15.866788537714456,171166.0,151199.0,18741.0
62863.301585063884,15.876888339458674,171194.0,151175.0,18755.0
62863.31168486563,15.886988141202892,171163.0,151182.0,18742.0
62863.321784667365,15.897087942939834,171207.0,151214.0,18773.0
62863.33188446911,15.907187744684052,171181.0,151203.0,18756.0
62863.34198427085,15.91728754642827,171159.0,151206.0,18740.0
62863.3520840726,15.927387348172488,171175.0,151217.0,18731.0
62863.36218387434,15.937487149916706,171178.0,151206.0,18717.0
62863.37228367608,15.947586951653648,171184.0,151216.0,18755.0
62863.38238347782,15.957686753397866,171160.0,151190.0,18719.0
62863.39248327957,15.967786555142084,171185.0,151170.0,18745.0
62863.40258308131,15.977886356886302,171215.0,151223.0,18757.0
62863.412682883056,15.98798615863052,171190.0,151199.0,18755.0
62863.42278268479,15.998085960367462,171173.0,151197.0,18736.0
62863.43288248654,16.00818576211168,171205.0,151227.0,18774.0
62863.44298228828,16.018285563855898,171155.0,151194.0,18751.0
62863.453082090025,16.028385365600116,171193.0,151203.0,18761.0
62863.46318189176,16.038485167337058,171194.0,151219.0,18788.0
62863.47328169351,16.048584969081276,171200.0,151226.0,18784.0
62863.48338149525,16.058684770825494,171175.0,151195.0,18751.0
62863.493481296995,16.06878457256971,171190.0,151198.0,18767.0
62863.50358109874,16.07888437431393,171217.0,151197.0,18778.0
62863.513680900476,16.08898417605087,171157.0,151163.0,18746.0
62863.52378070222,16.09908397779509,171212.0,151214.0,18772.0
62863.533880503965,16.109183779539308,171184.0,151205.0,18764.0
62863.54398030571,16.119283581283526,171204.0,151232.0,18788.0
62863.55408010745,16.129383383027744,171166.0,151205.0,18765.0
62863.56417990919,16.139483184764686,171214.0,151216.0,18791.0
62863.574279710934,16.149582986508904,171194.0,151214.0,18767.0
62863.58437951268,16.15968278825312,171178.0,151166.0,18766.0
62863.59447931442,16.16978258999734,171180.0,151175.0,18762.0
62863.60457911616,16.17988239173428,171198.0,151221.0,18778.0
62863.614678917904,16.1899821934785,171189.0,151199.0,18732.0
62863.62477871965,16.200081995222718,171159.0,151204.0,18761.0
62863.63487852139,16.210181796966936,171171.0,151220.0,18758.0
62863.64497832314,16.220281598711153,171169.0,151186.0,18768.0
62863.65507812487,16.230381400448096,171182.0,151176.0,18772.0
62863.66517792662,16.240481202192314,171166.0,151195.0,18757.0
62863.67527772836,16.25058100393653,171118.0,151140.0,18734.0
62863.685377530106,16.26068080568075,171094.0,151141.0,18715.0
62863.69547733185,16.270780607424967,171121.0,151134.0,18738.0
62863.70557713359,16.28088040916191,171074.0,151139.0,18719.0
62863.71567693533,16.290980210906127,171036.0,151104.0,18714.0
62863.725776737076,16.301080012650345,171061.0,151127.0,18738.0
62863.73587653882,16.311179814394563,171047.0,151096.0,18712.0
62863.74597634056,16.321279616131505,171057.0,151119.0,18703.0
62863.7560761423,16.331379417875723,171056.0,151133.0,18706.0
62863.766175944045,16.34147921961994,171061.0,151137.0,18721.0
62863.77627574579,16.35157902136416,171077.0,151130.0,18692.0
62863.786375547534,16.361678823108377,171083.0,151121.0,18703.0
62863.79647534927,16.37177862484532,171085.0,151129.0,18707.0
62863.806575151015,16.381878426589537,171077.0,151174.0,18722.0
62863.81667495276,16.391978228333755,171080.0,151141.0,18696.0
62863.8267747545,16.402078030077973,171091.0,151130.0,18718.0
62863.83687455625,16.41217783182219,171105.0,151145.0,18746.0
62863.846974357984,16.422277633559133,171081.0,151119.0,18706.0
62863.85707415973,16.43237743530335,171101.0,151154.0,18742.0
62863.86717396147,16.44247723704757,171079.0,151145.0,18722.0
62863.87727376322,16.452577038791787,171064.0,151126.0,18704.0
62863.887373564954,16.46267684052873,171052.0,151136.0,18693.0
62863.8974733667,16.472776642272947,171104.0,151160.0,18745.0
62863.90757316844,16.482876444017165,171091.0,151143.0,18733.0
62863.91767297019,16.492976245761383,171071.0,151122.0,18717.0
62863.92777277193,16.5030760475056,171114.0,151163.0,18754.0
62863.93787257367,16.513175849242543,171070.0,151128.0,18739.0
62863.94797237541,16.52327565098676,171078.0,151130.0,18723.0
62863.958072177156,16.53337545273098,171094.0,151145.0,18738.0
62863.9681719789,16.543475254475197,171030.0,151109.0,18700.0
62863.978271780645,16.553575056219415,171046.0,151116.0,18699.0
62863.98837158238,16.563674857956357,171058.0,151124.0,18716.0
62863.998471384126,16.573774659700575,171071.0,151131.0,18733.0
62864.00857118587,16.583874461444793,171041.0,151121.0,18732.0
62864.018670987614,16.59397426318901,171047.0,151112.0,18709.0
62864.02877078935,16.604074064925953,171056.0,151113.0,18727.0
62864.038870591095,16.61417386667017,171095.0,151111.0,18741.0
62864.04897039284,16.62427366841439,171078.0,151110.0,18728.0
62864.059070194584,16.634373470158607,171091.0,151142.0,18746.0
62864.06916999633,16.644473271902825,171065.0,151132.0,18729.0
62864.079269798065,16.654573073639767,171058.0,151123.0,18749.0
62864.08936959981,16.664672875383985,171066.0,151141.0,18733.0
62864.09946940155,16.674772677128203,171088.0,151137.0,18753.0
62864.1095692033,16.68487247887242,171071.0,151117.0,18729.0
62864.11966900504,16.69497228061664,171045.0,151092.0,18735.0
62864.12976880678,16.70507208235358,171074.0,151128.0,18737.0
62864.13986860852,16.7151718840978,171045.0,151111.0,18744.0
62864.14996841027,16.725271685842017,171056.0,151123.0,18737.0
62864.16006821201,16.735371487586235,171087.0,151150.0,18751.0
62864.17016801375,16.745471289323177,171092.0,151126.0,18759.0
62864.18026781549,16.755571091067395,171085.0,151126.0,18720.0
62864.19036761724,16.765670892811613,171049.0,151123.0,18748.0
62864.20046741898,16.77577069455583,171033.0,151130.0,18738.0
62864.210567220725,16.78587049630005,171045.0,151099.0,18752.0
62864.22066702246,16.79597029803699,171047.0,151122.0,18721.0
62864.23076682421,16.80607009978121,171085.0,151117.0,18748.0
62864.24086662595,16.816169901525427,171061.0,151114.0,18740.0
62864.250966427695,16.826269703269645,171037.0,151082.0,18751.0
62864.26106622944,16.836369505013863,171028.0,151108.0,18763.0
62864.271166031176,16.846469306750805,171055.0,151107.0,18754.0
62864.28126583292,16.856569108495023,171065.0,151120.0,18730.0
62864.291365634665,16.86666891023924,171032.0,151124.0,18716.0
62864.30146543641,16.87676871198346,171051.0,151106.0,18720.0
62864.311565238146,16.8868685137204,171043.0,151107.0,18724.0
62864.32166503989,16.89696831546462,171052.0,151113.0,18747.0
62864.331764841634,16.907068117208837,171055.0,151107.0,18739.0
62864.34186464338,16.917167918953055,171017.0,151085.0,18731.0
62864.35196444512,16.927267720697273,171027.0,151111.0,18751.0
62864.36206424686,16.937367522434215,171038.0,151102.0,18739.0
62864.372164048604,16.947467324178433,171046.0,151091.0,18729.0
62864.38226385035,16.95756712592265,171060.0,151115.0,18758.0
62864.39236365209,16.96766692766687,171039.0,151096.0,18775.0
62864.40246345384,16.977766729411087,171050.0,151106.0,18742.0
62864.41256325557,16.98786653114803,171022.0,151119.0,18767.0
62864.42266305732,16.997966332892247,171023.0,151085.0,18734.0
62864.43276285906,17.008066134636465,171054.0,151105.0,18768.0
62864.442862660806,17.018165936380683,171017.0,151065.0,18735.0
62864.45296246254,17.028265738117625,171007.0,151079.0,18720.0
62864.46306226429,17.038365539861843,170978.0,151030.0,18718.0
62864.47316206603,17.04846534160606,170940.0,150997.0,18706.0
62864.483261867776,17.05856514335028,170965.0,151015.0,18708.0
62864.49336166952,17.068664945094497,170969.0,151040.0,18711.0
62864.50346147126,17.07876474683144,170953.0,151024.0,18715.0
62864.513561273,17.088864548575657,170945.0,150995.0,18676.0
62864.523661074745,17.098964350319875,170961.0,151027.0,18692.0
62864.53376087649,17.109064152064093,170952.0,151038.0,18703.0
62864.54386067823,17.11916395380831,170924.0,151002.0,18684.0
62864.55396047997,17.129263755545253,170927.0,151024.0,18701.0
62864.564060281715,17.13936355728947,170953.0,151019.0,18697.0
62864.57416008346,17.14946335903369,170942.0,151011.0,18680.0
62864.5842598852,17.159563160777907,170959.0,151023.0,18696.0
62864.59435968694,17.16966296251485,170951.0,151060.0,18720.0
62864.604459488684,17.179762764259067,170942.0,151032.0,18708.0
62864.61455929043,17.189862566003285,170923.0,151025.0,18696.0
62864.62465909217,17.199962367747503,170949.0,151025.0,18686.0
62864.63475889392,17.21006216949172,170946.0,151022.0,18699.0
62864.644858695654,17.220161971228663,170965.0,151017.0,18709.0
62864.6549584974,17.23026177297288,170969.0,151032.0,18684.0
62864.66505829914,17.2403615747171,170970.0,151053.0,18732.0
62864.67515810089,17.250461376461317,170978.0,151052.0,18702.0
62864.68525790263,17.260561178205535,170962.0,151042.0,18717.0
62864.69535770437,17.270660979942477,170994.0,151077.0,18712.0
62864.70545750611,17.280760781686695,170994.0,151066.0,18732.0
62864.715557307856,17.290860583430913,170971.0,151040.0,18707.0
62864.7256571096,17.30096038517513,170963.0,151048.0,18734.0
62864.73575691134,17.311060186912073,170940.0,151060.0,18710.0
62864.74585671308,17.32115998865629,170926.0,151001.0,18706.0
62864.755956514826,17.33125979040051,170934.0,151050.0,18709.0
62864.76605631657,17.341359592144727,170915.0,151039.0,18700.0
62864.776156118314,17.351459393888945,170966.0,151004.0,18716.0
62864.78625592005,17.361559195625887,170948.0,151019.0,18703.0
62864.796355721795,17.371658997370105,170943.0,151032.0,18713.0
62864.80645552354,17.381758799114323,170985.0,151052.0,18705.0
62864.816555325284,17.39185860085854,170941.0,151021.0,18708.0
62864.82665512703,17.40195840260276,170945.0,151020.0,18714.0
62864.836754928765,17.4120582043397,170985.0,151037.0,18745.0
62864.84685473051,17.42215800608392,170968.0,151019.0,18734.0
62864.85695453225,17.432257807828137,170947.0,151049.0,18727.0
62864.867054334,17.442357609572355,170948.0,151009.0,18733.0
62864.877154135735,17.452457411309297,170938.0,151005.0,18710.0
62864.88725393748,17.462557213053515,170977.0,151046.0,18740.0
62864.89735373922,17.472657014797733,170961.0,151032.0,18721.0
62864.90745354097,17.48275681654195,170997.0,151062.0,18753.0
62864.91755334271,17.49285661828617,170947.0,151029.0,18731.0
62864.92765314445,17.50295642002311,170962.0,151033.0,18720.0
62864.93775294619,17.51305622176733,170983.0,151046.0,18728.0
62864.94785274794,17.523156023511547,170937.0,151020.0,18697.0
62864.95795254968,17.533255825255765,170954.0,151029.0,18700.0
62864.968052351425,17.543355626999983,170939.0,151025.0,18710.0
62864.97815215316,17.553455428736925,170978.0,151032.0,18731.0
62864.98825195491,17.563555230481143,170975.0,151062.0,18707.0
62864.99835175665,17.57365503222536,170955.0,151026.0,18741.0
62865.008451558395,17.58375483396958,170997.0,151054.0,18739.0
62865.01855136013,17.59385463570652,170972.0,151037.0,18725.0
62865.028651161876,17.60395443745074,170940.0,151027.0,18717.0
62865.03875096362,17.614054239194957,170998.0,151043.0,18760.0
62865.048850765364,17.624154040939175,170966.0,151040.0,18709.0
62865.05895056711,17.634253842683393,170973.0,151042.0,18737.0
62865.069050368846,17.644353644420335,170978.0,151008.0,18718.0
62865.07915017059,17.654453446164553,170973.0,151057.0,18718.0
62865.089249972334,17.66455324790877,170978.0,151065.0,18755.0
62865.09934977408,17.67465304965299,170964.0,151040.0,18720.0
62865.10944957582,17.684752851397207,171001.0,151036.0,18746.0
62865.11954937756,17.69485265313415,170968.0,151033.0,18718.0
62865.129649179304,17.704952454878367,170987.0,151041.0,18758.0
62865.13974898105,17.715052256622585,170973.0,151036.0,18731.0
62865.14984878279,17.725152058366803,170939.0,151020.0,18720.0
62865.15994858453,17.735251860103745,170958.0,151012.0,18712.0
62865.17004838627,17.745351661847963,170950.0,151023.0,18707.0
62865.18014818802,17.75545146359218,170967.0,151025.0,18732.0
62865.19024798976,17.7655512653364,170962.0,151024.0,18737.0
62865.200347791506,17.775651067080616,170946.0,151010.0,18732.0
62865.21044759324,17.78575086881756,170977.0,151037.0,18735.0
62865.22054739499,17.795850670561776,170981.0,151037.0,18737.0
62865.23064719673,17.805950472305994,170970.0,151033.0,18756.0
62865.240746998476,17.816050274050212,170980.0,151059.0,18736.0
62865.25084680022,17.82615007579443,170960.0,151015.0,18743.0
62865.26094660196,17.836249877531372,170994.0,151065.0,18765.0
62865.2710464037,17.84634967927559,170978.0,151044.0,18741.0
62865.281146205445,17.85644948101981,170949.0,151038.0,18727.0
62865.29124600719,17.866549282764026,170932.0,151003.0,18709.0
62865.301345808926,17.87664908450097,170909.0,150997.0,18687.0
62865.31144561067,17.886748886245186,170912.0,150985.0,18707.0
62865.321545412415,17.896848687989404,170879.0,150948.0,18702.0
62865.33164521416,17.906948489733622,170896.0,150938.0,18678.0
62865.3417450159,17.91704829147784,170865.0,150944.0,18670.0
62865.35184481764,17.927148093214782,170884.0,150975.0,18686.0
62865.361944619384,17.937247894959,170869.0,150983.0,18671.0
62865.37204442113,17.94734769670322,170931.0,151009.0,18702.0
62865.38214422287,17.957447498447436,170892.0,150969.0,18696.0
62865.39224402462,17.967547300191654,170932.0,150979.0,18711.0
62865.402343826354,17.977647101928596,170915.0,151020.0,18700.0
62865.4124436281,17.987746903672814,170898.0,151027.0,18695.0
62865.42254342984,17.997846705417032,170891.0,151013.0,18698.0
62865.43264323159,18.00794650716125,170918.0,151015.0,18700.0
62865.44274303332,18.018046308898192,170957.0,151001.0,18717.0
62865.45284283507,18.02814611064241,170907.0,150981.0,18695.0
62865.46294263681,18.03824591238663,170946.0,151013.0,18731.0
62865.473042438556,18.048345714130846,170915.0,151005.0,18693.0
62865.4831422403,18.058445515875064,170928.0,151014.0,18725.0
62865.49324204204,18.068545317612006,170924.0,150996.0,18697.0
62865.50334184378,18.078645119356224,170904.0,150988.0,18687.0
62865.513441645526,18.088744921100442,170922.0,151013.0,18698.0
62865.52354144727,18.09884472284466,170932.0,150971.0,18724.0
62865.53364124901,18.108944524581602,170930.0,150979.0,18722.0
62865.54374105075,18.11904432632582,170888.0,150992.0,18691.0
62865.553840852495,18.12914412807004,170931.0,151010.0,18705.0
62865.56394065424,18.139243929814256,170899.0,151011.0,18691.0
62865.574040455984,18.149343731558474,170933.0,151002.0,18728.0
62865.58414025772,18.159443533295416,170909.0,151012.0,18696.0
62865.594240059465,18.169543335039634,170912.0,150992.0,18704.0
62865.60433986121,18.179643136783852,170876.0,151000.0,18678.0
62865.61443966295,18.18974293852807,170893.0,150972.0,18689.0
62865.6245394647,18.199842740272288,170900.0,151037.0,18714.0
62865.634639266435,18.20994254200923,170918.0,151001.0,18712.0
62865.64473906818,18.220042343753448,170905.0,151001.0,18683.0
62865.65483886992,18.230142145497666,170967.0,151010.0,18738.0
62865.66493867167,18.240241947241884,170940.0,151019.0,18732.0
62865.675038473404,18.250341748978826,170919.0,151010.0,18709.0
62865.68513827515,18.260441550723044,170948.0,151006.0,18740.0
62865.69523807689,18.270541352467262,170924.0,151023.0,18712.0
62865.70533787864,18.28064115421148,170925.0,151000.0,18691.0
62865.71543768038,18.290740955955698,170936.0,151026.0,18708.0
62865.72553748212,18.30084075769264,170941.0,151018.0,18697.0
62865.73563728386,18.310940559436858,170954.0,151044.0,18749.0
62865.74573708561,18.321040361181076,170938.0,151017.0,18703.0
62865.75583688735,18.331140162925294,170949.0,151025.0,18710.0
62865.765936689095,18.341239964669512,170948.0,151045.0,18734.0
62865.77603649083,18.351339766406454,170916.0,151012.0,18692.0
62865.786136292576,18.361439568150672,170927.0,151013.0,18731.0
62865.79623609432,18.37153936989489,170962.0,151016.0,18727.0
62865.806335896064,18.381639171639108,170956.0,151018.0,18755.0
62865.8164356978,18.39173897337605,170968.0,151025.0,18718.0
62865.826535499546,18.401838775120268,170992.0,151091.0,18741.0
62865.83663530129,18.411938576864486,170979.0,151055.0,18696.0
62865.846735103034,18.422038378608704,171007.0,151046.0,18739.0
62865.85683490478,18.432138180352922,171016.0,151074.0,18721.0
62865.866934706515,18.442237982089864,171032.0,151062.0,18717.0
62865.87703450826,18.452337783834082,171018.0,151058.0,18718.0
62865.88713431,18.4624375855783,171021.0,151074.0,18733.0
62865.89723411175,18.472537387322518,171031.0,151072.0,18732.0
62865.90733391349,18.482637189066736,171034.0,151061.0,18731.0
62865.91743371523,18.492736990803678,171047.0,151098.0,18732.0
62865.92753351697,18.502836792547896,171065.0,151066.0,18765.0
62865.93763331872,18.512936594292114,171016.0,151079.0,18742.0
62865.94773312046,18.523036396036332,171030.0,151093.0,18743.0
62865.9578329222,18.533136197773274,171035.0,151049.0,18743.0
62865.96793272394,18.543235999517492,171034.0,151083.0,18746.0
62865.97803252569,18.55333580126171,171052.0,151076.0,18735.0
62865.98813232743,18.563435603005928,171050.0,151062.0,18754.0
62865.998232129175,18.573535404750146,171018.0,151053.0,18734.0
62866.00833193091,18.583635206487088,171026.0,151083.0,18737.0
62866.01843173266,18.593735008231306,171058.0,151086.0,18771.0
62866.0285315344,18.603834809975524,171041.0,151046.0,18759.0
62866.038631336145,18.613934611719742,171012.0,151043.0,18731.0
62866.04873113789,18.62403441346396,171030.0,151075.0,18745.0
62866.058830939626,18.634134215200902,171048.0,151064.0,18752.0
62866.06893074137,18.64423401694512,171020.0,151047.0,18727.0
62866.079030543115,18.654333818689338,171040.0,151109.0,18767.0
62866.08913034486,18.664433620433556,171025.0,151065.0,18750.0
62866.099230146596,18.674533422170498,171026.0,151051.0,18742.0
62866.10932994834,18.684633223914716,171034.0,151076.0,18761.0
62866.119429750084,18.694733025658934,171030.0,151073.0,18751.0
62866.12952955183,18.704832827403152,170992.0,151047.0,18721.0
62866.13962935357,18.71493262914737,170973.0,151013.0,18723.0
62866.14972915531,18.725032430884312,170970.0,151031.0,18708.0
62866.159828957054,18.73513223262853,170936.0,150968.0,18695.0
62866.1699287588,18.745232034372748,170945.0,150994.0,18696.0
62866.18002856054,18.755331836116966,170933.0,150993.0,18677.0
62866.19012836229,18.765431637861184,170933.0,151027.0,18676.0
62866.20022816402,18.775531439598126,170936.0,151008.0,18667.0
62866.21032796577,18.785631241342344,170955.0,151031.0,18689.0
62866.22042776751,18.795731043086562,170994.0,151052.0,18715.0
62866.230527569256,18.80583084483078,170982.0,151047.0,18714.0
62866.24062737099,18.815930646567722,170982.0,151018.0,18692.0
62866.25072717274,18.82603044831194,170992.0,151048.0,18700.0
62866.26082697448,18.836130250056158,171008.0,151067.0,18708.0
62866.270926776226,18.846230051800376,170978.0,151034.0,18691.0
62866.28102657797,18.856329853544594,171016.0,151072.0,18730.0
62866.29112637971,18.866429655281536,170995.0,151059.0,18703.0
62866.30122618145,18.876529457025754,170995.0,151021.0,18716.0
62866.311325983195,18.886629258769972,170986.0,151020.0,18715.0
62866.32142578494,18.89672906051419,171021.0,151074.0,18726.0
62866.331525586684,18.906828862258408,170984.0,151028.0,18671.0
62866.34162538842,18.91692866399535,171016.0,151034.0,18732.0
62866.351725190165,18.927028465739568,170994.0,151034.0,18703.0
62866.36182499191,18.937128267483786,171003.0,151047.0,18726.0
62866.37192479365,18.947228069228004,171011.0,151064.0,18720.0
62866.38202459539,18.957327870964946,170989.0,151033.0,18711.0
62866.392124397134,18.967427672709164,170980.0,151025.0,18736.0
62866.40222419888,18.97752747445338,170976.0,151049.0,18708.0
62866.41232400062,18.9876272761976,171022.0,151034.0,18735.0
62866.42242380237,18.997727077941818,170977.0,151068.0,18706.0
62866.432523604104,19.00782687967876,170983.0,151017.0,18709.0
62866.44262340585,19.017926681422978,170989.0,151034.0,18704.0
62866.45272320759,19.028026483167196,171019.0,151061.0,18728.0
62866.46282300934,19.038126284911414,170967.0,151030.0,18739.0
62866.47292281108,19.04822608665563,170973.0,151035.0,18702.0
62866.48302261282,19.058325888392574,171015.0,151048.0,18737.0
62866.49312241456,19.06842569013679,171004.0,151034.0,18708.0
62866.503222216306,19.07852549188101,171008.0,151055.0,18723.0
62866.51332201805,19.088625293625228,170970.0,151032.0,18707.0
62866.52342181979,19.09872509536217,170972.0,151036.0,18716.0
62866.53352162153,19.108824897106388,170967.0,151033.0,18699.0
62866.543621423276,19.118924698850606,170989.0,151057.0,18723.0
62866.55372122502,19.129024500594824,170982.0,151041.0,18725.0
62866.563821026764,19.13912430233904,171010.0,151019.0,18731.0
62866.5739208285,19.149224104075984,170973.0,151043.0,18699.0
62866.584020630246,19.1593239058202,171022.0,151048.0,18717.0
62866.59412043199,19.16942370756442,171049.0,151060.0,18732.0
62866.604220233734,19.179523509308638,170994.0,151031.0,18704.0
62866.61432003548,19.189623311052856,171003.0,151052.0,18727.0
62866.624419837215,19.199723112789798,171030.0,151052.0,18722.0
62866.63451963896,19.209822914534016,171012.0,151048.0,18745.0
62866.6446194407,19.219922716278234,171053.0,151075.0,18743.0
62866.65471924245,19.23002251802245,171033.0,151084.0,18746.0
62866.664819044185,19.240122319759394,171016.0,151051.0,18722.0
62866.67491884593,19.25022212150361,171035.0,151036.0,18735.0
62866.68501864767,19.26032192324783,171046.0,151082.0,18758.0
62866.69511844942,19.270421724992048,171019.0,151037.0,18731.0
62866.70521825116,19.280521526736266,171018.0,151059.0,18736.0
62866.7153180529,19.290621328473208,171019.0,151046.0,18738.0
62866.72541785464,19.300721130217426,170987.0,151076.0,18732.0
62866.73551765639,19.310820931961644,171001.0,151066.0,18728.0
