timestamp,time_from_start_sec,PPG_1,PPG_2,PPG_3
62847.36591403804,0.0,183802.0,155506.0,10315.0
62847.375916807985,0.010002769944549073,183766.0,155460.0,10302.0
62847.38591957792,0.020005539881822187,183755.0,155488.0,10269.0
62847.39592234787,0.03000830982637126,183721.0,155475.0,10283.0
62847.405925117804,0.040011079763644375,183673.0,155427.0,10223.0
62847.41592788775,0.05001384970819345,183688.0,155433.0,10235.0
62847.425930657686,0.06001661964546656,183652.0,155429.0,10196.0
62847.43593342763,0.07001938959001563,183601.0,155407.0,10145.0
62847.44593619757,0.08002215952728875,183610.0,155434.0,10165.0
62847.45593896751,0.09002492947183782,183566.0,155411.0,10107.0
62847.46594173745,0.10002769940911094,183574.0,155391.0,10126.0
62847.475944507394,0.11003046935366001,183557.0,155371.0,10133.0
62847.48594727733,0.12003323929093312,183545.0,155380.0,10079.0
62847.495950047276,0.1300360092354822,183526.0,155366.0,10062.0
62847.50595281721,0.1400387791727553,183538.0,155382.0,10065.0
62847.51595558716,0.15004154911730438,183541.0,155384.0,10071.0
62847.525958357095,0.1600443190545775,183543.0,155363.0,10071.0
62847.53596112704,0.17004708899912657,183518.0,155358.0,10045.0
62847.54596389698,0.1800498589363997,183520.0,155371.0,10052.0
62847.55596666692,0.19005262888094876,183498.0,155418.0,10052.0
62847.565969436866,0.20005539882549783,183475.0,155366.0,10017.0
62847.5759722068,0.21005816876277095,183516.0,155345.0,10055.0
62847.58597497675,0.22006093870732002,183497.0,155357.0,10020.0
62847.595977746685,0.23006370864459313,183504.0,155379.0,10026.0
62847.60598051663,0.2400664785891422,183467.0,155332.0,10038.0
62847.61598328657,0.2500692485264153,183509.0,155364.0,10045.0
62847.62598605651,0.2600720184709644,183487.0,155348.0,10013.0
62847.63598882645,0.2700747884082375,183456.0,155311.0,10012.0
62847.64599159639,0.2800775583527866,183509.0,155331.0,10016.0
62847.65599436633,0.2900803282900597,183493.0,155349.0,10000.0
62847.665997136275,0.30008309823460877,183488.0,155356.0,10022.0
62847.67599990621,0.3100858681718819,183491.0,155364.0,10019.0
62847.68600267616,0.32008863811643096,183477.0,155356.0,10001.0
62847.696005446094,0.33009140805370407,183464.0,155342.0,10029.0
62847.70600821604,0.34009417799825314,183493.0,155354.0,9991.0
62847.716010985976,0.35009694793552626,183457.0,155354.0,9993.0
62847.72601375592,0.36009971788007533,183500.0,155361.0,10013.0
62847.73601652586,0.37010248781734845,183463.0,155326.0,9992.0
62847.7460192958,0.3801052577618975,183469.0,155340.0,10020.0
62847.75602206574,0.39010802769917063,183455.0,155343.0,10008.0
62847.766024835684,0.4001107976437197,183446.0,155342.0,9988.0
62847.77602760563,0.4101135675882688,183498.0,155370.0,10036.0
62847.786030375566,0.4201163375255419,183448.0,155346.0,9980.0
62847.79603314551,0.43011910747009097,183484.0,155337.0,10009.0
62847.80603591545,0.4401218774073641,183477.0,155379.0,10031.0
62847.81603868539,0.45012464735191315,183478.0,155379.0,10022.0
62847.82604145533,0.46012741728918627,183518.0,155359.0,10050.0
62847.836044225274,0.47013018723373534,183497.0,155363.0,10029.0
62847.84604699521,0.48013295717100846,183510.0,155369.0,10017.0
62847.856049765156,0.49013572711555753,183519.0,155350.0,10024.0
62847.86605253509,0.5001384970528306,183513.0,155347.0,10030.0
62847.87605530504,0.5101412669973797,183522.0,155385.0,10064.0
62847.886058074975,0.5201440369346528,183500.0,155350.0,10047.0
62847.89606084492,0.5301468068792019,183546.0,155378.0,10065.0
62847.90606361486,0.540149576816475,183519.0,155379.0,10063.0
62847.9160663848,0.5501523467610241,183535.0,155384.0,10047.0
62847.92606915474,0.5601551166982972,183543.0,155407.0,10072.0
62847.93607192468,0.5701578866428463,183553.0,155387.0,10073.0
62847.94607469462,0.5801606565801194,183556.0,155397.0,10057.0
62847.956077464565,0.5901634265246685,183552.0,155404.0,10080.0
62847.96608023451,0.6001661964692175,183535.0,155392.0,10096.0
62847.97608300445,0.6101689664064907,183604.0,155409.0,10115.0
62847.98608577439,0.6201717363510397,183561.0,155392.0,10071.0
62847.99608854433,0.6301745062883128,183586.0,155405.0,10099.0
62848.00609131427,0.6401772762328619,183561.0,155437.0,10107.0
62848.01609408421,0.650180046170135,183571.0,155406.0,10099.0
62848.026096854155,0.6601828161146841,183616.0,155425.0,10131.0
62848.03609962409,0.6701855860519572,183608.0,155415.0,10119.0
62848.04610239404,0.6801883559965063,183609.0,155403.0,10100.0
62848.056105163974,0.6901911259337794,183583.0,155425.0,10118.0
62848.06610793392,0.7001938958783285,183607.0,155416.0,10114.0
62848.076110703856,0.7101966658156016,183639.0,155446.0,10134.0
62848.0861134738,0.7201994357601507,183653.0,155443.0,10154.0
62848.09611624374,0.7302022056974238,183631.0,155451.0,10124.0
62848.10611901368,0.7402049756419729,183635.0,155425.0,10174.0
62848.11612178362,0.750207745579246,183650.0,155446.0,10155.0
62848.126124553564,0.760210515523795,183676.0,155436.0,10169.0
62848.1361273235,0.7702132854610682,183686.0,155468.0,10179.0
62848.146130093446,0.7802160554056172,183621.0,155414.0,10143.0
62848.15613286339,0.7902188253501663,183662.0,155447.0,10180.0
62848.16613563333,0.8002215952874394,183692.0,155474.0,10168.0
62848.17613840327,0.8102243652319885,183655.0,155460.0,10169.0
62848.18614117321,0.8202271351692616,183706.0,155457.0,10219.0
62848.196143943154,0.8302299051138107,183690.0,155458.0,10202.0
62848.20614671309,0.8402326750510838,183694.0,155473.0,10168.0
62848.216149483036,0.8502354449956329,183698.0,155474.0,10198.0
62848.22615225297,0.860238214932906,183636.0,155444.0,10173.0
62848.23615502292,0.870240984877455,183590.0,155427.0,10151.0
62848.246157792855,0.8802437548147282,183568.0,155436.0,10131.0
62848.2561605628,0.8902465247592772,183577.0,155417.0,10123.0
62848.26616333274,0.9002492946965504,183544.0,155423.0,10120.0
62848.27616610268,0.9102520646410994,183523.0,155412.0,10077.0
62848.28616887262,0.9202548345783725,183473.0,155374.0,10059.0
62848.29617164256,0.9302576045229216,183462.0,155357.0,10028.0
62848.3061744125,0.9402603744601947,183495.0,155386.0,10021.0
62848.316177182445,0.9502631444047438,183462.0,155379.0,10039.0
62848.32617995238,0.9602659143420169,183464.0,155404.0,10016.0
62848.33618272233,0.970268684286566,183485.0,155395.0,10032.0
62848.34618549227,0.9802714542311151,183478.0,155342.0,10013.0
62848.35618826221,0.9902742241683882,183447.0,155362.0,10005.0
62848.36619103215,1.0002769941129372,183463.0,155341.0,10010.0
62848.37619380209,1.0102797640502104,183459.0,155362.0,9998.0
62848.386196572035,1.0202825339947594,183436.0,155349.0,9990.0
62848.39619934197,1.0302853039320325,183450.0,155365.0,9987.0
62848.40620211192,1.0402880738765816,183445.0,155340.0,9993.0
62848.416204881854,1.0502908438138547,183409.0,155326.0,9973.0
62848.4262076518,1.0602936137584038,183411.0,155369.0,9978.0
62848.436210421736,1.070296383695677,183456.0,155362.0,9995.0
62848.44621319168,1.080299153640226,183440.0,155332.0,9994.0
62848.45621596162,1.090301923577499,183471.0,155373.0,10009.0
62848.46621873156,1.1003046935220482,183433.0,155340.0,9986.0
62848.4762215015,1.1103074634593213,183463.0,155375.0,10000.0
62848.486224271444,1.1203102334038704,183462.0,155362.0,10020.0
62848.49622704138,1.1303130033411435,183439.0,155375.0,9987.0
62848.506229811326,1.1403157732856926,183481.0,155360.0,10024.0
62848.51623258126,1.1503185432229657,183466.0,155368.0,10005.0
62848.52623535121,1.1603213131675147,183487.0,155392.0,9974.0
62848.536238121145,1.1703240831047879,183496.0,155420.0,10030.0
62848.54624089109,1.180326853049337,183417.0,155344.0,9982.0
62848.556243661034,1.190329622993886,183445.0,155364.0,10016.0
62848.56624643097,1.2003323929311591,183472.0,155394.0,10009.0
62848.576249200916,1.2103351628757082,183492.0,155376.0,10019.0
62848.58625197085,1.2203379328129813,183429.0,155335.0,10005.0
62848.5962547408,1.2303407027575304,183473.0,155376.0,9996.0
62848.606257510735,1.2403434726948035,183465.0,155387.0,10015.0
62848.61626028068,1.2503462426393526,183453.0,155359.0,9998.0
62848.62626305062,1.2603490125766257,183496.0,155402.0,9988.0
62848.63626582056,1.2703517825211748,183477.0,155382.0,10027.0
62848.6462685905,1.2803545524584479,183485.0,155417.0,10040.0
62848.65627136044,1.290357322402997,183514.0,155398.0,10029.0
62848.66627413038,1.30036009234027,183490.0,155400.0,10020.0
62848.676276900325,1.3103628622848191,183522.0,155373.0,10052.0
62848.68627967026,1.3203656322220922,183492.0,155370.0,10067.0
62848.69628244021,1.3303684021666413,183519.0,155399.0,10042.0
62848.706285210144,1.3403711721039144,183513.0,155402.0,10038.0
62848.71628798009,1.3503739420484635,183527.0,155413.0,10061.0
62848.726290750026,1.3603767119857366,183536.0,155403.0,10067.0
62848.73629351997,1.3703794819302857,183562.0,155443.0,10094.0
62848.746296289915,1.3803822518748348,183523.0,155436.0,10061.0
62848.75629905985,1.3903850218121079,183548.0,155431.0,10076.0
62848.7663018298,1.400387791756657,183546.0,155390.0,10090.0
62848.776304599734,1.41039056169393,183561.0,155429.0,10071.0
62848.78630736968,1.4203933316384791,183591.0,155455.0,10102.0
62848.796310139616,1.4303961015757523,183588.0,155441.0,10109.0
62848.80631290956,1.4403988715203013,183565.0,155425.0,10120.0
62848.8163156795,1.4504016414575744,183577.0,155430.0,10084.0
62848.82631844944,1.4604044114021235,183576.0,155421.0,10109.0
62848.83632121938,1.4704071813393966,183604.0,155452.0,10125.0
62848.846323989324,1.4804099512839457,183609.0,155462.0,10120.0
62848.85632675926,1.4904127212212188,183610.0,155433.0,10118.0
62848.866329529206,1.500415491165768,183583.0,155461.0,10114.0
62848.87633229914,1.510418261103041,183653.0,155477.0,10130.0
62848.88633506909,1.52042103104759,183649.0,155475.0,10149.0
62848.896337839025,1.5304238009848632,183634.0,155445.0,10152.0
62848.90634060897,1.5404265709294123,183665.0,155498.0,10166.0
62848.91634337891,1.5504293408666854,183624.0,155454.0,10181.0
62848.92634614885,1.5604321108112345,183675.0,155493.0,10173.0
62848.936348918796,1.5704348807557835,183640.0,155446.0,10163.0
62848.94635168873,1.5804376506930566,183664.0,155471.0,10186.0
62848.95635445868,1.5904404206376057,183641.0,155458.0,10195.0
62848.966357228615,1.6004431905748788,183664.0,155478.0,10188.0
62848.97635999856,1.610445960519428,183617.0,155443.0,10157.0
62848.9863627685,1.620448730456701,183619.0,155451.0,10146.0
62848.99636553844,1.63045150040125,183591.0,155465.0,10148.0
62849.00636830838,1.6404542703385232,183563.0,155449.0,10137.0
62849.01637107832,1.6504570402830723,183574.0,155426.0,10128.0
62849.02637384826,1.6604598102203454,183517.0,155416.0,10073.0
62849.036376618205,1.6704625801648945,183484.0,155428.0,10055.0
62849.04637938814,1.6804653501021676,183491.0,155411.0,10051.0
62849.05638215809,1.6904681200467166,183466.0,155396.0,10024.0
62849.066384928024,1.7004708899839898,183488.0,155399.0,10047.0
62849.07638769797,1.7104736599285388,183453.0,155375.0,10025.0
62849.086390467906,1.720476429865812,183436.0,155379.0,10013.0
62849.09639323785,1.730479199810361,183450.0,155423.0,10024.0
62849.10639600779,1.7404819697476341,183424.0,155392.0,10001.0
62849.11639877773,1.7504847396921832,183428.0,155388.0,10007.0
62849.12640154767,1.7604875096294563,183444.0,155399.0,10007.0
62849.136404317615,1.7704902795740054,183468.0,155393.0,9983.0
62849.14640708756,1.7804930495185545,183456.0,155411.0,10012.0
62849.156409857496,1.7904958194558276,183419.0,155354.0,9983.0
62849.16641262744,1.8004985894003767,183443.0,155396.0,9996.0
62849.17641539738,1.8105013593376498,183438.0,155366.0,9973.0
62849.18641816732,1.8205041292821988,183441.0,155381.0,10009.0
62849.19642093726,1.830506899219472,183412.0,155372.0,9990.0
62849.206423707205,1.840509669164021,183443.0,155387.0,9982.0
62849.21642647714,1.8505124391012941,183441.0,155423.0,9997.0
62849.226429247086,1.8605152090458432,183416.0,155386.0,9969.0
62849.23643201702,1.8705179789831163,183437.0,155376.0,9976.0
62849.24643478697,1.8805207489276654,183457.0,155398.0,9993.0
62849.256437556905,1.8905235188649385,183435.0,155385.0,10017.0
62849.26644032685,1.9005262888094876,183487.0,155400.0,10029.0
62849.27644309679,1.9105290587467607,183455.0,155395.0,9993.0
62849.28644586673,1.9205318286913098,183459.0,155402.0,10008.0
62849.29644863667,1.930534598628583,183449.0,155417.0,10018.0
62849.30645140661,1.940537368573132,183443.0,155395.0,9985.0
62849.31645417655,1.950540138510405,183442.0,155377.0,10002.0
62849.326456946495,1.9605429084549542,183439.0,155398.0,9999.0
62849.33645971644,1.9705456783995032,183421.0,155367.0,10000.0
62849.34646248638,1.9805484483367763,183419.0,155397.0,10019.0
62849.35646525632,1.9905512182813254,183433.0,155426.0,10016.0
62849.36646802626,2.0005539882185985,183461.0,155405.0,10008.0
62849.376470796204,2.0105567581631476,183483.0,155406.0,9998.0
62849.38647356614,2.0205595281004207,183487.0,155417.0,10004.0
62849.396476336085,2.03056229804497,183474.0,155408.0,10005.0
62849.40647910602,2.040565067982243,183481.0,155427.0,10022.0
62849.41648187597,2.050567837926792,183496.0,155427.0,10055.0
62849.426484645905,2.060570607864065,183503.0,155400.0,10058.0
62849.43648741585,2.070573377808614,183539.0,155434.0,10061.0
62849.44649018579,2.0805761477458873,183523.0,155439.0,10057.0
62849.45649295573,2.0905789176904364,183503.0,155430.0,10039.0
62849.46649572567,2.1005816876277095,183516.0,155428.0,10077.0
62849.47649849561,2.1105844575722585,183520.0,155418.0,10055.0
62849.48650126555,2.1205872275095317,183555.0,155446.0,10070.0
62849.496504035495,2.1305899974540807,183575.0,155492.0,10095.0
62849.50650680543,2.140592767391354,183558.0,155429.0,10066.0
62849.51650957538,2.150595537335903,183579.0,155471.0,10115.0
62849.52651234532,2.160598307280452,183574.0,155475.0,10108.0
62849.53651511526,2.170601077217725,183562.0,155467.0,10112.0
62849.5465178852,2.180603847162274,183590.0,155489.0,10110.0
62849.55652065514,2.1906066170995473,183618.0,155508.0,10141.0
62849.566523425085,2.2006093870440964,183601.0,155490.0,10116.0
62849.57652619502,2.2106121569813695,183649.0,155493.0,10138.0
62849.58652896497,2.2206149269259186,183608.0,155479.0,10121.0
62849.596531734904,2.2306176968631917,183632.0,155497.0,10152.0
62849.60653450485,2.2406204668077407,183609.0,155501.0,10138.0
62849.616537274786,2.250623236745014,183616.0,155500.0,10149.0
62849.62654004473,2.260626006689563,183635.0,155509.0,10170.0
62849.63654281467,2.270628776626836,183638.0,155511.0,10156.0
62849.64654558461,2.280631546571385,183647.0,155515.0,10162.0
62849.65654835455,2.2906343165086582,183664.0,155485.0,10199.0
62849.666551124494,2.3006370864532073,183658.0,155513.0,10168.0
62849.67655389443,2.3106398563904804,183696.0,155504.0,10214.0
62849.686556664376,2.3206426263350295,183691.0,155521.0,10204.0
62849.69655943431,2.3306453962723026,183692.0,155514.0,10210.0
62849.70656220426,2.3406481662168517,183665.0,155506.0,10224.0
62849.7165649742,2.3506509361614008,183663.0,155549.0,10205.0
62849.72656774414,2.360653706098674,183612.0,155519.0,10177.0
62849.736570514084,2.370656476043223,183605.0,155465.0,10166.0
62849.74657328402,2.380659245980496,183615.0,155492.0,10143.0
62849.756576053966,2.390662015925045,183562.0,155438.0,10130.0
62849.7665788239,2.4006647858623182,183564.0,155461.0,10150.0
62849.77658159385,2.4106675558068673,183526.0,155475.0,10114.0
62849.786584363785,2.4206703257441404,183479.0,155430.0,10083.0
62849.79658713373,2.4306730956886895,183514.0,155477.0,10095.0
62849.80658990367,2.4406758656259626,183465.0,155406.0,10042.0
62849.81659267361,2.4506786355705117,183480.0,155441.0,10049.0
62849.82659544355,2.460681405507785,183502.0,155452.0,10044.0
62849.83659821349,2.470684175452334,183421.0,155407.0,10014.0
62849.84660098343,2.480686945389607,183449.0,155444.0,10028.0
62849.856603753375,2.490689715334156,183459.0,155426.0,10020.0
62849.86660652331,2.500692485271429,183447.0,155428.0,10006.0
62849.87660929326,2.5106952552159782,183388.0,155399.0,9975.0
62849.886612063194,2.5206980251532514,183424.0,155429.0,9991.0
62849.89661483314,2.5307007950978004,183437.0,155417.0,9999.0
62849.906617603076,2.5407035650350736,183415.0,155424.0,10017.0
62849.91662037302,2.5507063349796226,183425.0,155418.0,9980.0
62849.926623142965,2.5607091049241717,183420.0,155412.0,9968.0
62849.9366259129,2.570711874861445,183426.0,155408.0,9985.0
62849.94662868285,2.580714644805994,183398.0,155398.0,9979.0
62849.956631452784,2.590717414743267,183418.0,155385.0,9994.0
62849.96663422273,2.600720184687816,183450.0,155437.0,10000.0
62849.976636992666,2.610722954625089,183431.0,155424.0,9995.0
62849.98663976261,2.6207257245696383,183421.0,155405.0,9970.0
62849.99664253255,2.6307284945069114,183446.0,155431.0,9970.0
62850.00664530249,2.6407312644514604,183442.0,155404.0,9998.0
62850.01664807243,2.6507340343887336,183425.0,155416.0,9994.0
62850.026650842374,2.6607368043332826,183452.0,155412.0,10003.0
62850.03665361231,2.6707395742705557,183437.0,155400.0,9997.0
62850.046656382256,2.680742344215105,183456.0,155452.0,10013.0
62850.05665915219,2.690745114152378,183456.0,155439.0,9997.0
62850.06666192214,2.700747884096927,183422.0,155430.0,9985.0
62850.076664692075,2.7107506540342,183449.0,155450.0,10008.0
62850.08666746202,2.720753423978749,183406.0,155402.0,9978.0
62850.09667023196,2.7307561939160223,183433.0,155425.0,9998.0
62850.1066730019,2.7407589638605714,183472.0,155454.0,9975.0
62850.116675771846,2.7507617338051205,183425.0,155428.0,9988.0
62850.12667854178,2.7607645037423936,183472.0,155400.0,10016.0
62850.13668131173,2.7707672736869426,183442.0,155423.0,9998.0
62850.146684081665,2.7807700436242158,183428.0,155416.0,10008.0
62850.15668685161,2.790772813568765,183465.0,155433.0,10026.0
62850.16668962155,2.800775583506038,183471.0,155432.0,10011.0
62850.17669239149,2.810778353450587,183484.0,155474.0,10038.0
62850.18669516143,2.82078112338786,183515.0,155440.0,10060.0
62850.19669793137,2.830783893332409,183472.0,155437.0,10027.0
62850.20670070131,2.8407866632696823,183487.0,155470.0,10054.0
62850.216703471255,2.8507894332142314,183523.0,155469.0,10058.0
62850.22670624119,2.8607922031515045,183498.0,155471.0,10052.0
62850.23670901114,2.8707949730960536,183557.0,155476.0,10081.0
62850.246711781074,2.8807977430333267,183535.0,155477.0,10046.0
62850.25671455102,2.8908005129778758,183546.0,155480.0,10085.0
62850.266717320956,2.900803282915149,183496.0,155462.0,10093.0
62850.2767200909,2.910806052859698,183567.0,155517.0,10105.0
62850.28672286084,2.920808822796971,183544.0,155459.0,10100.0
62850.29672563078,2.93081159274152,183582.0,155502.0,10105.0
62850.30672840073,2.940814362686069,183561.0,155478.0,10101.0
62850.316731170664,2.9508171326233423,183548.0,155495.0,10107.0
62850.32673394061,2.9608199025678914,183614.0,155544.0,10144.0
62850.336736710546,2.9708226725051645,183611.0,155515.0,10128.0
62850.34673948049,2.9808254424497136,183602.0,155513.0,10110.0
62850.35674225043,2.9908282123869867,183637.0,155509.0,10158.0
62850.36674502037,3.000830982331536,183608.0,155523.0,10132.0
62850.37674779031,3.010833752268809,183644.0,155530.0,10157.0
62850.386750560254,3.020836522213358,183678.0,155535.0,10175.0
62850.39675333019,3.030839292150631,183621.0,155515.0,10169.0
62850.406756100136,3.04084206209518,183669.0,155561.0,10204.0
62850.41675887007,3.0508448320324533,183674.0,155536.0,10177.0
62850.42676164002,3.0608476019770023,183632.0,155533.0,10179.0
62850.436764409955,3.0708503719142755,183705.0,155562.0,10208.0
62850.4467671799,3.0808531418588245,183659.0,155544.0,10171.0
62850.45676994984,3.0908559117960976,183694.0,155573.0,10210.0
62850.46677271978,3.1008586817406467,183713.0,155565.0,10239.0
62850.47677548972,3.11086145167792,183734.0,155585.0,10245.0
62850.48677825966,3.120864221622469,183761.0,155547.0,10253.0
62850.49678102961,3.130866991567018,183732.0,155583.0,10235.0
62850.506783799545,3.140869761504291,183748.0,155583.0,10229.0
62850.51678656949,3.15087253144884,183770.0,155600.0,10260.0
62850.52678933943,3.1608753013861133,183737.0,155598.0,10254.0
62850.53679210937,3.1708780713306624,183693.0,155526.0,10273.0
62850.54679487931,3.1808808412679355,183673.0,155555.0,10229.0
62850.55679764925,3.1908836112124845,183638.0,155517.0,10209.0
62850.56680041919,3.2008863811497577,183585.0,155524.0,10203.0
62850.576803189135,3.2108891510943067,183593.0,155522.0,10171.0
62850.58680595907,3.22089192103158,183587.0,155534.0,10139.0
62850.59680872902,3.230894690976129,183577.0,155491.0,10163.0
62850.606811498954,3.240897460913402,183557.0,155504.0,10093.0
62850.6168142689,3.250900230857951,183517.0,155489.0,10104.0
62850.626817038836,3.260903000795224,183481.0,155459.0,10091.0
62850.63681980878,3.2709057707397733,183501.0,155495.0,10059.0
62850.64682257872,3.2809085406770464,183471.0,155470.0,10061.0
62850.65682534866,3.2909113106215955,183476.0,155461.0,10076.0
62850.6668281186,3.3009140805588686,183458.0,155492.0,10048.0
62850.676830888544,3.3109168505034177,183440.0,155445.0,10021.0
62850.68683365848,3.320919620440691,183470.0,155465.0,10058.0
62850.696836428426,3.33092239038524,183420.0,155459.0,10006.0
62850.70683919837,3.340925160329789,183449.0,155442.0,10018.0
62850.71684196831,3.350927930267062,183462.0,155484.0,10028.0
62850.72684473825,3.360930700211611,183428.0,155446.0,9995.0
62850.73684750819,3.3709334701488842,183462.0,155458.0,10029.0
62850.746850278134,3.3809362400934333,183443.0,155456.0,9996.0
62850.75685304807,3.3909390100307064,183407.0,155432.0,9995.0
62850.766855818016,3.4009417799752555,183426.0,155457.0,10013.0
62850.77685858795,3.4109445499125286,183428.0,155448.0,10004.0
62850.7868613579,3.4209473198570777,183433.0,155465.0,9994.0
62850.796864127835,3.430950089794351,183416.0,155424.0,9979.0
62850.80686689778,3.4409528597389,183414.0,155415.0,9992.0
62850.81686966772,3.450955629676173,183427.0,155460.0,10021.0
62850.82687243766,3.460958399620722,183431.0,155454.0,9998.0
62850.8368752076,3.470961169557995,183456.0,155470.0,10000.0
62850.84687797754,3.4809639395025442,183462.0,155448.0,10019.0
62850.85688074748,3.4909667094398174,183464.0,155469.0,10012.0
62850.866883517425,3.5009694793843664,183440.0,155459.0,9999.0
62850.87688628736,3.5109722493216395,183411.0,155435.0,10029.0
62850.88688905731,3.5209750192661886,183435.0,155428.0,9996.0
62850.89689182725,3.5309777892107377,183441.0,155440.0,10016.0
62850.90689459719,3.540980559148011,183441.0,155462.0,10001.0
62850.91689736713,3.55098332909256,183449.0,155461.0,10008.0
62850.92690013707,3.560986099029833,183434.0,155451.0,10025.0
62850.936902907015,3.570988868974382,183434.0,155486.0,10026.0
62850.94690567695,3.580991638911655,183446.0,155465.0,10011.0
62850.9569084469,3.5909944088562042,183445.0,155453.0,9995.0
62850.966911216834,3.6009971787934774,183473.0,155476.0,10037.0
62850.97691398678,3.6109999487380264,183467.0,155508.0,10027.0
62850.986916756716,3.6210027186752995,183497.0,155477.0,10031.0
62850.99691952666,3.6310054886198486,183514.0,155490.0,10067.0
62851.0069222966,3.6410082585571217,183494.0,155482.0,10052.0
62851.01692506654,3.651011028501671,183542.0,155519.0,10090.0
62851.02692783648,3.661013798438944,183541.0,155507.0,10064.0
62851.036930606424,3.671016568383493,183528.0,155500.0,10072.0
62851.04693337636,3.681019338320766,183556.0,155533.0,10095.0
62851.056936146306,3.691022108265315,183563.0,155510.0,10089.0
62851.06693891624,3.7010248782025883,183559.0,155535.0,10084.0
62851.07694168619,3.7110276481471374,183531.0,155542.0,10106.0
62851.08694445613,3.7210304180916864,183566.0,155529.0,10124.0
62851.09694722607,3.7310331880289596,183569.0,155544.0,10129.0
62851.106949996014,3.7410359579735086,183585.0,155533.0,10116.0
62851.11695276595,3.7510387279107817,183559.0,155513.0,10118.0
62851.126955535896,3.761041497855331,183559.0,155533.0,10135.0
62851.13695830583,3.771044267792604,183585.0,155533.0,10129.0
62851.14696107578,3.781047037737153,183600.0,155551.0,10135.0
62851.156963845715,3.791049807674426,183637.0,155559.0,10153.0
62851.16696661566,3.801052577618975,183627.0,155555.0,10163.0
62851.1769693856,3.8110553475562483,183600.0,155538.0,10158.0
62851.18697215554,3.8210581175007974,183643.0,155576.0,10159.0
62851.19697492548,3.8310608874380705,183664.0,155577.0,10184.0
62851.20697769542,3.8410636573826196,183621.0,155549.0,10157.0
62851.21698046536,3.8510664273198927,183651.0,155554.0,10161.0
62851.226983235305,3.8610691972644418,183640.0,155561.0,10199.0
62851.23698600524,3.871071967201715,183662.0,155569.0,10214.0
62851.24698877519,3.881074737146264,183675.0,155578.0,10186.0
62851.256991545124,3.891077507083537,183665.0,155557.0,10189.0
62851.26699431507,3.901080277028086,183685.0,155582.0,10213.0
62851.276997085006,3.9110830469653592,183694.0,155592.0,10251.0
62851.28699985495,3.9210858169099083,183718.0,155609.0,10229.0
62851.297002624895,3.9310885868544574,183731.0,155622.0,10259.0
62851.30700539483,3.9410913567917305,183720.0,155602.0,10236.0
62851.31700816478,3.9510941267362796,183698.0,155581.0,10240.0
62851.327010934714,3.9610968966735527,183771.0,155630.0,10232.0
62851.33701370466,3.9710996666181018,183715.0,155600.0,10258.0
62851.347016474596,3.981102436555375,183748.0,155598.0,10272.0
62851.35701924454,3.991105206499924,183781.0,155633.0,10281.0
62851.36702201448,4.001107976437197,183802.0,155637.0,10275.0
62851.37702478442,4.011110746381746,183788.0,155636.0,10313.0
62851.38702755436,4.021113516319019,183784.0,155629.0,10297.0
62851.397030324304,4.031116286263568,183775.0,155586.0,10307.0
62851.40703309424,4.041119056200841,183811.0,155650.0,10334.0
62851.417035864186,4.0511218261453905,183773.0,155614.0,10294.0
62851.42703863412,4.061124596082664,183805.0,155645.0,10331.0
62851.43704140407,4.071127366027213,183850.0,155678.0,10352.0
62851.447044174005,4.081130135964486,183792.0,155652.0,10314.0
62851.45704694395,4.091132905909035,183852.0,155654.0,10384.0
62851.46704971389,4.101135675846308,183836.0,155642.0,10326.0
62851.47705248383,4.111138445790857,183851.0,155661.0,10335.0
62851.487055253776,4.121141215735406,183822.0,155646.0,10371.0
62851.49705802371,4.131143985672679,183862.0,155692.0,10376.0
62851.50706079366,4.141146755617228,183859.0,155663.0,10379.0
62851.517063563595,4.1511495255545015,183872.0,155659.0,10385.0
62851.52706633354,4.1611522954990505,183810.0,155637.0,10353.0
62851.53706910348,4.171155065436324,183777.0,155618.0,10357.0
62851.54707187342,4.181157835380873,183789.0,155637.0,10329.0
62851.55707464336,4.191160605318146,183718.0,155639.0,10323.0
62851.5670774133,4.201163375262695,183737.0,155631.0,10324.0
62851.57708018324,4.211166145199968,183701.0,155616.0,10283.0
62851.587082953185,4.221168915144517,183652.0,155575.0,10224.0
62851.59708572312,4.23117168508179,183604.0,155557.0,10252.0
62851.60708849307,4.241174455026339,183622.0,155577.0,10233.0
62851.617091263004,4.251177224963612,183588.0,155533.0,10218.0
62851.62709403295,4.2611799949081615,183577.0,155547.0,10172.0
62851.637096802886,4.271182764845435,183603.0,155524.0,10165.0
62851.64709957283,4.281185534789984,183577.0,155563.0,10167.0
62851.65710234277,4.291188304727257,183538.0,155564.0,10150.0
62851.66710511271,4.301191074671806,183554.0,155538.0,10139.0
62851.67710788266,4.311193844616355,183517.0,155538.0,10127.0
62851.687110652594,4.321196614553628,183572.0,155552.0,10099.0
62851.69711342254,4.331199384498177,183532.0,155554.0,10108.0
62851.707116192476,4.34120215443545,183535.0,155527.0,10091.0
62851.71711896242,4.351204924379999,183532.0,155523.0,10082.0
62851.72712173236,4.361207694317272,183532.0,155501.0,10093.0
62851.7371245023,4.3712104642618215,183495.0,155495.0,10075.0
62851.74712727224,4.381213234199095,183457.0,155479.0,10100.0
62851.757130042184,4.391216004143644,183491.0,155500.0,10069.0
62851.76713281212,4.401218774080917,183510.0,155533.0,10079.0
62851.777135582066,4.411221544025466,183521.0,155516.0,10097.0
62851.787138352,4.421224313962739,183470.0,155479.0,10040.0
62851.79714112195,4.431227083907288,183508.0,155498.0,10065.0
62851.807143891885,4.441229853844561,183463.0,155521.0,10061.0
62851.81714666183,4.45123262378911,183509.0,155526.0,10075.0
62851.82714943177,4.461235393726383,183501.0,155478.0,10058.0
62851.83715220171,4.471238163670932,183508.0,155496.0,10059.0
62851.84715497165,4.4812409336082055,183480.0,155489.0,10066.0
62851.85715774159,4.491243703552755,183522.0,155517.0,10084.0
62851.86716051154,4.501246473497304,183421.0,155458.0,10072.0
62851.877163281475,4.511249243434577,183500.0,155493.0,10070.0
62851.88716605142,4.521252013379126,183489.0,155505.0,10061.0
62851.89716882136,4.531254783316399,183492.0,155508.0,10057.0
62851.9071715913,4.541257553260948,183475.0,155473.0,10043.0
62851.91717436124,4.551260323198221,183502.0,155490.0,10052.0
62851.92717713118,4.56126309314277,183520.0,155498.0,10070.0
62851.93717990112,4.571265863080043,183505.0,155517.0,10073.0
62851.947182671065,4.581268633024592,183489.0,155501.0,10038.0
62851.957185441,4.5912714029618655,183510.0,155518.0,10063.0
62851.96718821095,4.601274172906415,183520.0,155513.0,10090.0
62851.977190980884,4.611276942843688,183531.0,155526.0,10055.0
62851.98719375083,4.621279712788237,183492.0,155523.0,10066.0
62851.997196520766,4.63128248272551,183506.0,155494.0,10067.0
62852.00719929071,4.641285252670059,183494.0,155508.0,10061.0
62852.01720206065,4.651288022607332,183500.0,155506.0,10074.0
62852.02720483059,4.661290792551881,183557.0,155550.0,10127.0
62852.03720760053,4.671293562489154,183557.0,155528.0,10094.0
62852.047210370474,4.681296332433703,183583.0,155550.0,10094.0
62852.05721314041,4.6912991023709765,183548.0,155516.0,10083.0
62852.067215910356,4.7013018723155255,183566.0,155534.0,10097.0
62852.0772186803,4.711304642260075,183599.0,155545.0,10114.0
62852.08722145024,4.721307412197348,183604.0,155555.0,10116.0
62852.09722422018,4.731310182141897,183578.0,155526.0,10121.0
62852.10722699012,4.74131295207917,183573.0,155519.0,10166.0
62852.117229760064,4.751315722023719,183613.0,155565.0,10147.0
62852.12723253,4.761318491960992,183566.0,155554.0,10112.0
62852.137235299946,4.771321261905541,183592.0,155540.0,10143.0
62852.14723806988,4.781324031842814,183639.0,155571.0,10141.0
62852.15724083983,4.791326801787363,183636.0,155564.0,10162.0
62852.167243609765,4.8013295717246365,183632.0,155544.0,10169.0
62852.17724637971,4.8113323416691856,183627.0,155558.0,10159.0
62852.18724914965,4.821335111606459,183656.0,155566.0,10168.0
62852.19725191959,4.831337881551008,183663.0,155585.0,10181.0
62852.20725468953,4.841340651488281,183627.0,155579.0,10181.0
62852.21725745947,4.85134342143283,183647.0,155554.0,10179.0
62852.22726022941,4.861346191370103,183657.0,155598.0,10217.0
62852.237262999355,4.871348961314652,183683.0,155591.0,10208.0
62852.24726576929,4.881351731251925,183697.0,155590.0,10198.0
62852.25726853924,4.891354501196474,183651.0,155612.0,10221.0
62852.26727130918,4.901357271141023,183687.0,155578.0,10211.0
62852.27727407912,4.9113600410782965,183707.0,155605.0,10234.0
62852.28727684906,4.921362811022846,183689.0,155583.0,10234.0
62852.297279619,4.931365580960119,183685.0,155585.0,10228.0
62852.307282388945,4.941368350904668,183704.0,155622.0,10242.0
62852.31728515888,4.951371120841941,183746.0,155612.0,10264.0
62852.32728792883,4.96137389078649,183758.0,155601.0,10255.0
62852.337290698764,4.971376660723763,183772.0,155618.0,10272.0
62852.34729346871,4.981379430668312,183766.0,155613.0,10279.0
62852.357296238646,4.991382200605585,183783.0,155627.0,10295.0
62852.36729900859,5.001384970550134,183761.0,155639.0,10304.0
62852.37730177853,5.011387740487407,183774.0,155635.0,10285.0
62852.38730454847,5.0213905104319565,183783.0,155629.0,10303.0
62852.39730731841,5.03139328036923,183820.0,155658.0,10337.0
62852.407310088354,5.041396050313779,183793.0,155627.0,10311.0
62852.41731285829,5.051398820251052,183804.0,155625.0,10310.0
62852.427315628236,5.061401590195601,183840.0,155695.0,10347.0
62852.43731839817,5.071404360132874,183824.0,155665.0,10339.0
62852.44732116812,5.081407130077423,183793.0,155643.0,10341.0
62852.45732393806,5.091409900021972,183838.0,155663.0,10334.0
62852.467326708,5.101412669959245,183751.0,155625.0,10328.0
62852.477329477944,5.111415439903794,183759.0,155635.0,10302.0
62852.48733224788,5.121418209841067,183704.0,155596.0,10281.0
62852.497335017826,5.1314209797856165,183693.0,155619.0,10283.0
62852.50733778776,5.14142374972289,183694.0,155603.0,10254.0
62852.51734055771,5.151426519667439,183649.0,155581.0,10215.0
62852.527343327645,5.161429289604712,183614.0,155587.0,10217.0
62852.53734609759,5.171432059549261,183634.0,155583.0,10205.0
62852.54734886753,5.181434829486534,183559.0,155553.0,10179.0
62852.55735163747,5.191437599431083,183596.0,155547.0,10153.0
62852.56735440741,5.201440369368356,183579.0,155543.0,10155.0
62852.57735717735,5.211443139312905,183579.0,155544.0,10130.0
62852.58735994729,5.221445909250178,183617.0,155540.0,10159.0
62852.597362717235,5.2314486791947274,183569.0,155552.0,10146.0
62852.60736548717,5.241451449132001,183560.0,155519.0,10157.0
62852.61736825712,5.25145421907655,183550.0,155562.0,10136.0
62852.627371027054,5.261456989013823,183547.0,155552.0,10123.0
62852.637373797,5.271459758958372,183541.0,155544.0,10093.0
62852.647376566936,5.281462528895645,183562.0,155515.0,10109.0
62852.65737933688,5.291465298840194,183583.0,155516.0,10129.0
62852.667382106825,5.301468068784743,183527.0,155526.0,10106.0
62852.67738487676,5.311470838722016,183516.0,155527.0,10083.0
62852.68738764671,5.321473608666565,183533.0,155511.0,10098.0
62852.697390416644,5.331476378603838,183532.0,155493.0,10084.0
62852.70739318659,5.3414791485483875,183534.0,155519.0,10087.0
62852.717395956526,5.351481918485661,183528.0,155503.0,10107.0
62852.72739872647,5.36148468843021,183545.0,155532.0,10099.0
62852.73740149641,5.371487458367483,183584.0,155563.0,10110.0
62852.74740426635,5.381490228312032,183541.0,155540.0,10083.0
62852.75740703629,5.391492998249305,183595.0,155545.0,10104.0
62852.767409806234,5.401495768193854,183568.0,155538.0,10100.0
62852.77741257617,5.411498538131127,183537.0,155523.0,10101.0
62852.787415346116,5.421501308075676,183586.0,155567.0,10124.0
62852.79741811605,5.431504078012949,183553.0,155533.0,10103.0
62852.807420886,5.441506847957498,183554.0,155540.0,10087.0
62852.817423655935,5.4515096178947715,183555.0,155567.0,10109.0
62852.82742642588,5.461512387839321,183550.0,155516.0,10089.0
62852.83742919582,5.471515157776594,183530.0,155509.0,10100.0
62852.84743196576,5.481517927721143,183566.0,155532.0,10086.0
62852.857434735706,5.491520697665692,183531.0,155516.0,10091.0
62852.86743750564,5.501523467602965,183516.0,155511.0,10109.0
62852.87744027559,5.511526237547514,183567.0,155539.0,10085.0
62852.887443045525,5.521529007484787,183576.0,155546.0,10096.0
62852.89744581547,5.531531777429336,183596.0,155554.0,10094.0
62852.90744858541,5.541534547366609,183609.0,155565.0,10109.0
62852.91745135535,5.551537317311158,183598.0,155529.0,10142.0
62852.92745412529,5.5615400872484315,183595.0,155540.0,10118.0
62852.93745689523,5.571542857192981,183616.0,155553.0,10142.0
62852.94745966517,5.581545627130254,183607.0,155531.0,10157.0
62852.957462435115,5.591548397074803,183612.0,155543.0,10133.0
62852.96746520505,5.601551167012076,183621.0,155572.0,10134.0
62852.977467975,5.611553936956625,183608.0,155557.0,10150.0
62852.987470744934,5.621556706893898,183632.0,155579.0,10167.0
62852.99747351488,5.631559476838447,183635.0,155572.0,10123.0
62853.007476284816,5.64156224677572,183649.0,155590.0,10179.0
62853.01747905476,5.651565016720269,183672.0,155565.0,10186.0
62853.0274818247,5.6615677866575425,183670.0,155562.0,10156.0
62853.03748459464,5.6715705566020915,183699.0,155612.0,10208.0
62853.04748736459,5.681573326546641,183687.0,155603.0,10191.0
62853.057490134524,5.691576096483914,183677.0,155585.0,10157.0
62853.06749290447,5.701578866428463,183711.0,155618.0,10210.0
62853.077495674406,5.711581636365736,183665.0,155569.0,10192.0
62853.08749844435,5.721584406310285,183712.0,155599.0,10219.0
62853.09750121429,5.731587176247558,183742.0,155602.0,10212.0
62853.10750398423,5.741589946192107,183710.0,155602.0,10213.0
62853.11750675417,5.75159271612938,183752.0,155641.0,10253.0
62853.127509524114,5.761595486073929,183739.0,155613.0,10226.0
62853.13751229405,5.7715982560112025,183712.0,155619.0,10220.0
62853.147515063996,5.7816010259557515,183749.0,155637.0,10261.0
62853.15751783393,5.791603795893025,183759.0,155615.0,10243.0
62853.16752060388,5.801606565837574,183757.0,155638.0,10254.0
62853.177523373815,5.811609335774847,183759.0,155635.0,10299.0
62853.18752614376,5.821612105719396,183776.0,155645.0,10267.0
62853.1975289137,5.831614875656669,183764.0,155635.0,10256.0
62853.20753168364,5.841617645601218,183780.0,155631.0,10287.0
62853.21753445358,5.851620415538491,183795.0,155639.0,10307.0
62853.22753722352,5.86162318548304,183792.0,155633.0,10290.0
62853.23753999347,5.871625955427589,183789.0,155661.0,10296.0
62853.247542763405,5.8816287253648625,183817.0,155654.0,10304.0
62853.25754553335,5.8916314953094115,183829.0,155662.0,10305.0
62853.26754830329,5.901634265246685,183860.0,155691.0,10297.0
62853.27755107323,5.911637035191234,183825.0,155665.0,10344.0
62853.28755384317,5.921639805128507,183836.0,155673.0,10338.0
62853.29755661311,5.931642575073056,183853.0,155658.0,10374.0
62853.30755938305,5.941645345010329,183817.0,155670.0,10329.0
62853.317562152995,5.951648114954878,183843.0,155668.0,10356.0
62853.32756492293,5.961650884892151,183757.0,155635.0,10319.0
62853.33756769288,5.9716536548367,183729.0,155587.0,10276.0
62853.347570462814,5.981656424773973,183731.0,155639.0,10298.0
62853.35757323276,5.9916591947185225,183666.0,155598.0,10241.0
62853.367576002696,6.001661964655796,183691.0,155613.0,10234.0
62853.37757877264,6.011664734600345,183688.0,155625.0,10228.0
62853.38758154258,6.021667504537618,183617.0,155575.0,10183.0
62853.39758431252,6.031670274482167,183588.0,155572.0,10154.0
62853.40758708246,6.04167304441944,183608.0,155561.0,10157.0
62853.417589852404,6.051675814363989,183617.0,155567.0,10132.0
62853.42759262234,6.061678584301262,183605.0,155576.0,10158.0
62853.437595392286,6.071681354245811,183582.0,155541.0,10116.0
62853.44759816223,6.08168412419036,183591.0,155559.0,10121.0
62853.45760093217,6.091686894127633,183573.0,155518.0,10119.0
62853.46760370211,6.1016896640721825,183581.0,155523.0,10120.0
62853.47760647205,6.111692434009456,183586.0,155561.0,10125.0
62853.487609241995,6.121695203954005,183561.0,155542.0,10110.0
62853.49761201193,6.131697973891278,183537.0,155569.0,10085.0
62853.507614781876,6.141700743835827,183573.0,155513.0,10121.0
62853.51761755181,6.1517035137731,183549.0,155546.0,10067.0
62853.52762032176,6.161706283717649,183542.0,155524.0,10114.0
62853.537623091695,6.171709053654922,183536.0,155539.0,10071.0
62853.54762586164,6.181711823599471,183521.0,155517.0,10073.0
62853.55762863158,6.191714593536744,183566.0,155542.0,10102.0
62853.56763140152,6.201717363481293,183559.0,155536.0,10092.0
62853.57763417146,6.2117201334185665,183556.0,155524.0,10098.0
62853.5876369414,6.221722903363116,183564.0,155566.0,10099.0
62853.59763971134,6.231725673300389,183538.0,155529.0,10077.0
62853.607642481285,6.241728443244938,183572.0,155529.0,10107.0
62853.61764525122,6.251731213182211,183554.0,155538.0,10090.0
62853.62764802117,6.26173398312676,183589.0,155561.0,10089.0
62853.63765079111,6.271736753071309,183556.0,155520.0,10079.0
62853.64765356105,6.281739523008582,183581.0,155535.0,10098.0
62853.65765633099,6.291742292953131,183562.0,155518.0,10091.0
62853.66765910093,6.301745062890404,183525.0,155507.0,10098.0
62853.677661870875,6.311747832834953,183580.0,155553.0,10113.0
62853.68766464081,6.321750602772227,183545.0,155513.0,10077.0
62853.69766741076,6.331753372716776,183566.0,155540.0,10087.0
62853.707670180695,6.341756142654049,183575.0,155555.0,10092.0
62853.71767295064,6.351758912598598,183545.0,155514.0,10073.0
62853.72767572058,6.361761682535871,183543.0,155523.0,10101.0
62853.73767849052,6.37176445248042,183558.0,155539.0,10103.0
62853.74768126046,6.381767222417693,183545.0,155562.0,10097.0
62853.7576840304,6.391769992362242,183610.0,155551.0,10124.0
62853.76768680034,6.401772762299515,183588.0,155557.0,10097.0
62853.777689570285,6.411775532244064,183608.0,155546.0,10116.0
62853.78769234022,6.4217783021813375,183621.0,155568.0,10149.0
62853.79769511017,6.431781072125887,183616.0,155555.0,10129.0
62853.807697880104,6.44178384206316,183599.0,155524.0,10134.0
62853.81770065005,6.451786612007709,183641.0,155552.0,10141.0
62853.82770341999,6.461789381952258,183641.0,155591.0,10172.0
62853.83770618993,6.471792151889531,183611.0,155557.0,10140.0
62853.847708959875,6.48179492183408,183656.0,155572.0,10144.0
62853.85771172981,6.491797691771353,183682.0,155619.0,10182.0
62853.86771449976,6.501800461715902,183669.0,155566.0,10157.0
62853.877717269694,6.511803231653175,183667.0,155579.0,10142.0
62853.88772003964,6.521806001597724,183665.0,155558.0,10170.0
62853.897722809575,6.5318087715349975,183695.0,155591.0,10177.0
62853.90772557952,6.541811541479547,183711.0,155603.0,10194.0
62853.91772834946,6.55181431141682,183687.0,155570.0,10191.0
62853.9277311194,6.561817081361369,183672.0,155607.0,10215.0
62853.93773388934,6.571819851298642,183719.0,155600.0,10205.0
62853.947736659284,6.581822621243191,183728.0,155598.0,10196.0
62853.95773942922,6.591825391180464,183747.0,155632.0,10236.0
62853.967742199166,6.601828161125013,183737.0,155605.0,10225.0
62853.9777449691,6.611830931062286,183745.0,155629.0,10232.0
62853.98774773905,6.621833701006835,183795.0,155636.0,10259.0
62853.997750508985,6.631836470944108,183719.0,155610.0,10224.0
62854.00775327893,6.6418392408886575,183768.0,155620.0,10272.0
62854.01775604887,6.651842010825931,183752.0,155623.0,10252.0
62854.02775881881,6.66184478077048,183773.0,155634.0,10253.0
62854.037761588756,6.671847550715029,183747.0,155617.0,10265.0
62854.04776435869,6.681850320652302,183794.0,155669.0,10288.0
62854.05776712864,6.691853090596851,183779.0,155638.0,10278.0
62854.067769898575,6.701855860534124,183794.0,155634.0,10288.0
62854.07777266852,6.711858630478673,183773.0,155624.0,10279.0
62854.08777543846,6.721861400415946,183809.0,155688.0,10312.0
62854.0977782084,6.731864170360495,183817.0,155662.0,10305.0
62854.10778097834,6.7418669402977685,183785.0,155649.0,10299.0
62854.11778374828,6.7518697102423175,183839.0,155662.0,10321.0
62854.12778651822,6.761872480179591,183823.0,155677.0,10337.0
62854.137789288165,6.77187525012414,183835.0,155659.0,10330.0
62854.1477920581,6.781878020061413,183821.0,155657.0,10356.0
62854.15779482805,6.791880790005962,183875.0,155707.0,10344.0
62854.167797597984,6.801883559943235,183875.0,155647.0,10347.0
62854.17780036793,6.811886329887784,183860.0,155675.0,10346.0
62854.187803137866,6.821889099825057,183827.0,155653.0,10343.0
62854.19780590781,6.831891869769606,183782.0,155641.0,10325.0
62854.20780867775,6.841894639706879,183793.0,155668.0,10333.0
62854.21781144769,6.8518974096514285,183753.0,155620.0,10301.0
62854.22781421764,6.8619001795959775,183700.0,155608.0,10244.0
62854.237816987574,6.871902949533251,183689.0,155624.0,10260.0
62854.24781975752,6.8819057194778,183634.0,155596.0,10221.0
62854.257822527456,6.891908489415073,183652.0,155581.0,10203.0
62854.2678252974,6.901911259359622,183651.0,155576.0,10206.0
62854.27782806734,6.911914029296895,183594.0,155546.0,10180.0
62854.28783083728,6.921916799241444,183619.0,155561.0,10162.0
62854.29783360722,6.931919569178717,183618.0,155570.0,10147.0
62854.307836377164,6.941922339123266,183597.0,155539.0,10130.0
62854.3178391471,6.951925109060539,183600.0,155569.0,10163.0
62854.327841917046,6.9619278790050885,183579.0,155535.0,10125.0
62854.33784468698,6.971930648942362,183579.0,155552.0,10117.0
62854.34784745693,6.981933418886911,183601.0,155577.0,10137.0
62854.357850226865,6.991936188824184,183531.0,155537.0,10103.0
62854.36785299681,7.001938958768733,183576.0,155564.0,10125.0
62854.37785576675,7.011941728706006,183558.0,155537.0,10101.0
62854.38785853669,7.021944498650555,183543.0,155524.0,10068.0
62854.39786130663,7.031947268587828,183545.0,155537.0,10103.0
62854.40786407657,7.041950038532377,183534.0,155507.0,10063.0
62854.41786684652,7.051952808476926,183543.0,155530.0,10082.0
62854.427869616455,7.061955578414199,183519.0,155508.0,10066.0
62854.4378723864,7.0719583483587485,183573.0,155534.0,10085.0
62854.44787515634,7.081961118296022,183526.0,155541.0,10089.0
62854.45787792628,7.091963888240571,183558.0,155545.0,10071.0
62854.46788069622,7.101966658177844,183574.0,155553.0,10093.0
62854.47788346616,7.111969428122393,183569.0,155517.0,10084.0
62854.4878862361,7.121972198059666,183557.0,155545.0,10084.0
62854.497889006045,7.131974968004215,183576.0,155521.0,10071.0
62854.50789177598,7.141977737941488,183548.0,155518.0,10109.0
62854.51789454593,7.151980507886037,183533.0,155530.0,10083.0
62854.527897315864,7.16198327782331,183543.0,155482.0,10089.0
62854.53790008581,7.171986047767859,183548.0,155525.0,10087.0
62854.547902855746,7.1819888177051325,183553.0,155547.0,10078.0
62854.55790562569,7.191991587649682,183567.0,155531.0,10076.0
62854.56790839563,7.201994357586955,183542.0,155540.0,10086.0
62854.57791116557,7.211997127531504,183531.0,155532.0,10065.0
62854.58791393551,7.221999897468777,183570.0,155546.0,10088.0
62854.597916705454,7.232002667413326,183600.0,155542.0,10064.0
62854.6079194754,7.242005437357875,183546.0,155514.0,10079.0
62854.617922245336,7.252008207295148,183597.0,155538.0,10107.0
62854.62792501528,7.262010977239697,183583.0,155563.0,10101.0
62854.63792778522,7.27201374717697,183597.0,155566.0,10079.0
62854.64793055516,7.282016517121519,183619.0,155573.0,10105.0
62854.6579333251,7.2920192870587925,183571.0,155529.0,10097.0
62854.667936095044,7.302022057003342,183611.0,155560.0,10123.0
62854.67793886498,7.312024826940615,183636.0,155583.0,10138.0
62854.687941634926,7.322027596885164,183599.0,155548.0,10122.0
62854.69794440486,7.332030366822437,183663.0,155589.0,10159.0
62854.70794717481,7.342033136766986,183637.0,155580.0,10138.0
62854.717949944745,7.352035906704259,183629.0,155541.0,10134.0
62854.72795271469,7.362038676648808,183663.0,155610.0,10185.0
62854.73795548463,7.372041446586081,183659.0,155582.0,10134.0
62854.74795825457,7.38204421653063,183683.0,155586.0,10162.0
62854.75796102451,7.3920469864679035,183652.0,155573.0,10221.0
62854.76796379445,7.4020497564124526,183679.0,155598.0,10177.0
62854.77796656439,7.412052526349726,183703.0,155597.0,10183.0
62854.787969334335,7.422055296294275,183660.0,155579.0,10175.0
62854.79797210427,7.432058066231548,183707.0,155605.0,10185.0
62854.80797487422,7.442060836176097,183734.0,155610.0,10201.0
62854.81797764416,7.452063606120646,183749.0,155609.0,10237.0
62854.8279804141,7.462066376057919,183728.0,155619.0,10215.0
62854.83798318404,7.472069146002468,183748.0,155609.0,10209.0
62854.84798595398,7.482071915939741,183735.0,155606.0,10219.0
62854.857988723925,7.49207468588429,183757.0,155612.0,10247.0
62854.86799149386,7.5020774558215635,183760.0,155620.0,10239.0
62854.87799426381,7.512080225766113,183757.0,155636.0,10238.0
62854.887997033744,7.522082995703386,183793.0,155651.0,10264.0
62854.89799980369,7.532085765647935,183800.0,155621.0,10245.0
62854.908002573626,7.542088535585208,183789.0,155640.0,10273.0
62854.91800534357,7.552091305529757,183797.0,155685.0,10246.0
62854.92800811351,7.56209407546703,183784.0,155672.0,10310.0
62854.93801088345,7.572096845411579,183790.0,155613.0,10275.0
62854.94801365339,7.582099615348852,183812.0,155660.0,10288.0
62854.958016423334,7.592102385293401,183845.0,155697.0,10291.0
62854.96801919327,7.602105155230674,183806.0,155669.0,10294.0
62854.978021963216,7.6121079251752235,183864.0,155691.0,10320.0
62854.98802473315,7.622110695112497,183858.0,155668.0,10321.0
62854.9980275031,7.632113465057046,183861.0,155663.0,10313.0
62855.00803027304,7.642116235001595,183854.0,155665.0,10365.0
62855.01803304298,7.652119004938868,183873.0,155707.0,10336.0
62855.028035812924,7.662121774883417,183893.0,155692.0,10346.0
62855.03803858286,7.67212454482069,183880.0,155702.0,10358.0
62855.048041352806,7.682127314765239,183894.0,155676.0,10349.0
62855.05804412274,7.692130084702512,183909.0,155670.0,10365.0
62855.06804689269,7.702132854647061,183916.0,155704.0,10366.0
62855.078049662625,7.712135624584334,183885.0,155689.0,10377.0
62855.08805243257,7.7221383945288835,183939.0,155721.0,10395.0
62855.09805520251,7.732141164466157,183869.0,155679.0,10361.0
62855.10805797245,7.742143934410706,183860.0,155681.0,10359.0
62855.11806074239,7.752146704347979,183825.0,155633.0,10363.0
62855.12806351233,7.762149474292528,183787.0,155639.0,10319.0
62855.13806628227,7.772152244229801,183766.0,155621.0,10304.0
62855.148069052215,7.78215501417435,183757.0,155640.0,10279.0
62855.15807182215,7.792157784111623,183709.0,155622.0,10237.0
62855.1680745921,7.802160554056172,183677.0,155586.0,10233.0
62855.178077362034,7.812163323993445,183675.0,155628.0,10218.0
62855.18808013198,7.8221660939379944,183689.0,155625.0,10225.0
62855.19808290192,7.8321688638825435,183689.0,155579.0,10215.0
62855.20808567186,7.842171633819817,183647.0,155581.0,10169.0
62855.218088441805,7.852174403764366,183652.0,155579.0,10170.0
62855.22809121174,7.862177173701639,183641.0,155585.0,10169.0
62855.23809398169,7.872179943646188,183632.0,155576.0,10137.0
62855.248096751624,7.882182713583461,183609.0,155533.0,10151.0
62855.25809952157,7.89218548352801,183632.0,155543.0,10128.0
62855.268102291506,7.902188253465283,183636.0,155569.0,10137.0
62855.27810506145,7.912191023409832,183608.0,155551.0,10137.0
62855.28810783139,7.922193793347105,183578.0,155562.0,10106.0
62855.29811060133,7.9321965632916545,183596.0,155532.0,10111.0
62855.30811337127,7.942199333228928,183590.0,155563.0,10120.0
62855.318116141214,7.952202103173477,183512.0,155551.0,10087.0
62855.32811891115,7.96220487311075,183564.0,155521.0,10096.0
62855.338121681096,7.972207643055299,183570.0,155544.0,10095.0
62855.34812445103,7.982210412992572,183587.0,155556.0,10106.0
62855.35812722098,7.992213182937121,183593.0,155559.0,10098.0
62855.368129990915,8.002215952874394,183608.0,155542.0,10086.0
62855.37813276086,8.012218722818943,183613.0,155550.0,10103.0
62855.388135530804,8.022221492763492,183611.0,155553.0,10103.0
62855.39813830074,8.032224262700765,183570.0,155579.0,10096.0
62855.408141070686,8.042227032645314,183583.0,155536.0,10113.0
62855.41814384062,8.052229802582588,183615.0,155558.0,10088.0
62855.42814661057,8.062232572527137,183611.0,155565.0,10073.0
62855.438149380505,8.07223534246441,183581.0,155557.0,10111.0
62855.44815215045,8.082238112408959,183568.0,155527.0,10079.0
62855.45815492039,8.092240882346232,183611.0,155570.0,10091.0
62855.46815769033,8.102243652290781,183578.0,155537.0,10088.0
62855.47816046027,8.112246422228054,183580.0,155540.0,10120.0
62855.48816323021,8.122249192172603,183566.0,155543.0,10096.0
62855.49816600015,8.132251962109876,183596.0,155566.0,10132.0
62855.508168770095,8.142254732054425,183572.0,155559.0,10077.0
62855.51817154003,8.152257501991699,183613.0,155539.0,10115.0
62855.52817430998,8.162260271936248,183641.0,155584.0,10102.0
62855.538177079914,8.17226304187352,183616.0,155556.0,10099.0
62855.54817984986,8.18226581181807,183606.0,155560.0,10113.0
62855.558182619796,8.192268581755343,183650.0,155568.0,10126.0
62855.56818538974,8.202271351699892,183655.0,155612.0,10146.0
62855.57818815968,8.212274121637165,183667.0,155602.0,10159.0
62855.58819092962,8.222276891581714,183616.0,155556.0,10125.0
62855.59819369957,8.232279661526263,183659.0,155576.0,10157.0
62855.608196469504,8.242282431463536,183679.0,155607.0,10178.0
62855.61819923945,8.252285201408085,183710.0,155608.0,10164.0
62855.628202009386,8.262287971345359,183678.0,155586.0,10158.0
62855.63820477933,8.272290741289908,183703.0,155589.0,10176.0
62855.64820754927,8.28229351122718,183738.0,155609.0,10188.0
62855.65821031921,8.29229628117173,183742.0,155619.0,10195.0
62855.66821308915,8.302299051109003,183691.0,155585.0,10179.0
62855.678215859094,8.312301821053552,183717.0,155634.0,10203.0
62855.68821862903,8.322304590990825,183741.0,155632.0,10226.0
62855.698221398976,8.332307360935374,183721.0,155604.0,10205.0
62855.70822416891,8.342310130872647,183740.0,155631.0,10232.0
62855.71822693886,8.352312900817196,183752.0,155630.0,10217.0
62855.728229708795,8.36231567075447,183742.0,155618.0,10219.0
62855.73823247874,8.372318440699019,183762.0,155649.0,10258.0
62855.74823524868,8.382321210636292,183749.0,155617.0,10242.0
62855.75823801862,8.39232398058084,183798.0,155654.0,10253.0
62855.76824078856,8.402326750518114,183796.0,155635.0,10258.0
62855.7782435585,8.412329520462663,183816.0,155679.0,10259.0
62855.78824632845,8.422332290407212,183803.0,155673.0,10264.0
62855.798249098385,8.432335060344485,183820.0,155663.0,10272.0
62855.80825186833,8.442337830289034,183857.0,155665.0,10301.0
62855.81825463827,8.452340600226307,183811.0,155652.0,10300.0
62855.82825740821,8.462343370170856,183859.0,155657.0,10317.0
62855.83826017815,8.47234614010813,183868.0,155681.0,10296.0
62855.84826294809,8.482348910052679,183843.0,155688.0,10356.0
62855.85826571803,8.492351679989952,183858.0,155703.0,10333.0
62855.868268487975,8.5023544499345,183884.0,155709.0,10316.0
62855.87827125791,8.512357219871774,183867.0,155694.0,10328.0
62855.88827402786,8.522359989816323,183915.0,155712.0,10345.0
62855.898276797794,8.532362759753596,183887.0,155677.0,10316.0
62855.90827956774,8.542365529698145,183935.0,155732.0,10375.0
62855.918282337676,8.552368299635418,183914.0,155707.0,10349.0
62855.92828510762,8.562371069579967,183914.0,155702.0,10364.0
62855.93828787756,8.57237383951724,183949.0,155745.0,10379.0
62855.9482906475,8.58237660946179,183954.0,155722.0,10399.0
62855.95829341744,8.592379379399063,183950.0,155743.0,10385.0
62855.968296187384,8.602382149343612,183985.0,155725.0,10413.0
62855.97829895733,8.61238491928816,183953.0,155719.0,10406.0
62855.988301727266,8.622387689225434,183985.0,155747.0,10416.0
62855.99830449721,8.632390459169983,183976.0,155744.0,10412.0
62856.00830726715,8.642393229107256,183953.0,155743.0,10449.0
62856.01831003709,8.652395999051805,183980.0,155752.0,10420.0
62856.02831280703,8.662398768989078,184013.0,155791.0,10430.0
62856.038315576974,8.672401538933627,184024.0,155751.0,10443.0
62856.04831834691,8.6824043088709,184014.0,155767.0,10449.0
62856.058321116856,8.69240707881545,184047.0,155788.0,10480.0
62856.06832388679,8.702409848752723,184037.0,155742.0,10473.0
62856.07832665674,8.712412618697272,184045.0,155771.0,10466.0
62856.088329426675,8.722415388634545,184062.0,155768.0,10509.0
62856.09833219662,8.732418158579094,184007.0,155758.0,10475.0
62856.10833496656,8.742420928516367,183968.0,155790.0,10478.0
62856.1183377365,8.752423698460916,183973.0,155728.0,10456.0
62856.12834050644,8.76242646839819,183944.0,155729.0,10434.0
62856.13834327638,8.772429238342738,183946.0,155750.0,10429.0
62856.14834604632,8.782432008280011,183892.0,155707.0,10394.0
62856.158348816265,8.79243477822456,183873.0,155706.0,10382.0
62856.1683515862,8.802437548161834,183855.0,155682.0,10378.0
62856.17835435615,8.812440318106383,183841.0,155705.0,10356.0
62856.18835712609,8.822443088050932,183832.0,155686.0,10336.0
62856.19835989603,8.832445857988205,183789.0,155664.0,10299.0
62856.20836266597,8.842448627932754,183755.0,155645.0,10279.0
62856.21836543591,8.852451397870027,183792.0,155664.0,10284.0
62856.228368205855,8.862454167814576,183758.0,155625.0,10254.0
62856.23837097579,8.87245693775185,183755.0,155658.0,10248.0
62856.24837374574,8.882459707696398,183716.0,155674.0,10248.0
62856.258376515674,8.892462477633671,183690.0,155655.0,10251.0
62856.26837928562,8.90246524757822,183734.0,155628.0,10249.0
62856.278382055556,8.912468017515494,183735.0,155629.0,10214.0
62856.2883848255,8.922470787460043,183735.0,155645.0,10199.0
62856.29838759544,8.932473557397316,183701.0,155605.0,10231.0
62856.30839036538,8.942476327341865,183684.0,155612.0,10199.0
62856.31839313532,8.952479097279138,183692.0,155611.0,10197.0
62856.328395905264,8.962481867223687,183689.0,155579.0,10201.0
62856.3383986752,8.97248463716096,183707.0,155605.0,10187.0
62856.348401445146,8.98248740710551,183672.0,155597.0,10179.0
62856.35840421508,8.992490177042782,183683.0,155617.0,10173.0
62856.36840698503,9.002492946987331,183661.0,155642.0,10178.0
62856.37840975497,9.01249571693188,183676.0,155569.0,10152.0
62856.38841252491,9.022498486869154,183698.0,155607.0,10145.0
62856.398415294854,9.032501256813703,183677.0,155596.0,10157.0
62856.40841806479,9.042504026750976,183673.0,155567.0,10192.0
62856.418420834736,9.052506796695525,183696.0,155620.0,10204.0
62856.42842360467,9.062509566632798,183668.0,155596.0,10161.0
62856.43842637462,9.072512336577347,183686.0,155597.0,10193.0
62856.448429144555,9.08251510651462,183685.0,155609.0,10182.0
62856.4584319145,9.09251787645917,183653.0,155580.0,10148.0
62856.46843468444,9.102520646396442,183675.0,155625.0,10180.0
62856.47843745438,9.112523416340991,183674.0,155603.0,10188.0
62856.48844022432,9.122526186278265,183690.0,155629.0,10186.0
62856.49844299426,9.132528956222814,183706.0,155622.0,10176.0
62856.5084457642,9.142531726160087,183673.0,155598.0,10146.0
62856.518448534145,9.152534496104636,183690.0,155586.0,10196.0
62856.52845130408,9.162537266041909,183686.0,155613.0,10170.0
62856.53845407403,9.172540035986458,183685.0,155585.0,10171.0
62856.548456843964,9.182542805923731,183716.0,155626.0,10215.0
62856.55845961391,9.19254557586828,183716.0,155631.0,10182.0
62856.56846238385,9.20254834581283,183707.0,155624.0,10193.0
62856.57846515379,9.212551115750102,183735.0,155617.0,10200.0
62856.588467923735,9.222553885694651,183712.0,155606.0,10201.0
62856.59847069367,9.232556655631925,183726.0,155631.0,10218.0
62856.60847346362,9.242559425576474,183738.0,155627.0,10212.0
62856.618476233554,9.252562195513747,183698.0,155639.0,10196.0
62856.6284790035,9.262564965458296,183718.0,155617.0,10211.0
62856.638481773436,9.272567735395569,183746.0,155631.0,10221.0
62856.64848454338,9.282570505340118,183763.0,155650.0,10255.0
62856.65848731332,9.292573275277391,183723.0,155619.0,10267.0
62856.66849008326,9.30257604522194,183766.0,155637.0,10260.0
62856.6784928532,9.312578815159213,183753.0,155619.0,10247.0
62856.688495623144,9.322581585103762,183773.0,155643.0,10243.0
62856.69849839308,9.332584355041035,183786.0,155652.0,10250.0
62856.708501163026,9.342587124985585,183740.0,155599.0,10263.0
62856.71850393296,9.352589894922858,183774.0,155659.0,10268.0
62856.72850670291,9.362592664867407,183785.0,155646.0,10282.0
62856.738509472845,9.37259543480468,183793.0,155644.0,10257.0
62856.74851224279,9.382598204749229,183847.0,155692.0,10292.0
62856.758515012734,9.392600974693778,183818.0,155651.0,10285.0
62856.76851778267,9.402603744631051,183823.0,155676.0,10292.0
62856.778520552616,9.4126065145756,183830.0,155679.0,10350.0
62856.78852332255,9.422609284512873,183796.0,155643.0,10289.0
62856.7985260925,9.432612054457422,183864.0,155700.0,10337.0
62856.808528862435,9.442614824394695,183845.0,155680.0,10333.0
62856.81853163238,9.452617594339245,183845.0,155678.0,10317.0
62856.82853440232,9.462620364276518,183881.0,155693.0,10340.0
62856.83853717226,9.472623134221067,183847.0,155674.0,10354.0
62856.8485399422,9.48262590415834,183873.0,155699.0,10340.0
62856.85854271214,9.492628674102889,183878.0,155736.0,10370.0
62856.86854548208,9.502631444040162,183843.0,155692.0,10369.0
62856.878548252025,9.512634213984711,183874.0,155710.0,10354.0
62856.88855102196,9.522636983921984,183896.0,155713.0,10365.0
62856.89855379191,9.532639753866533,183920.0,155711.0,10349.0
62856.908556561844,9.542642523803806,183921.0,155729.0,10409.0
62856.91855933179,9.552645293748355,183888.0,155728.0,10365.0
62856.928562101726,9.562648063685629,183936.0,155721.0,10398.0
62856.93856487167,9.572650833630178,183951.0,155709.0,10390.0
62856.94856764161,9.58265360356745,183956.0,155718.0,10410.0
62856.95857041155,9.592656373512,183948.0,155707.0,10421.0
62856.9685731815,9.602659143456549,183965.0,155734.0,10426.0
62856.978575951434,9.612661913393822,183973.0,155747.0,10431.0
62856.98857872138,9.622664683338371,183964.0,155720.0,10432.0
62856.998581491316,9.632667453275644,183994.0,155747.0,10435.0
62857.00858426126,9.642670223220193,183987.0,155758.0,10446.0
62857.0185870312,9.652672993157466,184000.0,155738.0,10498.0
62857.02858980114,9.662675763102015,184027.0,155790.0,10480.0
62857.03859257108,9.672678533039289,183993.0,155741.0,10486.0
62857.048595341024,9.682681302983838,184016.0,155749.0,10475.0
62857.05859811096,9.69268407292111,184019.0,155771.0,10491.0
62857.068600880906,9.70268684286566,184020.0,155754.0,10485.0
62857.07860365084,9.712689612802933,184062.0,155785.0,10517.0
62857.08860642079,9.722692382747482,184068.0,155774.0,10510.0
62857.098609190725,9.732695152684755,184030.0,155757.0,10510.0
62857.10861196067,9.742697922629304,184094.0,155801.0,10507.0
62857.11861473061,9.752700692566577,184057.0,155762.0,10507.0
62857.12861750055,9.762703462511126,184072.0,155783.0,10536.0
62857.13862027049,9.7727062324484,184084.0,155777.0,10549.0
62857.14862304043,9.782709002392949,184021.0,155750.0,10538.0
62857.15862581038,9.792711772337498,184045.0,155791.0,10549.0
62857.168628580315,9.80271454227477,184000.0,155764.0,10520.0
62857.17863135026,9.81271731221932,183976.0,155741.0,10486.0
62857.1886341202,9.822720082156593,183917.0,155718.0,10478.0
62857.19863689014,9.832722852101142,183877.0,155672.0,10436.0
62857.20863966008,9.842725622038415,183886.0,155714.0,10430.0
62857.21864243002,9.852728391982964,183847.0,155737.0,10417.0
62857.22864519996,9.862731161920237,183812.0,155683.0,10360.0
62857.238647969905,9.872733931864786,183841.0,155686.0,10398.0
62857.24865073984,9.88273670180206,183823.0,155675.0,10347.0
62857.25865350979,9.892739471746609,183827.0,155672.0,10327.0
62857.268656279724,9.902742241683882,183791.0,155634.0,10296.0
62857.27865904967,9.91274501162843,183790.0,155660.0,10313.0
62857.288661819606,9.922747781565704,183778.0,155656.0,10300.0
62857.29866458955,9.932750551510253,183753.0,155635.0,10285.0
62857.30866735949,9.942753321447526,183813.0,155665.0,10298.0
62857.31867012943,9.952756091392075,183722.0,155622.0,10260.0
62857.32867289937,9.962758861329348,183743.0,155629.0,10269.0
62857.338675669314,9.972761631273897,183709.0,155645.0,10263.0
62857.34867843926,9.982764401218446,183724.0,155627.0,10254.0
62857.358681209196,9.99276717115572,183764.0,155622.0,10238.0
62857.36868397914,10.002769941100269,183742.0,155631.0,10229.0
62857.37868674908,10.012772711037542,183691.0,155613.0,10233.0
62857.38868951902,10.02277548098209,183697.0,155612.0,10206.0
62857.39869228896,10.032778250919364,183709.0,155607.0,10229.0
62857.408695058904,10.042781020863913,183720.0,155619.0,10242.0
62857.41869782884,10.052783790801186,183722.0,155624.0,10236.0
62857.428700598786,10.062786560745735,183700.0,155594.0,10212.0
62857.43870336872,10.072789330683008,183763.0,155646.0,10250.0
62857.44870613867,10.082792100627557,183688.0,155593.0,10218.0
62857.458708908605,10.09279487056483,183692.0,155585.0,10230.0
62857.46871167855,10.10279764050938,183740.0,155636.0,10248.0
62857.47871444849,10.112800410446653,183716.0,155621.0,10214.0
62857.48871721843,10.122803180391202,183730.0,155612.0,10225.0
62857.49871998837,10.132805950328475,183740.0,155616.0,10229.0
62857.50872275831,10.142808720273024,183719.0,155613.0,10233.0
62857.51872552825,10.152811490210297,183744.0,155626.0,10255.0
62857.528728298195,10.162814260154846,183710.0,155599.0,10221.0
62857.53873106813,10.17281703009212,183723.0,155620.0,10241.0
62857.54873383808,10.182819800036668,183713.0,155598.0,10233.0
62857.55873660802,10.192822569981217,183694.0,155596.0,10226.0
62857.56873937796,10.20282533991849,183702.0,155581.0,10215.0
62857.5787421479,10.21282810986304,183716.0,155610.0,10225.0
62857.58874491784,10.222830879800313,183706.0,155635.0,10237.0
62857.598747687785,10.232833649744862,183700.0,155602.0,10232.0
62857.60875045772,10.242836419682135,183753.0,155615.0,10230.0
62857.61875322767,10.252839189626684,183760.0,155625.0,10257.0
62857.628755997604,10.262841959563957,183749.0,155613.0,10262.0
62857.63875876755,10.272844729508506,183774.0,155642.0,10265.0
62857.648761537486,10.28284749944578,183771.0,155605.0,10261.0
62857.65876430743,10.292850269390328,183774.0,155642.0,10278.0
62857.66876707737,10.302853039327601,183770.0,155619.0,10265.0
62857.67876984731,10.31285580927215,183768.0,155624.0,10271.0
62857.68877261725,10.322858579209424,183794.0,155624.0,10293.0
62857.698775387194,10.332861349153973,183803.0,155660.0,10286.0
62857.70877815713,10.342864119091246,183796.0,155639.0,10277.0
62857.718780927076,10.352866889035795,183825.0,155672.0,10324.0
62857.72878369701,10.362869658973068,183818.0,155627.0,10310.0
62857.73878646696,10.372872428917617,183825.0,155658.0,10322.0
62857.7487892369,10.382875198862166,183860.0,155656.0,10344.0
62857.75879200684,10.39287796879944,183834.0,155654.0,10310.0
62857.768794776784,10.402880738743988,183872.0,155689.0,10348.0
62857.77879754672,10.412883508681261,183851.0,155668.0,10339.0
62857.788800316666,10.42288627862581,183845.0,155650.0,10340.0
62857.7988030866,10.432889048563084,183844.0,155650.0,10357.0
62857.80880585655,10.442891818507633,183831.0,155657.0,10326.0
62857.818808626485,10.452894588444906,183870.0,155678.0,10368.0
62857.82881139643,10.462897358389455,183887.0,155717.0,10386.0
62857.83881416637,10.472900128326728,183868.0,155704.0,10386.0
62857.84881693631,10.482902898271277,183868.0,155639.0,10350.0
62857.85881970625,10.49290566820855,183894.0,155687.0,10391.0
62857.86882247619,10.5029084381531,183895.0,155691.0,10382.0
62857.87882524613,10.512911208090372,183888.0,155684.0,10393.0
62857.888828016075,10.522913978034921,183954.0,155703.0,10419.0
62857.89883078601,10.532916747972195,183929.0,155707.0,10414.0
62857.90883355596,10.542919517916744,183906.0,155688.0,10404.0
62857.918836325895,10.552922287854017,183951.0,155716.0,10410.0
62857.92883909584,10.562925057798566,183918.0,155711.0,10453.0
62857.93884186578,10.572927827743115,183947.0,155702.0,10439.0
62857.94884463572,10.582930597680388,183926.0,155708.0,10438.0
62857.958847405665,10.592933367624937,183933.0,155724.0,10432.0
62857.9688501756,10.60293613756221,183961.0,155719.0,10431.0
62857.97885294555,10.61293890750676,183979.0,155706.0,10474.0
62857.988855715485,10.622941677444032,183937.0,155722.0,10453.0
62857.99885848543,10.632944447388581,184000.0,155721.0,10494.0
62858.008861255366,10.642947217325855,183955.0,155710.0,10491.0
62858.01886402531,10.652949987270404,183980.0,155732.0,10488.0
62858.02886679525,10.662952757207677,184006.0,155747.0,10499.0
62858.03886956519,10.672955527152226,183995.0,155710.0,10484.0
62858.04887233513,10.682958297089499,184002.0,155767.0,10518.0
62858.058875105075,10.692961067034048,184022.0,155745.0,10516.0
62858.06887787501,10.702963836971321,184017.0,155749.0,10499.0
62858.07888064496,10.71296660691587,184039.0,155775.0,10538.0
62858.088883414894,10.722969376853143,184020.0,155753.0,10516.0
62858.09888618484,10.732972146797692,184050.0,155770.0,10540.0
62858.108888954775,10.742974916734966,184061.0,155718.0,10606.0
62858.11889172472,10.752977686679515,184041.0,155762.0,10557.0
62858.128894494665,10.762980456624064,184101.0,155792.0,10580.0
62858.1388972646,10.772983226561337,184069.0,155788.0,10575.0
62858.14890003455,10.782985996505886,184045.0,155761.0,10561.0
62858.158902804484,10.792988766443159,184082.0,155773.0,10592.0
62858.16890557443,10.802991536387708,184033.0,155770.0,10568.0
62858.178908344365,10.812994306324981,183982.0,155753.0,10546.0
62858.18891111431,10.82299707626953,183921.0,155717.0,10510.0
62858.19891388425,10.832999846206803,183917.0,155720.0,10515.0
62858.20891665419,10.843002616151352,183933.0,155703.0,10512.0
62858.21891942413,10.853005386088626,183884.0,155689.0,10459.0
62858.228922194074,10.863008156033175,183864.0,155678.0,10412.0
62858.23892496401,10.873010925970448,183812.0,155651.0,10439.0
62858.248927733955,10.883013695914997,183816.0,155656.0,10401.0
62858.25893050389,10.89301646585227,183796.0,155662.0,10381.0
62858.26893327384,10.903019235796819,183813.0,155637.0,10384.0
62858.278936043775,10.913022005734092,183818.0,155658.0,10379.0
62858.28893881372,10.923024775678641,183755.0,155633.0,10361.0
62858.29894158366,10.933027545615914,183790.0,155651.0,10355.0
62858.3089443536,10.943030315560463,183772.0,155622.0,10325.0
62858.31894712354,10.953033085497736,183756.0,155631.0,10320.0
62858.32894989348,10.963035855442286,183760.0,155647.0,10337.0
62858.33895266343,10.973038625386835,183767.0,155641.0,10361.0
62858.348955433365,10.983041395324108,183784.0,155659.0,10320.0
62858.35895820331,10.993044165268657,183742.0,155632.0,10312.0
62858.36896097325,11.00304693520593,183787.0,155603.0,10327.0
62858.37896374319,11.013049705150479,183720.0,155605.0,10335.0
62858.38896651313,11.023052475087752,183737.0,155616.0,10315.0
62858.39896928307,11.033055245032301,183744.0,155593.0,10309.0
62858.40897205301,11.043058014969574,183772.0,155631.0,10332.0
62858.418974822955,11.053060784914123,183767.0,155621.0,10334.0
62858.42897759289,11.063063554851396,183761.0,155606.0,10298.0
62858.43898036284,11.073066324795946,183796.0,155651.0,10314.0
62858.448983132774,11.083069094733219,183750.0,155614.0,10294.0
62858.45898590272,11.093071864677768,183775.0,155634.0,10310.0
62858.468988672656,11.10307463461504,183768.0,155645.0,10299.0
62858.4789914426,11.11307740455959,183788.0,155598.0,10310.0
62858.48899421254,11.123080174496863,183746.0,155600.0,10324.0
62858.49899698248,11.133082944441412,183777.0,155622.0,10330.0
62858.50899975242,11.143085714378685,183781.0,155638.0,10296.0
62858.519002522364,11.153088484323234,183744.0,155580.0,10293.0
62858.52900529231,11.163091254267783,183710.0,155579.0,10283.0
62858.539008062246,11.173094024205056,183770.0,155636.0,10286.0
62858.54901083219,11.183096794149606,183752.0,155604.0,10294.0
62858.55901360213,11.193099564086879,183735.0,155608.0,10309.0
62858.56901637207,11.203102334031428,183788.0,155622.0,10326.0
62858.57901914201,11.2131051039687,183778.0,155646.0,10322.0
62858.589021911954,11.22310787391325,183782.0,155627.0,10296.0
62858.59902468189,11.233110643850523,183794.0,155641.0,10314.0
62858.609027451836,11.243113413795072,183793.0,155621.0,10292.0
62858.61903022177,11.253116183732345,183801.0,155651.0,10334.0
62858.62903299172,11.263118953676894,183788.0,155632.0,10315.0
62858.639035761655,11.273121723614167,183793.0,155641.0,10307.0
62858.6490385316,11.283124493558716,183808.0,155655.0,10339.0
62858.65904130154,11.29312726349599,183765.0,155620.0,10309.0
62858.66904407148,11.303130033440539,183801.0,155627.0,10342.0
62858.67904684142,11.313132803377812,183826.0,155650.0,10351.0
62858.68904961136,11.32313557332236,183823.0,155632.0,10327.0
62858.6990523813,11.333138343259634,183843.0,155669.0,10377.0
62858.709055151245,11.343141113204183,183834.0,155646.0,10355.0
62858.71905792119,11.353143883148732,183851.0,155633.0,10347.0
62858.72906069113,11.363146653086005,183828.0,155613.0,10364.0
62858.73906346107,11.373149423030554,183815.0,155635.0,10388.0
62858.74906623101,11.383152192967827,183862.0,155649.0,10376.0
62858.75906900095,11.393154962912377,183827.0,155642.0,10406.0
62858.76907177089,11.40315773284965,183840.0,155664.0,10385.0
62858.779074540835,11.413160502794199,183825.0,155669.0,10351.0
62858.78907731077,11.423163272731472,183867.0,155668.0,10393.0
62858.79908008072,11.43316604267602,183844.0,155663.0,10394.0
62858.809082850654,11.443168812613294,183877.0,155673.0,10390.0
62858.8190856206,11.453171582557843,183862.0,155657.0,10412.0
62858.829088390536,11.463174352495116,183885.0,155681.0,10412.0
62858.83909116048,11.473177122439665,183920.0,155668.0,10425.0
62858.84909393042,11.483179892376938,183894.0,155696.0,10431.0
62858.85909670036,11.493182662321487,183944.0,155709.0,10451.0
62858.8690994703,11.50318543225876,183918.0,155696.0,10436.0
62858.879102240244,11.51318820220331,183885.0,155711.0,10450.0
62858.88910501018,11.523190972140583,183897.0,155691.0,10442.0
62858.899107780126,11.533193742085132,183960.0,155695.0,10442.0
62858.90911055007,11.543196512029681,183920.0,155699.0,10458.0
62858.91911332001,11.553199281966954,183945.0,155704.0,10446.0
62858.92911608995,11.563202051911503,183910.0,155691.0,10443.0
62858.93911885989,11.573204821848776,183994.0,155733.0,10491.0
62858.949121629834,11.583207591793325,183972.0,155715.0,10488.0
62858.95912439977,11.593210361730598,183964.0,155701.0,10503.0
62858.969127169716,11.603213131675147,183964.0,155712.0,10492.0
62858.97912993965,11.61321590161242,183992.0,155742.0,10522.0
62858.9891327096,11.62321867155697,183995.0,155713.0,10506.0
62858.999135479535,11.633221441494243,183996.0,155772.0,10550.0
62859.00913824948,11.643224211438792,184036.0,155748.0,10517.0
62859.01914101942,11.653226981376065,183998.0,155761.0,10534.0
62859.02914378936,11.663229751320614,184032.0,155751.0,10545.0
62859.0391465593,11.673232521257887,184018.0,155698.0,10544.0
62859.04914932924,11.683235291202436,184038.0,155771.0,10527.0
62859.05915209918,11.69323806113971,184054.0,155765.0,10565.0
62859.069154869125,11.703240831084258,184044.0,155747.0,10556.0
62859.07915763906,11.713243601021532,184039.0,155734.0,10562.0
62859.08916040901,11.72324637096608,184085.0,155759.0,10575.0
62859.099163178944,11.733249140903354,184053.0,155742.0,10575.0
62859.10916594889,11.743251910847903,184090.0,155772.0,10596.0
62859.11916871883,11.753254680792452,184072.0,155766.0,10615.0
62859.12917148877,11.763257450729725,184097.0,155759.0,10610.0
62859.139174258715,11.773260220674274,184102.0,155755.0,10601.0
62859.14917702865,11.783262990611547,184082.0,155759.0,10599.0
62859.1591797986,11.793265760556096,184064.0,155763.0,10575.0
62859.169182568534,11.80326853049337,184004.0,155714.0,10540.0
62859.17918533848,11.813271300437918,184005.0,155742.0,10568.0
62859.189188108416,11.823274070375192,183968.0,155721.0,10548.0
62859.19919087836,11.83327684031974,183937.0,155686.0,10525.0
62859.2091936483,11.843279610257014,183933.0,155685.0,10519.0
62859.21919641824,11.853282380201563,183855.0,155673.0,10492.0
62859.22919918818,11.863285150138836,183892.0,155682.0,10466.0
62859.239201958124,11.873287920083385,183818.0,155680.0,10448.0
62859.24920472806,11.883290690020658,183856.0,155634.0,10436.0
62859.259207498006,11.893293459965207,183869.0,155673.0,10405.0
62859.26921026794,11.90329622990248,183822.0,155653.0,10394.0
62859.27921303789,11.91329899984703,183821.0,155652.0,10415.0
62859.289215807825,11.923301769784302,183795.0,155644.0,10381.0
62859.29921857777,11.933304539728852,183812.0,155644.0,10367.0
62859.309221347714,11.9433073096734,183825.0,155656.0,10418.0
62859.31922411765,11.953310079610674,183797.0,155639.0,10388.0
62859.329226887596,11.963312849555223,183819.0,155633.0,10404.0
62859.33922965753,11.973315619492496,183834.0,155660.0,10399.0
62859.34923242748,11.983318389437045,183804.0,155646.0,10380.0
62859.359235197415,11.993321159374318,183783.0,155606.0,10367.0
62859.36923796736,12.003323929318867,183812.0,155610.0,10380.0
62859.3792407373,12.01332669925614,183763.0,155644.0,10358.0
62859.38924350724,12.02332946920069,183778.0,155628.0,10361.0
62859.39924627718,12.033332239137962,183799.0,155645.0,10347.0
62859.40924904712,12.043335009082512,183810.0,155636.0,10344.0
62859.41925181706,12.053337779019785,183789.0,155612.0,10358.0
62859.429254587005,12.063340548964334,183800.0,155619.0,10355.0
62859.43925735694,12.073343318901607,183787.0,155626.0,10383.0
62859.44926012689,12.083346088846156,183786.0,155635.0,10344.0
62859.459262896824,12.093348858783429,183808.0,155614.0,10361.0
62859.46926566677,12.103351628727978,183775.0,155602.0,10372.0
62859.479268436706,12.113354398665251,183798.0,155625.0,10355.0
62859.48927120665,12.1233571686098,183788.0,155637.0,10348.0
62859.499273976595,12.13335993855435,183764.0,155620.0,10334.0
62859.50927674653,12.143362708491622,183806.0,155636.0,10357.0
62859.51927951648,12.153365478436172,183780.0,155627.0,10346.0
62859.529282286414,12.163368248373445,183775.0,155598.0,10340.0
62859.53928505636,12.173371018317994,183809.0,155629.0,10341.0
62859.549287826296,12.183373788255267,183763.0,155623.0,10346.0
62859.55929059624,12.193376558199816,183805.0,155637.0,10349.0
62859.56929336618,12.203379328137089,183767.0,155621.0,10341.0
62859.57929613612,12.213382098081638,183776.0,155608.0,10334.0
62859.58929890606,12.223384868018911,183792.0,155644.0,10372.0
62859.599301676004,12.23338763796346,183809.0,155626.0,10343.0
62859.60930444594,12.243390407900733,183743.0,155614.0,10334.0
62859.619307215886,12.253393177845282,183823.0,155649.0,10385.0
62859.62930998582,12.263395947782556,183784.0,155613.0,10354.0
62859.63931275577,12.273398717727105,183829.0,155626.0,10362.0
62859.649315525705,12.283401487664378,183767.0,155609.0,10356.0
62859.65931829565,12.293404257608927,183824.0,155630.0,10364.0
62859.66932106559,12.3034070275462,183825.0,155642.0,10410.0
62859.67932383553,12.313409797490749,183834.0,155642.0,10378.0
62859.68932660547,12.323412567428022,183833.0,155625.0,10380.0
62859.69932937541,12.333415337372571,183842.0,155617.0,10394.0
62859.70933214536,12.34341810731712,183830.0,155591.0,10380.0
62859.719334915295,12.353420877254393,183858.0,155650.0,10397.0
62859.72933768524,12.363423647198942,183882.0,155654.0,10424.0
62859.73934045518,12.373426417136216,183856.0,155669.0,10401.0
62859.74934322512,12.383429187080765,183845.0,155645.0,10396.0
62859.75934599506,12.393431957018038,183885.0,155657.0,10417.0
62859.769348765,12.403434726962587,183884.0,155680.0,10408.0
62859.77935153494,12.41343749689986,183861.0,155655.0,10423.0
62859.789354304885,12.423440266844409,183922.0,155684.0,10459.0
62859.79935707482,12.433443036781682,183899.0,155672.0,10438.0
62859.80935984477,12.443445806726231,183886.0,155640.0,10439.0
62859.819362614704,12.453448576663504,183915.0,155695.0,10463.0
62859.82936538465,12.463451346608053,183890.0,155670.0,10428.0
62859.839368154586,12.473454116545327,183895.0,155664.0,10434.0
62859.84937092453,12.483456886489876,183918.0,155694.0,10457.0
62859.85937369447,12.493459656427149,183921.0,155666.0,10451.0
62859.86937646441,12.503462426371698,183947.0,155694.0,10456.0
62859.87937923435,12.513465196308971,183949.0,155698.0,10460.0
62859.889382004294,12.52346796625352,183930.0,155687.0,10492.0
62859.89938477424,12.533470736198069,183976.0,155692.0,10505.0
62859.909387544176,12.543473506135342,183955.0,155671.0,10465.0
62859.91939031412,12.553476276079891,183952.0,155704.0,10500.0
62859.92939308406,12.563479046017164,183956.0,155698.0,10532.0
62859.939395854,12.573481815961713,183979.0,155709.0,10486.0
62859.94939862394,12.583484585898987,184003.0,155713.0,10507.0
62859.959401393884,12.593487355843536,183992.0,155716.0,10510.0
62859.96940416382,12.603490125780809,183988.0,155700.0,10524.0
62859.979406933766,12.613492895725358,183958.0,155679.0,10538.0
62859.9894097037,12.623495665662631,183948.0,155714.0,10517.0
62859.99941247365,12.63349843560718,184004.0,155719.0,10544.0
62860.009415243585,12.643501205544453,184030.0,155686.0,10543.0
62860.01941801353,12.653503975489002,184039.0,155709.0,10526.0
62860.02942078347,12.663506745426275,184020.0,155720.0,10562.0
62860.03942355341,12.673509515370824,184026.0,155728.0,10552.0
62860.04942632335,12.683512285308097,184022.0,155716.0,10560.0
62860.05942909329,12.693515055252647,183974.0,155675.0,10538.0
62860.06943186323,12.70351782518992,183970.0,155674.0,10519.0
62860.079434633175,12.713520595134469,183941.0,155692.0,10516.0
62860.08943740312,12.723523365079018,183871.0,155677.0,10491.0
62860.09944017306,12.733526135016291,183898.0,155702.0,10500.0
62860.109442943,12.74352890496084,183823.0,155627.0,10425.0
62860.11944571294,12.753531674898113,183825.0,155648.0,10428.0
62860.12944848288,12.763534444842662,183833.0,155652.0,10410.0
62860.13945125282,12.773537214779935,183780.0,155639.0,10384.0
62860.149454022765,12.783539984724484,183826.0,155649.0,10384.0
62860.1594567927,12.793542754661757,183797.0,155631.0,10364.0
62860.16945956265,12.803545524606307,183785.0,155604.0,10352.0
62860.179462332584,12.81354829454358,183810.0,155638.0,10382.0
62860.18946510253,12.823551064488129,183773.0,155595.0,10337.0
62860.199467872466,12.833553834425402,183806.0,155611.0,10352.0
62860.20947064241,12.843556604369951,183826.0,155632.0,10357.0
62860.21947341235,12.853559374307224,183772.0,155595.0,10328.0
62860.22947618229,12.863562144251773,183822.0,155626.0,10372.0
62860.23947895223,12.873564914189046,183759.0,155614.0,10320.0
62860.249481722174,12.883567684133595,183769.0,155621.0,10335.0
62860.25948449211,12.893570454070868,183782.0,155610.0,10332.0
62860.269487262056,12.903573224015418,183814.0,155627.0,10332.0
62860.279490032,12.913575993959967,183820.0,155621.0,10335.0
62860.28949280194,12.92357876389724,183805.0,155637.0,10358.0
62860.29949557188,12.933581533841789,183826.0,155615.0,10337.0
62860.30949834182,12.943584303779062,183852.0,155643.0,10368.0
62860.319501111764,12.953587073723611,183837.0,155631.0,10357.0
62860.3295038817,12.963589843660884,183810.0,155618.0,10349.0
62860.339506651646,12.973592613605433,183791.0,155595.0,10334.0
62860.34950942158,12.983595383542706,183810.0,155633.0,10356.0
62860.35951219153,12.993598153487255,183802.0,155630.0,10338.0
62860.369514961465,13.003600923424528,183806.0,155596.0,10326.0
62860.37951773141,13.013603693369078,183839.0,155632.0,10332.0
62860.38952050135,13.02360646330635,183788.0,155605.0,10371.0
62860.39952327129,13.0336092332509,183821.0,155623.0,10339.0
62860.40952604123,13.043612003188173,183816.0,155634.0,10344.0
62860.41952881117,13.053614773132722,183818.0,155609.0,10342.0
62860.42953158111,13.063617543069995,183829.0,155603.0,10338.0
62860.439534351055,13.073620313014544,183803.0,155621.0,10323.0
62860.44953712099,13.083623082951817,183823.0,155625.0,10343.0
62860.45953989094,13.093625852896366,183842.0,155620.0,10320.0
62860.469542660874,13.10362862283364,183819.0,155603.0,10333.0
62860.47954543082,13.113631392778188,183865.0,155657.0,10347.0
62860.48954820076,13.123634162722738,183857.0,155641.0,10348.0
62860.4995509707,13.13363693266001,183834.0,155631.0,10345.0
62860.509553740645,13.14363970260456,183855.0,155659.0,10385.0
62860.51955651058,13.153642472541833,183845.0,155630.0,10347.0
62860.52955928053,13.163645242486382,183866.0,155643.0,10376.0
62860.539562050464,13.173648012423655,183873.0,155665.0,10386.0
62860.54956482041,13.183650782368204,183891.0,155661.0,10370.0
62860.559567590346,13.193653552305477,183881.0,155649.0,10388.0
62860.56957036029,13.203656322250026,183910.0,155656.0,10388.0
62860.57957313023,13.2136590921873,183888.0,155649.0,10392.0
62860.58957590017,13.223661862131848,183919.0,155679.0,10417.0
62860.59957867011,13.233664632069122,183888.0,155657.0,10377.0
62860.609581440054,13.24366740201367,183915.0,155664.0,10417.0
62860.61958420999,13.253670171950944,183916.0,155661.0,10405.0
62860.629586979936,13.263672941895493,183957.0,155677.0,10402.0
62860.63958974987,13.273675711832766,183935.0,155683.0,10427.0
62860.64959251982,13.283678481777315,183936.0,155676.0,10434.0
62860.659595289755,13.293681251714588,183939.0,155667.0,10432.0
62860.6695980597,13.303684021659137,183947.0,155662.0,10440.0
62860.679600829644,13.313686791603686,183969.0,155654.0,10429.0
62860.68960359958,13.32368956154096,183977.0,155690.0,10450.0
62860.699606369526,13.333692331485508,183972.0,155725.0,10465.0
62860.70960913946,13.343695101422782,183949.0,155715.0,10447.0
62860.71961190941,13.35369787136733,183953.0,155671.0,10426.0
62860.729614679345,13.363700641304604,183983.0,155691.0,10462.0
62860.73961744929,13.373703411249153,184004.0,155712.0,10452.0
62860.74962021923,13.383706181186426,183962.0,155703.0,10444.0
62860.75962298917,13.393708951130975,184028.0,155710.0,10499.0
62860.76962575911,13.403711721068248,184003.0,155699.0,10516.0
62860.77962852905,13.413714491012797,183977.0,155676.0,10480.0
62860.78963129899,13.42371726095007,184037.0,155701.0,10486.0
62860.799634068935,13.43372003089462,184005.0,155718.0,10496.0
62860.80963683887,13.443722800831893,184040.0,155734.0,10492.0
62860.81963960882,13.453725570776442,184003.0,155732.0,10505.0
62860.829642378754,13.463728340713715,183978.0,155688.0,10477.0
62860.8396451487,13.473731110658264,184002.0,155704.0,10504.0
62860.849647918636,13.483733880595537,183953.0,155688.0,10472.0
62860.85965068858,13.493736650540086,183917.0,155665.0,10457.0
62860.869653458525,13.503739420484635,183931.0,155686.0,10427.0
62860.87965622846,13.513742190421908,183878.0,155647.0,10389.0
62860.88965899841,13.523744960366457,183859.0,155646.0,10384.0
62860.899661768344,13.53374773030373,183827.0,155613.0,10376.0
62860.90966453829,13.54375050024828,183815.0,155598.0,10359.0
62860.919667308226,13.553753270185553,183797.0,155597.0,10349.0
62860.92967007817,13.563756040130102,183809.0,155613.0,10329.0
62860.93967284811,13.573758810067375,183794.0,155605.0,10292.0
62860.94967561805,13.583761580011924,183783.0,155602.0,10332.0
62860.95967838799,13.593764349949197,183780.0,155621.0,10282.0
62860.969681157934,13.603767119893746,183802.0,155608.0,10287.0
62860.97968392787,13.613769889831019,183814.0,155600.0,10273.0
62860.989686697816,13.623772659775568,183798.0,155600.0,10283.0
62860.99968946775,13.633775429712841,183805.0,155619.0,10308.0
62861.0096922377,13.64377819965739,183806.0,155615.0,10281.0
62861.019695007635,13.653780969594663,183791.0,155585.0,10277.0
62861.02969777758,13.663783739539213,183779.0,155583.0,10276.0
62861.03970054752,13.673786509476486,183778.0,155584.0,10278.0
62861.04970331746,13.683789279421035,183803.0,155608.0,10290.0
62861.0597060874,13.693792049358308,183793.0,155588.0,10282.0
62861.06970885734,13.703794819302857,183821.0,155596.0,10310.0
62861.07971162729,13.713797589247406,183830.0,155598.0,10299.0
62861.089714397225,13.723800359184679,183809.0,155622.0,10292.0
62861.09971716717,13.733803129129228,183820.0,155617.0,10271.0
62861.10971993711,13.743805899066501,183800.0,155593.0,10282.0
62861.11972270705,13.75380866901105,183827.0,155613.0,10327.0
62861.12972547699,13.763811438948323,183822.0,155625.0,10297.0
62861.13972824693,13.773814208892873,183810.0,155587.0,10277.0
62861.14973101687,13.783816978830146,183812.0,155648.0,10314.0
62861.159733786815,13.793819748774695,183802.0,155612.0,10292.0
62861.16973655675,13.803822518711968,183819.0,155643.0,10284.0
62861.1797393267,13.813825288656517,183806.0,155631.0,10305.0
62861.189742096634,13.82382805859379,183770.0,155618.0,10266.0
62861.19974486658,13.83383082853834,183817.0,155617.0,10258.0
62861.209747636516,13.843833598475612,183814.0,155612.0,10277.0
62861.21975040646,13.853836368420161,183808.0,155597.0,10312.0
62861.2297531764,13.863839138357434,183844.0,155654.0,10285.0
62861.23975594634,13.873841908301983,183811.0,155606.0,10289.0
62861.24975871628,13.883844678239257,183830.0,155630.0,10317.0
62861.259761486224,13.893847448183806,183810.0,155632.0,10296.0
62861.26976425617,13.903850218128355,183841.0,155663.0,10294.0
62861.279767026106,13.913852988065628,183854.0,155619.0,10317.0
62861.28976979605,13.923855758010177,183826.0,155653.0,10297.0
62861.29977256599,13.93385852794745,183856.0,155638.0,10316.0
62861.30977533593,13.943861297892,183883.0,155655.0,10342.0
62861.31977810587,13.953864067829272,183815.0,155626.0,10304.0
62861.329780875814,13.963866837773821,183879.0,155652.0,10339.0
62861.33978364575,13.973869607711094,183886.0,155655.0,10335.0
62861.349786415696,13.983872377655644,183879.0,155646.0,10333.0
62861.35978918563,13.993875147592917,183896.0,155669.0,10380.0
62861.36979195558,14.003877917537466,183939.0,155664.0,10382.0
62861.379794725515,14.013880687474739,183914.0,155679.0,10343.0
62861.38979749546,14.023883457419288,183932.0,155667.0,10373.0
62861.3998002654,14.033886227356561,183885.0,155644.0,10334.0
62861.40980303534,14.04388899730111,183951.0,155693.0,10382.0
62861.41980580528,14.053891767238383,183932.0,155676.0,10369.0
62861.42980857522,14.063894537182932,183931.0,155681.0,10386.0
62861.43981134516,14.073897307120205,183944.0,155704.0,10412.0
62861.449814115105,14.083900077064754,183959.0,155716.0,10397.0
62861.45981688505,14.093902847009304,183955.0,155687.0,10399.0
62861.46981965499,14.103905616946577,183956.0,155696.0,10432.0
62861.47982242493,14.113908386891126,183950.0,155729.0,10421.0
62861.48982519487,14.123911156828399,183977.0,155718.0,10433.0
62861.49982796481,14.133913926772948,183983.0,155693.0,10417.0
62861.50983073475,14.143916696710221,183977.0,155710.0,10414.0
62861.519833504695,14.15391946665477,183973.0,155711.0,10442.0
62861.52983627463,14.163922236592043,183964.0,155742.0,10435.0
62861.53983904458,14.173925006536592,183999.0,155719.0,10438.0
62861.549841814514,14.183927776473865,184007.0,155707.0,10423.0
62861.55984458446,14.193930546418414,184025.0,155745.0,10432.0
62861.569847354396,14.203933316355688,183997.0,155721.0,10457.0
62861.57985012434,14.213936086300237,184019.0,155723.0,10460.0
62861.58985289428,14.22393885623751,184023.0,155732.0,10455.0
62861.59985566422,14.233941626182059,183993.0,155748.0,10462.0
62861.60985843416,14.243944396119332,183997.0,155727.0,10464.0
62861.619861204104,14.253947166063881,183962.0,155705.0,10440.0
62861.62986397404,14.263949936001154,183900.0,155687.0,10428.0
62861.639866743986,14.273952705945703,183881.0,155684.0,10384.0
62861.64986951393,14.283955475890252,183864.0,155634.0,10364.0
62861.65987228387,14.293958245827525,183849.0,155658.0,10351.0
62861.66987505381,14.303961015772074,183864.0,155658.0,10336.0
62861.67987782375,14.313963785709348,183789.0,155640.0,10281.0
62861.689880593694,14.323966555653897,183821.0,155637.0,10291.0
62861.69988336363,14.33396932559117,183759.0,155590.0,10282.0
62861.709886133576,14.343972095535719,183761.0,155603.0,10253.0
62861.71988890351,14.353974865472992,183763.0,155612.0,10234.0
62861.72989167346,14.363977635417541,183741.0,155586.0,10221.0
62861.739894443395,14.373980405354814,183761.0,155611.0,10240.0
62861.74989721334,14.383983175299363,183734.0,155621.0,10209.0
62861.75989998328,14.393985945236636,183779.0,155606.0,10215.0
62861.76990275322,14.403988715181185,183749.0,155607.0,10210.0
62861.77990552316,14.413991485118459,183762.0,155599.0,10208.0
62861.7899082931,14.423994255063008,183719.0,155600.0,10167.0
62861.79991106304,14.43399702500028,183747.0,155620.0,10190.0
62861.809913832985,14.44399979494483,183715.0,155572.0,10196.0
62861.81991660292,14.454002564882103,183749.0,155600.0,10197.0
62861.82991937287,14.464005334826652,183675.0,155557.0,10209.0
62861.839922142804,14.474008104763925,183750.0,155601.0,10209.0
62861.84992491275,14.484010874708474,183722.0,155564.0,10186.0
62861.85992768269,14.494013644653023,183733.0,155592.0,10188.0
62861.86993045263,14.504016414590296,183742.0,155618.0,10208.0
62861.879933222575,14.514019184534845,183714.0,155583.0,10173.0
62861.88993599251,14.524021954472119,183751.0,155585.0,10182.0
62861.89993876246,14.534024724416668,183755.0,155583.0,10196.0
62861.909941532394,14.54402749435394,183778.0,155605.0,10220.0
62861.91994430234,14.55403026429849,183746.0,155573.0,10204.0
62861.929947072276,14.564033034235763,183736.0,155575.0,10172.0
62861.93994984222,14.574035804180312,183760.0,155598.0,10192.0
62861.94995261216,14.584038574117585,183765.0,155593.0,10214.0
62861.9599553821,14.594041344062134,183736.0,155597.0,10165.0
62861.96995815204,14.604044113999407,183750.0,155611.0,10205.0
62861.979960921984,14.614046883943956,183729.0,155592.0,10195.0
62861.98996369192,14.62404965388123,183735.0,155578.0,10171.0
62861.999966461866,14.634052423825779,183750.0,155586.0,10165.0
62862.0099692318,14.644055193763052,183772.0,155626.0,10196.0
62862.01997200175,14.6540579637076,183742.0,155613.0,10184.0
62862.029974771685,14.664060733644874,183740.0,155596.0,10187.0
62862.03997754163,14.674063503589423,183796.0,155618.0,10222.0
62862.049980311574,14.684066273533972,183754.0,155615.0,10182.0
62862.05998308151,14.694069043471245,183775.0,155616.0,10206.0
62862.069985851456,14.704071813415794,183778.0,155607.0,10189.0
62862.07998862139,14.714074583353067,183787.0,155638.0,10234.0
62862.08999139134,14.724077353297616,183800.0,155594.0,10233.0
62862.099994161275,14.73408012323489,183799.0,155656.0,10222.0
62862.10999693122,14.744082893179439,183780.0,155642.0,10230.0
62862.11999970116,14.754085663116712,183801.0,155653.0,10257.0
62862.1300024711,14.76408843306126,183847.0,155667.0,10255.0
62862.14000524104,14.774091202998534,183836.0,155652.0,10268.0
62862.15000801098,14.784093972943083,183810.0,155641.0,10262.0
62862.16001078092,14.794096742880356,183846.0,155670.0,10276.0
62862.170013550865,14.804099512824905,183845.0,155652.0,10235.0
62862.1800163208,14.814102282762178,183862.0,155677.0,10252.0
62862.19001909075,14.824105052706727,183831.0,155671.0,10271.0
62862.200021860685,14.834107822644,183859.0,155653.0,10300.0
62862.21002463063,14.84411059258855,183849.0,155704.0,10304.0
62862.220027400566,14.854113362525823,183851.0,155684.0,10283.0
62862.23003017051,14.864116132470372,183906.0,155675.0,10306.0
62862.240032940455,14.87411890241492,183894.0,155700.0,10286.0
62862.25003571039,14.884121672352194,183883.0,155667.0,10286.0
62862.26003848034,14.894124442296743,183868.0,155685.0,10297.0
62862.270041250275,14.904127212234016,183915.0,155666.0,10314.0
62862.28004402022,14.914129982178565,183927.0,155721.0,10336.0
62862.290046790156,14.924132752115838,183931.0,155699.0,10354.0
62862.3000495601,14.934135522060387,183911.0,155688.0,10319.0
62862.31005233004,14.94413829199766,183933.0,155715.0,10352.0
62862.32005509998,14.95414106194221,183950.0,155740.0,10361.0
62862.33005786992,14.964143831879483,183951.0,155683.0,10334.0
62862.340060639865,14.974146601824032,183977.0,155754.0,10375.0
62862.3500634098,14.984149371761305,183961.0,155725.0,10372.0
62862.360066179746,14.994152141705854,183910.0,155719.0,10338.0
62862.37006894968,15.004154911643127,183958.0,155736.0,10386.0
62862.38007171963,15.014157681587676,183958.0,155704.0,10395.0
62862.390074489565,15.02416045152495,183983.0,155726.0,10396.0
62862.40007725951,15.034163221469498,183971.0,155745.0,10422.0
62862.41008002945,15.044165991406771,184000.0,155743.0,10399.0
62862.42008279939,15.05416876135132,184036.0,155767.0,10429.0
62862.43008556933,15.064171531288594,184020.0,155755.0,10425.0
62862.440088339274,15.074174301233143,184026.0,155734.0,10422.0
62862.45009110922,15.084177071177692,184036.0,155745.0,10455.0
62862.460093879155,15.094179841114965,184036.0,155737.0,10437.0
62862.4700966491,15.104182611059514,184036.0,155747.0,10443.0
62862.48009941904,15.114185380996787,184018.0,155749.0,10452.0
62862.49010218898,15.124188150941336,183991.0,155761.0,10409.0
62862.50010495892,15.13419092087861,183970.0,155735.0,10463.0
62862.510107728864,15.144193690823158,183937.0,155721.0,10403.0
62862.5201104988,15.154196460760431,183901.0,155682.0,10368.0
62862.530113268745,15.16419923070498,183843.0,155689.0,10358.0
62862.54011603868,15.174202000642254,183856.0,155666.0,10324.0
62862.55011880863,15.184204770586803,183835.0,155680.0,10311.0
62862.560121578565,15.194207540524076,183774.0,155662.0,10310.0
62862.57012434851,15.204210310468625,183788.0,155630.0,10282.0
62862.58012711845,15.214213080405898,183777.0,155621.0,10250.0
62862.59012988839,15.224215850350447,183786.0,155649.0,10233.0
62862.60013265833,15.23421862028772,183789.0,155664.0,10204.0
62862.61013542827,15.24422139023227,183723.0,155647.0,10201.0
62862.62013819821,15.254224160169542,183785.0,155660.0,10225.0
62862.630140968155,15.264226930114091,183743.0,155608.0,10192.0
62862.6401437381,15.27422970005864,183720.0,155618.0,10193.0
62862.65014650804,15.284232469995914,183767.0,155639.0,10217.0
62862.66014927798,15.294235239940463,183708.0,155594.0,10162.0
62862.67015204792,15.304238009877736,183741.0,155633.0,10185.0
62862.68015481786,15.314240779822285,183745.0,155601.0,10189.0
62862.6901575878,15.324243549759558,183737.0,155611.0,10163.0
62862.700160357745,15.334246319704107,183759.0,155653.0,10177.0
62862.71016312768,15.34424908964138,183723.0,155629.0,10164.0
62862.72016589763,15.35425185958593,183712.0,155600.0,10149.0
62862.730168667564,15.364254629523202,183697.0,155615.0,10190.0
62862.74017143751,15.374257399467751,183718.0,155624.0,10140.0
62862.750174207446,15.384260169405024,183727.0,155618.0,10159.0
62862.76017697739,15.394262939349574,183705.0,155637.0,10187.0
62862.77017974733,15.404265709286847,183711.0,155633.0,10158.0
62862.78018251727,15.414268479231396,183724.0,155592.0,10177.0
62862.79018528721,15.424271249168669,183716.0,155627.0,10159.0
62862.800188057154,15.434274019113218,183718.0,155605.0,10158.0
62862.81019082709,15.444276789050491,183694.0,155607.0,10175.0
62862.820193597036,15.45427955899504,183701.0,155640.0,10164.0
62862.83019636698,15.46428232893959,183731.0,155640.0,10161.0
62862.84019913692,15.474285098876862,183738.0,155619.0,10179.0
62862.85020190686,15.484287868821411,183738.0,155645.0,10149.0
62862.8602046768,15.494290638758685,183725.0,155613.0,10146.0
62862.870207446744,15.504293408703234,183717.0,155627.0,10164.0
62862.88021021668,15.514296178640507,183739.0,155623.0,10197.0
62862.890212986626,15.524298948585056,183729.0,155635.0,10147.0
62862.90021575656,15.534301718522329,183742.0,155675.0,10189.0
62862.91021852651,15.544304488466878,183736.0,155634.0,10176.0
62862.920221296445,15.554307258404151,183706.0,155615.0,10167.0
62862.93022406639,15.5643100283487,183735.0,155664.0,10181.0
62862.94022683633,15.574312798285973,183726.0,155608.0,10155.0
62862.95022960627,15.584315568230522,183755.0,155653.0,10189.0
62862.96023237621,15.594318338167795,183781.0,155661.0,10180.0
62862.97023514615,15.604321108112345,183787.0,155682.0,10221.0
62862.98023791609,15.614323878049618,183800.0,155694.0,10215.0
62862.990240686035,15.624326647994167,183795.0,155669.0,10214.0
62863.00024345597,15.63432941793144,183770.0,155663.0,10209.0
62863.01024622592,15.644332187875989,183811.0,155680.0,10241.0
62863.02024899586,15.654334957820538,183790.0,155650.0,10201.0
62863.0302517658,15.664337727757811,183807.0,155664.0,10235.0
62863.04025453574,15.67434049770236,183832.0,155682.0,10234.0
62863.05025730568,15.684343267639633,183783.0,155643.0,10219.0
62863.060260075625,15.694346037584182,183841.0,155702.0,10277.0
62863.07026284556,15.704348807521455,183832.0,155690.0,10244.0
62863.08026561551,15.714351577466005,183809.0,155685.0,10287.0
62863.090268385444,15.724354347403278,183883.0,155715.0,10309.0
62863.10027115539,15.734357117347827,183863.0,155707.0,10257.0
62863.110273925326,15.7443598872851,183863.0,155701.0,10312.0
62863.12027669527,15.754362657229649,183851.0,155719.0,10299.0
62863.13027946521,15.764365427166922,183879.0,155721.0,10283.0
62863.14028223515,15.774368197111471,183891.0,155706.0,10307.0
62863.15028500509,15.784370967048744,183891.0,155721.0,10299.0
62863.160287775034,15.794373736993293,183888.0,155731.0,10311.0
62863.17029054497,15.804376506930566,183870.0,155705.0,10324.0
62863.180293314916,15.814379276875115,183889.0,155734.0,10342.0
62863.19029608485,15.824382046812389,183909.0,155733.0,10336.0
62863.2002988548,15.834384816756938,183903.0,155763.0,10330.0
62863.210301624735,15.84438758669421,183940.0,155754.0,10331.0
62863.22030439468,15.85439035663876,183918.0,155721.0,10367.0
62863.230307164624,15.864393126583309,183958.0,155740.0,10379.0
62863.24030993456,15.874395896520582,183949.0,155760.0,10358.0
62863.250312704506,15.884398666465131,183928.0,155726.0,10361.0
62863.26031547444,15.894401436402404,183976.0,155747.0,10378.0
62863.27031824439,15.904404206346953,183950.0,155747.0,10373.0
62863.280321014325,15.914406976284226,183971.0,155748.0,10402.0
62863.29032378427,15.924409746228775,183942.0,155770.0,10384.0
62863.30032655421,15.934412516166049,183943.0,155723.0,10390.0
62863.31032932415,15.944415286110598,183992.0,155796.0,10401.0
62863.32033209409,15.95441805604787,183983.0,155763.0,10417.0
62863.33033486403,15.96442082599242,183977.0,155760.0,10420.0
62863.34033763397,15.974423595929693,184043.0,155780.0,10456.0
62863.350340403915,15.984426365874242,184013.0,155790.0,10439.0
62863.36034317385,15.994429135811515,184025.0,155797.0,10455.0
62863.3703459438,16.004431905756064,184028.0,155810.0,10473.0
62863.380348713734,16.014434675693337,184047.0,155791.0,10454.0
62863.39035148368,16.024437445637886,184054.0,155783.0,10494.0
62863.400354253616,16.03444021557516,184049.0,155799.0,10477.0
62863.41035702356,16.04444298551971,184004.0,155769.0,10465.0
62863.420359793505,16.054445755464258,184029.0,155829.0,10491.0
62863.43036256344,16.06444852540153,183913.0,155766.0,10431.0
62863.44036533339,16.07445129534608,183945.0,155762.0,10431.0
62863.450368103324,16.084454065283353,183955.0,155752.0,10437.0
62863.46037087327,16.094456835227902,183918.0,155738.0,10380.0
62863.470373643206,16.104459605165175,183858.0,155750.0,10359.0
62863.48037641315,16.114462375109724,183864.0,155724.0,10347.0
62863.49037918309,16.124465145046997,183837.0,155698.0,10329.0
62863.50038195303,16.134467914991546,183815.0,155675.0,10314.0
62863.51038472297,16.14447068492882,183808.0,155667.0,10281.0
62863.520387492914,16.15447345487337,183799.0,155688.0,10270.0
62863.53039026285,16.16447622481064,183783.0,155712.0,10278.0
62863.540393032796,16.17447899475519,183777.0,155717.0,10268.0
62863.55039580273,16.184481764692464,183816.0,155688.0,10286.0
62863.56039857268,16.194484534637013,183764.0,155658.0,10227.0
62863.570401342615,16.204487304574286,183801.0,155663.0,10219.0
62863.58040411256,16.214490074518835,183747.0,155658.0,10228.0
62863.5904068825,16.22449284445611,183777.0,155689.0,10244.0
62863.60040965244,16.234495614400657,183773.0,155685.0,10240.0
62863.610412422386,16.244498384345206,183756.0,155682.0,10209.0
62863.62041519232,16.25450115428248,183779.0,155686.0,10231.0
62863.63041796227,16.26450392422703,183749.0,155654.0,10224.0
62863.640420732205,16.2745066941643,183761.0,155678.0,10212.0
62863.65042350215,16.28450946410885,183760.0,155699.0,10236.0
62863.66042627209,16.294512234046124,183744.0,155659.0,10200.0
62863.67042904203,16.304515003990673,183772.0,155694.0,10207.0
62863.68043181197,16.314517773927946,183762.0,155661.0,10226.0
62863.69043458191,16.324520543872495,183746.0,155666.0,10221.0
62863.70043735185,16.33452331380977,183738.0,155656.0,10218.0
62863.710440121795,16.344526083754317,183736.0,155650.0,10240.0
62863.72044289173,16.35452885369159,183763.0,155667.0,10212.0
62863.73044566168,16.36453162363614,183759.0,155665.0,10228.0
62863.740448431614,16.374534393573413,183743.0,155651.0,10236.0
62863.75045120156,16.38453716351796,183737.0,155695.0,10224.0
62863.760453971496,16.394539933455235,183776.0,155668.0,10211.0
62863.77045674144,16.404542703399784,183759.0,155690.0,10213.0
62863.78045951138,16.414545473337057,183788.0,155692.0,10193.0
62863.79046228132,16.424548243281606,183726.0,155683.0,10208.0
62863.80046505127,16.434551013226155,183770.0,155676.0,10223.0
62863.810467821204,16.44455378316343,183794.0,155669.0,10241.0
62863.82047059115,16.454556553107977,183791.0,155689.0,10214.0
62863.830473361086,16.46455932304525,183771.0,155691.0,10237.0
62863.84047613103,16.4745620929898,183772.0,155684.0,10236.0
62863.85047890097,16.484564862927073,183773.0,155688.0,10217.0
62863.86048167091,16.49456763287162,183793.0,155672.0,10263.0
62863.87048444085,16.504570402808895,183806.0,155678.0,10240.0
62863.880487210794,16.514573172753444,183802.0,155712.0,10253.0
62863.89048998073,16.524575942690717,183828.0,155718.0,10279.0
62863.900492750676,16.534578712635266,183821.0,155724.0,10268.0
62863.91049552061,16.54458148257254,183846.0,155712.0,10286.0
62863.92049829056,16.55458425251709,183831.0,155714.0,10271.0
62863.930501060495,16.56458702245436,183841.0,155728.0,10274.0
62863.94050383044,16.57458979239891,183861.0,155762.0,10305.0
62863.95050660038,16.584592562336184,183844.0,155736.0,10278.0
62863.96050937032,16.594595332280733,183839.0,155745.0,10319.0
62863.97051214026,16.604598102218006,183823.0,155706.0,10300.0
62863.9805149102,16.614600872162555,183862.0,155704.0,10306.0
62863.99051768014,16.624603642099828,183847.0,155723.0,10301.0
62864.000520450085,16.634606412044377,183869.0,155727.0,10309.0
62864.01052322003,16.644609181988926,183869.0,155762.0,10327.0
62864.02052598997,16.6546119519262,183876.0,155724.0,10321.0
62864.03052875991,16.66461472187075,183917.0,155758.0,10321.0
62864.04053152985,16.67461749180802,183910.0,155756.0,10329.0
62864.05053429979,16.68462026175257,183886.0,155751.0,10360.0
62864.06053706973,16.694623031689844,183931.0,155785.0,10369.0
62864.070539839675,16.704625801634393,183894.0,155730.0,10364.0
62864.08054260961,16.714628571571666,183925.0,155760.0,10355.0
62864.09054537956,16.724631341516215,183894.0,155759.0,10378.0
62864.100548149494,16.734634111453488,183910.0,155777.0,10367.0
62864.11055091944,16.744636881398037,183957.0,155800.0,10408.0
62864.120553689376,16.75463965133531,183942.0,155786.0,10386.0
62864.13055645932,16.76464242127986,183933.0,155748.0,10401.0
62864.14055922926,16.774645191217132,183927.0,155759.0,10387.0
62864.1505619992,16.78464796116168,183942.0,155794.0,10389.0
62864.16056476914,16.794650731098955,184010.0,155792.0,10439.0
62864.170567539084,16.804653501043504,183966.0,155783.0,10405.0
62864.18057030902,16.814656270980777,183968.0,155775.0,10407.0
62864.190573078966,16.824659040925326,183978.0,155807.0,10448.0
62864.20057584891,16.834661810869875,183994.0,155780.0,10427.0
62864.21057861885,16.844664580807148,184017.0,155808.0,10446.0
62864.22058138879,16.854667350751697,183944.0,155753.0,10435.0
62864.23058415873,16.86467012068897,184014.0,155777.0,10458.0
62864.240586928674,16.87467289063352,183973.0,155787.0,10452.0
62864.25058969861,16.884675660570792,184029.0,155811.0,10477.0
62864.260592468556,16.89467843051534,184006.0,155824.0,10475.0
62864.27059523849,16.904681200452615,184019.0,155835.0,10483.0
62864.28059800844,16.914683970397164,184043.0,155830.0,10468.0
62864.290600778375,16.924686740334437,184055.0,155840.0,10486.0
62864.30060354832,16.934689510278986,184029.0,155819.0,10528.0
62864.31060631826,16.94469228021626,184071.0,155840.0,10510.0
62864.3206090882,16.954695050160808,184074.0,155837.0,10503.0
62864.33061185814,16.96469782009808,184088.0,155852.0,10537.0
62864.34061462808,16.97470059004263,184099.0,155865.0,10547.0
62864.35061739802,16.984703359979903,184072.0,155829.0,10517.0
62864.360620167965,16.994706129924452,184071.0,155861.0,10559.0
62864.3706229379,17.004708899861726,184097.0,155850.0,10553.0
62864.38062570785,17.014711669806275,184060.0,155834.0,10533.0
62864.39062847779,17.024714439750824,184087.0,155865.0,10520.0
62864.40063124773,17.034717209688097,184004.0,155814.0,10500.0
62864.41063401767,17.044719979632646,183991.0,155819.0,10507.0
62864.42063678761,17.05472274956992,183981.0,155793.0,10503.0
62864.430639557555,17.064725519514468,183927.0,155779.0,10449.0
62864.44064232749,17.07472828945174,183929.0,155785.0,10458.0
62864.45064509744,17.08473105939629,183893.0,155769.0,10416.0
62864.460647867374,17.094733829333563,183848.0,155746.0,10396.0
62864.47065063732,17.104736599278112,183881.0,155762.0,10418.0
62864.480653407256,17.114739369215386,183835.0,155742.0,10357.0
62864.4906561772,17.124742139159935,183882.0,155767.0,10368.0
62864.50065894714,17.134744909097208,183857.0,155786.0,10376.0
62864.51066171708,17.144747679041757,183806.0,155728.0,10340.0
62864.52066448702,17.15475044897903,183825.0,155742.0,10348.0
62864.530667256964,17.16475321892358,183848.0,155734.0,10336.0
62864.5406700269,17.174755988860852,183829.0,155728.0,10316.0
62864.550672796846,17.1847587588054,183838.0,155714.0,10331.0
62864.56067556678,17.194761528742674,183813.0,155715.0,10313.0
62864.57067833673,17.204764298687223,183832.0,155729.0,10333.0
62864.580681106665,17.214767068624496,183843.0,155742.0,10344.0
62864.59068387661,17.224769838569046,183776.0,155708.0,10306.0
62864.600686646554,17.234772608513595,183785.0,155715.0,10304.0
62864.61068941649,17.244775378450868,183825.0,155730.0,10323.0
62864.620692186436,17.254778148395417,183854.0,155792.0,10350.0
62864.63069495637,17.26478091833269,183811.0,155715.0,10322.0
62864.64069772632,17.27478368827724,183843.0,155740.0,10325.0
62864.650700496255,17.284786458214512,183821.0,155729.0,10332.0
62864.6607032662,17.29478922815906,183816.0,155718.0,10359.0
62864.67070603614,17.304791998096334,183820.0,155736.0,10333.0
62864.68070880608,17.314794768040883,183845.0,155715.0,10327.0
62864.69071157602,17.324797537978156,183825.0,155728.0,10329.0
62864.70071434596,17.334800307922706,183793.0,155703.0,10315.0
62864.7107171159,17.34480307785998,183796.0,155706.0,10337.0
62864.720719885845,17.354805847804528,183854.0,155752.0,10333.0
62864.73072265578,17.3648086177418,183829.0,155736.0,10331.0
62864.74072542573,17.37481138768635,183804.0,155711.0,10318.0
62864.750728195664,17.384814157623623,183856.0,155747.0,10368.0
62864.76073096561,17.394816927568172,183783.0,155711.0,10318.0
62864.770733735546,17.404819697505445,183812.0,155722.0,10327.0
62864.78073650549,17.414822467449994,183801.0,155734.0,10317.0
62864.790739275435,17.424825237394543,183814.0,155730.0,10334.0
62864.80074204537,17.434828007331816,183859.0,155737.0,10329.0
62864.81074481532,17.444830777276366,183841.0,155743.0,10340.0
62864.820747585254,17.45483354721364,183840.0,155739.0,10342.0
62864.8307503552,17.464836317158188,183824.0,155724.0,10331.0
62864.840753125136,17.47483908709546,183869.0,155732.0,10353.0
62864.85075589508,17.48484185704001,183864.0,155753.0,10352.0
62864.86075866502,17.494844626977283,183852.0,155776.0,10365.0
62864.87076143496,17.504847396921832,183841.0,155752.0,10341.0
62864.8807642049,17.514850166859105,183890.0,155763.0,10393.0
62864.890766974844,17.524852936803654,183856.0,155718.0,10394.0
62864.90076974478,17.534855706740927,183861.0,155738.0,10378.0
62864.910772514726,17.544858476685476,183878.0,155771.0,10409.0
62864.92077528466,17.55486124662275,183880.0,155732.0,10370.0
62864.93077805461,17.5648640165673,183902.0,155783.0,10397.0
62864.940780824545,17.574866786504572,183879.0,155735.0,10391.0
62864.95078359449,17.58486955644912,183931.0,155791.0,10433.0
62864.96078636443,17.594872326386394,183894.0,155789.0,10420.0
62864.97078913437,17.604875096330943,183928.0,155797.0,10407.0
62864.980791904316,17.614877866275492,183892.0,155778.0,10438.0
62864.99079467425,17.624880636212765,183933.0,155811.0,10426.0
62865.0007974442,17.634883406157314,183946.0,155762.0,10438.0
62865.010800214135,17.644886176094587,183939.0,155803.0,10463.0
62865.02080298408,17.654888946039136,183929.0,155796.0,10452.0
62865.03080575402,17.66489171597641,183948.0,155788.0,10465.0
62865.04080852396,17.67489448592096,183954.0,155787.0,10473.0
62865.0508112939,17.684897255858232,183953.0,155792.0,10475.0
62865.06081406384,17.69490002580278,183941.0,155815.0,10472.0
62865.07081683378,17.704902795740054,184001.0,155817.0,10463.0
62865.080819603725,17.714905565684603,183967.0,155780.0,10473.0
62865.09082237366,17.724908335621876,184010.0,155802.0,10527.0
62865.10082514361,17.734911105566425,183984.0,155822.0,10482.0
62865.110827913544,17.7449138755037,184003.0,155840.0,10486.0
62865.12083068349,17.754916645448247,184018.0,155818.0,10509.0
62865.130833453426,17.76491941538552,184025.0,155837.0,10543.0
62865.14083622337,17.77492218533007,184023.0,155840.0,10514.0
62865.15083899331,17.784924955267343,184012.0,155841.0,10507.0
62865.16084176325,17.794927725211892,184036.0,155853.0,10545.0
62865.1708445332,17.80493049515644,183997.0,155832.0,10542.0
62865.180847303134,17.814933265093714,184029.0,155826.0,10526.0
62865.19085007308,17.824936035038263,184012.0,155838.0,10537.0
62865.200852843016,17.834938804975536,184068.0,155846.0,10548.0
62865.21085561296,17.844941574920085,184040.0,155865.0,10566.0
62865.2208583829,17.85494434485736,184072.0,155859.0,10552.0
62865.23086115284,17.864947114801907,184062.0,155882.0,10561.0
62865.24086392278,17.87494988473918,184074.0,155865.0,10565.0
62865.250866692724,17.88495265468373,184090.0,155876.0,10569.0
62865.26086946266,17.894955424621003,184108.0,155889.0,10600.0
62865.270872232606,17.904958194565552,184073.0,155864.0,10619.0
62865.28087500254,17.914960964502825,184095.0,155865.0,10613.0
62865.29087777249,17.924963734447374,184107.0,155892.0,10628.0
62865.300880542425,17.934966504384647,184095.0,155877.0,10612.0
62865.31088331237,17.944969274329196,184096.0,155857.0,10606.0
62865.32088608231,17.95497204426647,184109.0,155880.0,10620.0
62865.33088885225,17.96497481421102,184117.0,155923.0,10639.0
62865.34089162219,17.97497758414829,184126.0,155889.0,10639.0
62865.35089439213,17.98498035409284,184131.0,155874.0,10653.0
62865.36089716207,17.994983124030114,184086.0,155877.0,10626.0
62865.370899932015,18.004985893974663,184070.0,155855.0,10621.0
62865.38090270196,18.014988663919212,184050.0,155850.0,10606.0
62865.3909054719,18.024991433856485,183973.0,155841.0,10585.0
62865.40090824184,18.034994203801034,183934.0,155840.0,10561.0
62865.41091101178,18.044996973738307,183983.0,155820.0,10552.0
62865.42091378172,18.054999743682856,183939.0,155828.0,10531.0
62865.43091655166,18.06500251362013,183930.0,155801.0,10496.0
62865.440919321605,18.07500528356468,183897.0,155801.0,10511.0
62865.45092209154,18.08500805350195,183895.0,155744.0,10474.0
62865.46092486149,18.0950108234465,183878.0,155784.0,10473.0
62865.470927631424,18.105013593383774,183866.0,155758.0,10458.0
62865.48093040137,18.115016363328323,183889.0,155763.0,10464.0
62865.490933171306,18.125019133265596,183856.0,155764.0,10426.0
62865.50093594125,18.135021903210145,183879.0,155769.0,10435.0
62865.51093871119,18.145024673147418,183877.0,155801.0,10442.0
62865.52094148113,18.155027443091967,183834.0,155765.0,10410.0
62865.53094425107,18.16503021302924,183851.0,155771.0,10425.0
62865.540947021014,18.17503298297379,183877.0,155774.0,10423.0
62865.55094979095,18.185035752911062,183784.0,155766.0,10401.0
62865.560952560896,18.19503852285561,183820.0,155756.0,10415.0
62865.57095533084,18.20504129280016,183839.0,155749.0,10416.0
62865.58095810078,18.215044062737434,183856.0,155764.0,10422.0
62865.59096087072,18.225046832681983,183851.0,155782.0,10441.0
62865.60096364066,18.235049602619256,183872.0,155768.0,10411.0
62865.610966410604,18.245052372563805,183851.0,155755.0,10398.0
62865.62096918054,18.255055142501078,183845.0,155767.0,10422.0
62865.630971950486,18.265057912445627,183840.0,155746.0,10417.0
62865.64097472042,18.2750606823829,183849.0,155764.0,10415.0
62865.65097749037,18.28506345232745,183844.0,155735.0,10432.0
62865.660980260305,18.295066222264722,183863.0,155761.0,10421.0
62865.67098303025,18.30506899220927,183856.0,155757.0,10408.0
62865.68098580019,18.315071762146545,183820.0,155758.0,10383.0
62865.69098857013,18.325074532091094,183845.0,155720.0,10402.0
62865.70099134007,18.335077302028367,183836.0,155754.0,10410.0
62865.71099411001,18.345080071972916,183843.0,155770.0,10407.0
62865.72099687995,18.35508284191019,183844.0,155727.0,10406.0
62865.730999649895,18.365085611854738,183848.0,155752.0,10437.0
62865.74100241983,18.37508838179201,183842.0,155753.0,10419.0
62865.75100518978,18.38509115173656,183819.0,155739.0,10410.0
62865.76100795972,18.39509392168111,183871.0,155762.0,10400.0
62865.77101072966,18.405096691618382,183829.0,155746.0,10386.0
62865.7810134996,18.41509946156293,183866.0,155755.0,10410.0
62865.79101626954,18.425102231500205,183892.0,155789.0,10419.0
62865.801019039485,18.435105001444754,183869.0,155752.0,10396.0
62865.81102180942,18.445107771382027,183894.0,155775.0,10452.0
62865.82102457937,18.455110541326576,183876.0,155761.0,10419.0
62865.831027349304,18.46511331126385,183843.0,155748.0,10422.0
62865.84103011925,18.475116081208398,183845.0,155756.0,10414.0
62865.851032889186,18.48511885114567,183853.0,155771.0,10430.0
62865.86103565913,18.49512162109022,183880.0,155778.0,10435.0
62865.87103842907,18.505124391027493,183907.0,155799.0,10436.0
62865.88104119901,18.515127160972042,183880.0,155769.0,10444.0
62865.89104396895,18.525129930909316,183912.0,155778.0,10474.0
62865.901046738894,18.535132700853865,183910.0,155779.0,10445.0
62865.91104950883,18.545135470791138,183878.0,155776.0,10469.0
62865.921052278776,18.555138240735687,183924.0,155793.0,10481.0
62865.93105504871,18.56514101067296,183942.0,155810.0,10484.0
62865.94105781866,18.57514378061751,183925.0,155802.0,10487.0
62865.951060588595,18.585146550554782,183903.0,155774.0,10515.0
62865.96106335854,18.59514932049933,183927.0,155796.0,10456.0
62865.971066128484,18.60515209044388,183919.0,155774.0,10504.0
62865.98106889842,18.615154860381153,183955.0,155814.0,10487.0
62865.991071668366,18.625157630325702,183968.0,155806.0,10505.0
62866.0010744383,18.635160400262976,183946.0,155785.0,10537.0
62866.01107720825,18.645163170207525,183927.0,155828.0,10513.0
62866.021079978185,18.655165940144798,183964.0,155825.0,10507.0
62866.03108274813,18.665168710089347,183974.0,155815.0,10512.0
62866.04108551807,18.67517148002662,183996.0,155843.0,10520.0
62866.05108828801,18.68517424997117,183979.0,155801.0,10501.0
62866.06109105795,18.695177019908442,184004.0,155823.0,10556.0
62866.07109382789,18.70517978985299,184000.0,155830.0,10534.0
62866.08109659783,18.715182559790264,183981.0,155804.0,10534.0
62866.091099367775,18.725185329734813,183995.0,155834.0,10571.0
62866.10110213771,18.735188099672087,183993.0,155812.0,10535.0
62866.11110490766,18.745190869616636,184024.0,155833.0,10552.0
62866.121107677594,18.75519363955391,184011.0,155853.0,10545.0
62866.13111044754,18.765196409498458,183998.0,155817.0,10551.0
62866.141113217476,18.77519917943573,184040.0,155871.0,10590.0
62866.15111598742,18.78520194938028,184030.0,155853.0,10569.0
62866.161118757365,18.79520471932483,184064.0,155875.0,10585.0
62866.1711215273,18.805207489262102,184043.0,155874.0,10601.0
62866.18112429725,18.81521025920665,184055.0,155860.0,10571.0
62866.191127067184,18.825213029143924,184079.0,155869.0,10601.0
62866.20112983713,18.835215799088473,184045.0,155870.0,10629.0
62866.211132607066,18.845218569025747,184079.0,155885.0,10612.0
62866.22113537701,18.855221338970296,184056.0,155837.0,10634.0
62866.23113814695,18.86522410890757,184089.0,155876.0,10610.0
62866.24114091689,18.875226878852118,184041.0,155844.0,10612.0
62866.25114368683,18.88522964878939,184059.0,155837.0,10632.0
62866.261146456774,18.89523241873394,184055.0,155856.0,10593.0
62866.27114922671,18.905235188671213,184045.0,155834.0,10601.0
62866.281151996656,18.915237958615762,184007.0,155843.0,10575.0
62866.29115476659,18.925240728553035,183986.0,155833.0,10565.0
62866.30115753654,18.935243498497584,183952.0,155797.0,10549.0
62866.311160306475,18.945246268434857,183943.0,155798.0,10526.0
62866.32116307642,18.955249038379407,183916.0,155795.0,10523.0
62866.33116584636,18.96525180831668,183876.0,155760.0,10492.0
62866.3411686163,18.97525457826123,183899.0,155809.0,10507.0
62866.351171386246,18.985257348205778,183881.0,155772.0,10480.0
62866.36117415618,18.99526011814305,183825.0,155766.0,10465.0
62866.37117692613,19.0052628880876,183856.0,155781.0,10480.0
62866.381179696065,19.015265658024873,183796.0,155747.0,10424.0
62866.39118246601,19.025268427969422,183853.0,155769.0,10432.0
62866.40118523595,19.035271197906695,183880.0,155785.0,10444.0
62866.41118800589,19.045273967851244,183831.0,155745.0,10398.0
62866.42119077583,19.055276737788517,183876.0,155773.0,10457.0
62866.43119354577,19.065279507733067,183835.0,155753.0,10428.0
62866.44119631571,19.07528227767034,183835.0,155742.0,10420.0
62866.451199085655,19.08528504761489,183840.0,155764.0,10436.0
62866.46120185559,19.095287817552162,183847.0,155777.0,10421.0
62866.47120462554,19.10529058749671,183859.0,155765.0,10426.0
62866.481207395474,19.115293357433984,183859.0,155731.0,10411.0
62866.49121016542,19.125296127378533,183827.0,155713.0,10413.0
62866.501212935356,19.135298897315806,183836.0,155772.0,10434.0
