timestamp,time_from_segment_start_sec,selected_channel_name,backup_channel_name,selected_channel_raw,selected_channel_clipped,selected_channel_detrended,selected_channel_filtered,selected_channel_filtered_z
63856.457900024594,0.0,PPG_2,PPG_1,89520.0,89520.0,-8.308796331795747,-8.57495468096023,-0.27569763638446576
63856.46799389265,0.0100938680552644,PPG_2,PPG_1,89533.0,89533.0,4.663034032972064,-1.4112832268245739,-0.04327981919691865
63856.47808776071,0.0201877361178048,PPG_2,PPG_1,89558.0,89558.0,29.634864397739875,5.2051718847727795,0.1713841369046791
63856.48818162877,0.0302816041730693,PPG_2,PPG_1,89508.0,89508.0,-20.39330523747776,10.777078966730862,0.3521588262314643
63856.49827549682,0.0403754722283338,PPG_2,PPG_1,89565.0,89565.0,36.57852512729005,14.879276750612027,0.4852503367376912
63856.50836936488,0.0504693402835982,PPG_2,PPG_1,89557.0,89557.0,28.55035549205786,17.186611650025835,0.5601094008748124
63856.51846323294,0.0605632083461387,PPG_2,PPG_1,89531.0,89531.0,2.522185856825672,17.49429186936889,0.5700917633308984
63856.528557100995,0.0706570764014031,PPG_2,PPG_1,89524.0,89524.0,-4.505983778406517,15.729050385842253,0.5128203522902213
63856.53865096905,0.0807509444566676,PPG_2,PPG_1,89554.0,89554.0,25.465846586361295,11.951076100260194,0.39024793359858134
63856.548744837106,0.0908448125119321,PPG_2,PPG_1,89541.0,89541.0,12.437676951129106,6.3486758787564055,0.20848392629737722
63856.55883870517,0.1009386805744725,PPG_2,PPG_1,89517.0,89517.0,-11.590492684103083,-0.7741951337524877,-0.02261016329547324
63856.568932573224,0.111032548629737,PPG_2,PPG_1,89537.0,89537.0,8.38133768067928,-9.01982560723129,-0.29013100763496197
63856.57902644128,0.1211264166850014,PPG_2,PPG_1,89468.0,89468.0,-60.64683195455291,-17.92914809317061,-0.579184644175834
63856.589120309334,0.1312202847402659,PPG_2,PPG_1,89456.0,89456.0,-72.6750015897851,-27.022142964326605,-0.8741973388788506
63856.59921417739,0.1413141527955304,PPG_2,PPG_1,89468.0,89468.0,-60.703171225017286,-35.83975227057146,-1.1602754373637985
63856.60930804545,0.1514080208580708,PPG_2,PPG_1,89466.0,89466.0,-62.731340860249475,-43.9789499131558,-1.4243431799813622
63856.61940191351,0.1615018889133352,PPG_2,PPG_1,89446.0,89446.0,-82.75951049548166,-51.115878610836226,-1.6558933564457554
63856.62949578156,0.1715957569685997,PPG_2,PPG_1,89472.0,89472.0,-56.78768013071385,-57.01750784867994,-1.8473655357732957
63856.63958964962,0.1816896250238642,PPG_2,PPG_1,89436.0,89436.0,-92.81584976594604,-61.5449338673402,-1.9942531309780767
63856.64968351768,0.1917834930864046,PPG_2,PPG_1,89420.0,89420.0,-108.84401940116368,-64.65102143004047,-2.095026888671755
63856.659777385736,0.2018773611416691,PPG_2,PPG_1,89464.0,89464.0,-64.87218903639587,-66.3732363473801,-2.1509023478379943
63856.66987125379,0.2119712291969335,PPG_2,PPG_1,89435.0,89435.0,-93.90035867162806,-66.82120163209238,-2.1654361123071224
63856.679965121846,0.222065097252198,PPG_2,PPG_1,89443.0,89443.0,-85.92852830686024,-66.15994845760586,-2.1439824456493968
63856.69005898991,0.2321589653147384,PPG_2,PPG_1,89421.0,89421.0,-107.95669794209243,-64.59163322666288,-2.093100100615647
63856.70015285797,0.2422528333700029,PPG_2,PPG_1,89466.0,89466.0,-62.98486757732462,-62.33729048662415,-2.0199603115861104
63856.71024672602,0.2523467014252674,PPG_2,PPG_1,89443.0,89443.0,-86.01303721255681,-59.61873175655873,-1.9317595209743095
63856.720340594075,0.2624405694805318,PPG_2,PPG_1,89451.0,89451.0,-78.041206847789,-56.641967607655324,-1.8351815259895083
63856.73043446214,0.2725344375430722,PPG_2,PPG_1,89455.0,89455.0,-74.06937648300664,-53.58481911356669,-1.7359955451187525
63856.74052833019,0.2826283055983367,PPG_2,PPG_1,89432.0,89432.0,-97.09754611823882,-50.59014405537209,-1.6388364494416663
63856.75062219825,0.2927221736536012,PPG_2,PPG_1,89455.0,89455.0,-74.12571575347101,-47.763846406333705,-1.5471401824482136
63856.7607160663,0.3028160417088656,PPG_2,PPG_1,89460.0,89460.0,-69.1538853887032,-45.175623835761854,-1.4631680120186819
63856.77080993436,0.3129099097641301,PPG_2,PPG_1,89437.0,89437.0,-92.18205502393539,-42.86093744281452,-1.3880704363737295
63856.78090380242,0.3230037778266705,PPG_2,PPG_1,89464.0,89464.0,-65.21022465916758,-40.82391150268292,-1.321981263302221
63856.79099767048,0.333097645881935,PPG_2,PPG_1,89477.0,89477.0,-52.23839429439977,-39.04123334396746,-1.264144137598003
63856.80109153853,0.3431915139371995,PPG_2,PPG_1,89455.0,89455.0,-74.2665639296174,-37.467673709115104,-1.2130916433723384
63856.81118540659,0.3532853819924639,PPG_2,PPG_1,89431.0,89431.0,-98.2947335648496,-36.04476328868224,-1.1669268051203692
63856.82127927465,0.3633792500550044,PPG_2,PPG_1,89448.0,89448.0,-81.32290320008178,-34.7122555183091,-1.1236949861629577
63856.831373142704,0.3734731181102688,PPG_2,PPG_1,89452.0,89452.0,-77.35107283531397,-33.41812688679716,-1.081708338168057
63856.84146701076,0.3835669861655333,PPG_2,PPG_1,89467.0,89467.0,-62.37924247054616,-32.12257793234423,-1.0396756092829644
63856.851560878815,0.3936608542207978,PPG_2,PPG_1,89479.0,89479.0,-50.40741210577835,-30.79570731283428,-0.9966266817810264
63856.86165474688,0.4037547222833382,PPG_2,PPG_1,89469.0,89469.0,-60.43558174101054,-29.412718947486614,-0.9517570727924242
63856.87174861493,0.4138485903386026,PPG_2,PPG_1,89450.0,89450.0,-79.46375137624273,-27.951378295142383,-0.9043454059174457
63856.88184248299,0.4239424583938671,PPG_2,PPG_1,89461.0,89461.0,-68.49192101146036,-26.393747474151233,-0.8538097053738631
63856.89193635104,0.4340363264491316,PPG_2,PPG_1,89467.0,89467.0,-62.52009064669255,-24.730476584488088,-0.7998466234483339
63856.902030219106,0.444130194511672,PPG_2,PPG_1,89440.0,89440.0,-89.54826028192474,-22.964571266047077,-0.7425536749791525
63856.91212408716,0.4542240625669365,PPG_2,PPG_1,89486.0,89486.0,-43.57642991715693,-21.11265836735704,-0.6824703006520793
63856.922217955216,0.4643179306222009,PPG_2,PPG_1,89453.0,89453.0,-76.60459955238912,-19.203054457005738,-0.6205152018765164
63856.93231182327,0.4744117986774654,PPG_2,PPG_1,89471.0,89471.0,-58.63276918762131,-17.271003302742226,-0.5578318257831908
63856.94240569133,0.4845056667327299,PPG_2,PPG_1,89483.0,89483.0,-46.660938822853495,-15.352252614573013,-0.4955799693815491
63856.95249955939,0.4945995347952703,PPG_2,PPG_1,89486.0,89486.0,-43.689108458085684,-13.476472154139518,-0.4347222370123017
63856.962593427445,0.5046934028505348,PPG_2,PPG_1,89469.0,89469.0,-60.71727809330332,-11.66266951686207,-0.3758753102005382
63856.9726872955,0.5147872709057992,PPG_2,PPG_1,89453.0,89453.0,-76.74544772853551,-9.918553807328841,-0.3192893027701998
63856.982781163555,0.5248811389610637,PPG_2,PPG_1,89489.0,89489.0,-40.7736173637677,-8.243075540096157,-0.26493016526528484
63856.99287503162,0.5349750070236041,PPG_2,PPG_1,89471.0,89471.0,-58.80178699899989,-6.629041366869548,-0.21256451703460427
63857.00296889967,0.5450688750788686,PPG_2,PPG_1,89480.0,89480.0,-49.829956634232076,-5.063992418148966,-0.16178814310649658
63857.01306276773,0.555162743134133,PPG_2,PPG_1,89480.0,89480.0,-49.858126269464265,-3.530039942448551,-0.11202066167546265
63857.02315663578,0.5652566111893975,PPG_2,PPG_1,89499.0,89499.0,-30.886295904696453,-2.0039364361824,-0.06250783183680875
63857.033250503846,0.5753504792519379,PPG_2,PPG_1,89479.0,89479.0,-50.91446553991409,-0.45851893681396716,-0.012368379721191548
63857.0433443719,0.5854443473072024,PPG_2,PPG_1,89481.0,89481.0,-48.94263517514628,1.1331806715814814,0.03927264694649213
63857.05343823996,0.5955382153624669,PPG_2,PPG_1,89478.0,89478.0,-51.97080481037847,2.7909501723625287,0.09305724207182917
63857.06353210801,0.6056320834177313,PPG_2,PPG_1,89468.0,89468.0,-61.998974445610656,4.51953738904886,0.14913944381610347
63857.073625976074,0.6157259514802718,PPG_2,PPG_1,89483.0,89483.0,-47.027144080842845,6.303174451664325,0.20700768015301302
63857.08371984413,0.6258198195355362,PPG_2,PPG_1,89488.0,89488.0,-42.055313716075034,8.105222000098331,0.26547322541938745
63857.093813712185,0.6359136875908007,PPG_2,PPG_1,89496.0,89496.0,-34.08348335130722,9.873705854420765,0.32284983178451465
63857.10390758024,0.6460075556460652,PPG_2,PPG_1,89489.0,89489.0,-41.11165298653941,11.551112990791387,0.377271549428336
63857.114001448295,0.6561014237013296,PPG_2,PPG_1,89519.0,89519.0,-11.139822621757048,13.085536243189036,0.427054304716226
63857.12409531636,0.66619529176387,PPG_2,PPG_1,89485.0,89485.0,-45.16799225698924,14.44029548682026,0.4710080494175752
63857.13418918441,0.6762891598191345,PPG_2,PPG_1,89505.0,89505.0,-25.196161892221426,15.599780233110195,0.508626317580807
63857.14428305247,0.686383027874399,PPG_2,PPG_1,89510.0,89510.0,-20.224331527453614,16.570527478175457,0.540121195198155
63857.15437692053,0.6964768959296634,PPG_2,PPG_1,89474.0,89474.0,-56.2525011626858,17.377894706456612,0.5663153792931747
63857.164470788586,0.7065707639922039,PPG_2,PPG_1,89498.0,89498.0,-32.28067079791799,18.059571350060015,0.588431664015106
63857.17456465664,0.7166646320474683,PPG_2,PPG_1,89500.0,89500.0,-30.30884043315018,18.658251048718995,0.6078551997883008
63857.1846585247,0.7267585001027328,PPG_2,PPG_1,89504.0,89504.0,-26.33701006838237,19.215875397515745,0.6259467377360871
63857.19475239275,0.7368523681579973,PPG_2,PPG_1,89475.0,89475.0,-55.365179703600006,19.769957026561322,0.6439233358521478
63857.204846260815,0.7469462362205377,PPG_2,PPG_1,89515.0,89515.0,-15.393349338832195,20.351447720361364,0.6627891923662479
63857.21494012887,0.7570401042758022,PPG_2,PPG_1,89509.0,89509.0,-21.421518974064384,20.984375902318796,0.6833238843086185
63857.225033996925,0.7671339723310666,PPG_2,PPG_1,89482.0,89482.0,-48.44968860929657,21.68706675243416,0.7061219529508075
63857.23512786498,0.7772278403863311,PPG_2,PPG_1,89531.0,89531.0,0.5221417554712389,22.47350473329437,0.7316371095342923
63857.24522173304,0.7873217084488715,PPG_2,PPG_1,89488.0,89488.0,-42.50602787976095,23.353712585169742,0.7601945313694478
63857.2553156011,0.797415576504136,PPG_2,PPG_1,89506.0,89506.0,-24.53419751499314,24.3328338570833,0.7919610955170356
63857.26540946915,0.8075094445594004,PPG_2,PPG_1,89483.0,89483.0,-47.56236715022533,25.409242697518795,0.8268840529275081
63857.27550333721,0.8176033126146649,PPG_2,PPG_1,89514.0,89514.0,-16.590536785442964,26.57343719776551,0.8646551241249288
63857.285597205264,0.8276971806699294,PPG_2,PPG_1,89504.0,89504.0,-26.618706420675153,27.80999417405828,0.9047739200660913
63857.29569107333,0.8377910487324698,PPG_2,PPG_1,89518.0,89518.0,-12.646876055907342,29.10292477459212,0.9467216992007106
63857.30578494138,0.8478849167877343,PPG_2,PPG_1,89532.0,89532.0,1.3249543088604696,30.44226709035396,0.9901752578248393
63857.31587880944,0.8579787848429987,PPG_2,PPG_1,89500.0,89500.0,-30.70321532637172,31.82867589418828,1.0351558393576157
63857.32597267749,0.8680726528982632,PPG_2,PPG_1,89501.0,89501.0,-29.731384961603908,33.27375598123554,1.0820399492226511
63857.336066545555,0.8781665209608036,PPG_2,PPG_1,89517.0,89517.0,-13.759554596836097,34.79688005142046,1.1314561143782744
63857.34616041361,0.8882603890160681,PPG_2,PPG_1,89533.0,89533.0,2.2122757679462666,36.4215040033639,1.184165336887818
63857.356254281665,0.8983542570713325,PPG_2,PPG_1,89530.0,89530.0,-0.8158938672859222,38.1722914194225,1.240967800848508
63857.36634814972,0.908448125126597,PPG_2,PPG_1,89542.0,89542.0,11.155936497481889,40.07065753340273,1.302558301091142
63857.37644201778,0.9185419931891374,PPG_2,PPG_1,89501.0,89501.0,-29.8722331377503,42.12536151705753,1.369221019768994
63857.38653588584,0.928635861244402,PPG_2,PPG_1,89494.0,89494.0,-36.90040277298249,44.31793096916037,1.4403566391720373
63857.396629753894,0.9387297292996664,PPG_2,PPG_1,89526.0,89526.0,-4.928572408214677,46.58770429674907,1.5139970574528239
63857.40672362195,0.9488235973549308,PPG_2,PPG_1,89510.0,89510.0,-20.956742043446866,48.82364282937033,1.5865397412490425
63857.41681749001,0.9589174654174712,PPG_2,PPG_1,89538.0,89538.0,7.015088321320945,50.86716552175873,1.6528396946429043
63857.42691135807,0.9690113334727356,PPG_2,PPG_1,89537.0,89537.0,5.986918686103309,52.52527487604741,1.7066353159593382
63857.43700522612,0.9791052015280002,PPG_2,PPG_1,89541.0,89541.0,9.95874905087112,53.59030597198107,1.7411891343663588
63857.44709909418,0.9891990695832646,PPG_2,PPG_1,89548.0,89548.0,16.93057941563893,53.86193470685211,1.7500018441686342
63857.45719296223,0.9992929376385292,PPG_2,PPG_1,89537.0,89537.0,5.902409780406742,53.167578312100865,1.7274741782013274
63857.467286830295,1.0093868057010695,PPG_2,PPG_1,89560.0,89560.0,28.874240145174554,51.37838984166933,1.6694258322523023
63857.47738069835,1.019480673756334,PPG_2,PPG_1,89506.0,89506.0,-25.153929490057635,48.419066752399026,1.5734136941797445
63857.487474566406,1.0295745418115985,PPG_2,PPG_1,89517.0,89517.0,-14.182099125289824,44.27126238211521,1.4388425257454645
63857.49756843446,1.039668409866863,PPG_2,PPG_1,89530.0,89530.0,-1.2102687605220126,38.973024305539305,1.2669467406607342
63857.50766230252,1.0497622779294034,PPG_2,PPG_1,89493.0,89493.0,-38.23843839573965,32.61796603530199,1.0607635312932076
63857.51775617058,1.0598561459846678,PPG_2,PPG_1,89530.0,89530.0,-1.2666080309718382,25.35599805731065,0.8251565863437399
63857.527850038634,1.0699500140399325,PPG_2,PPG_1,89540.0,89540.0,8.705222333795973,17.3944281182995,0.5668517885235238
63857.53794390669,1.0800438820951968,PPG_2,PPG_1,89501.0,89501.0,-30.322947301436216,8.995452627504294,0.2943558257089004
63857.54803777475,1.0901377501577372,PPG_2,PPG_1,89470.0,89470.0,-61.351116936668404,0.46470296058557137,0.017584587768610226
63857.55813164281,1.1002316182130016,PPG_2,PPG_1,89470.0,89470.0,-61.37928657190059,-7.871010298874155,-0.25285889821042107
63857.56822551086,1.110325486268266,PPG_2,PPG_1,89457.0,89457.0,-74.40745620713278,-15.69210266439976,-0.5066060482933914
63857.57831937892,1.1204193543235306,PPG_2,PPG_1,89448.0,89448.0,-83.43562584236497,-22.713446341702014,-0.7344061898339519
63857.58841324697,1.130513222378795,PPG_2,PPG_1,89454.0,89454.0,-77.46379547758261,-28.705370178543443,-0.9288078828525141
63857.598507115035,1.1406070904413357,PPG_2,PPG_1,89454.0,89454.0,-77.4919651128148,-33.50649093393461,-1.0845752171260088
63857.60860098309,1.1507009584966,PPG_2,PPG_1,89435.0,89435.0,-96.52013474804698,-37.02862357782216,-1.1988471217182777
63857.618694851146,1.1607948265518644,PPG_2,PPG_1,89443.0,89443.0,-88.54830438327917,-39.25505561413998,-1.2710813771989191
63857.6287887192,1.1708886946071289,PPG_2,PPG_1,89467.0,89467.0,-64.57647401851136,-40.23321922674855,-1.3028168710933974
63857.638882587264,1.1809825626696693,PPG_2,PPG_1,89433.0,89433.0,-98.60464365374355,-40.06294513971788,-1.297292506682684
63857.64897645532,1.1910764307249335,PPG_2,PPG_1,89479.0,89479.0,-52.63281328897574,-38.88278202620968,-1.2590033505533245
63857.659070323374,1.2011702987801982,PPG_2,PPG_1,89452.0,89452.0,-79.66098292419338,-36.85749057563329,-1.1932948907048737
63857.66916419143,1.211264166835463,PPG_2,PPG_1,89427.0,89427.0,-104.68915255942557,-34.16896433093634,-1.1060684726251948
63857.67925805949,1.221358034898003,PPG_2,PPG_1,89459.0,89459.0,-72.71732219465775,-31.01051792381354,-1.0035959870642412
63857.68935192755,1.2314519029532676,PPG_2,PPG_1,89472.0,89472.0,-59.74549182988994,-27.58169479733983,-0.8923514120332169
63857.6994457956,1.241545771008532,PPG_2,PPG_1,89463.0,89463.0,-68.77366146512213,-24.08109484193674,-0.778778112965752
63857.70953966366,1.2516396390637965,PPG_2,PPG_1,89456.0,89456.0,-75.80183110035432,-20.698069024131815,-0.6690193836469454
63857.71963353172,1.261733507126337,PPG_2,PPG_1,89493.0,89493.0,-38.83000073558651,-17.60527966763854,-0.5686770723252746
63857.729727399776,1.2718273751816014,PPG_2,PPG_1,89445.0,89445.0,-86.8581703708187,-14.952528757880396,-0.4826113475170368
63857.73982126783,1.2819212432368658,PPG_2,PPG_1,89480.0,89480.0,-51.886340006036335,-12.861257817782686,-0.41476225223717744
63857.749915135886,1.2920151112921303,PPG_2,PPG_1,89502.0,89502.0,-29.914509641268523,-11.41899147625932,-0.367969431398582
63857.76000900394,1.3021089793473948,PPG_2,PPG_1,89470.0,89470.0,-61.94267927650071,-10.673824341694726,-0.34379326419657863
63857.770102872,1.3122028474099352,PPG_2,PPG_1,89465.0,89465.0,-66.9708489117329,-10.630789259273405,-0.34239703602183796
63857.78019674006,1.3222967154651997,PPG_2,PPG_1,89503.0,89503.0,-28.99901854696509,-11.25147109441083,-0.3625344080683073
63857.790290608114,1.332390583520464,PPG_2,PPG_1,89486.0,89486.0,-46.02718818219728,-12.456226285724302,-0.4016214284046171
63857.80038447617,1.3424844515757286,PPG_2,PPG_1,89448.0,89448.0,-84.05535781742947,-14.128895980821579,-0.45588944472826287
63857.81047834423,1.352578319638269,PPG_2,PPG_1,89511.0,89511.0,-21.083527452661656,-16.12484275305061,-0.520645847222991
63857.82057221229,1.3626721876935337,PPG_2,PPG_1,89450.0,89450.0,-82.11169708787929,-18.281714932952966,-0.5906233060183756
63857.83066608034,1.372766055748798,PPG_2,PPG_1,89472.0,89472.0,-60.13986672311148,-20.431531619970677,-0.6603718567369552
63857.8407599484,1.3828599238040624,PPG_2,PPG_1,89459.0,89459.0,-73.16803635834367,-22.41298224701483,-0.724657946984245
63857.85085381646,1.3929537918666028,PPG_2,PPG_1,89479.0,89479.0,-53.19620599357586,-24.08222985052808,-0.7788149371307038
63857.86094768451,1.4030476599218673,PPG_2,PPG_1,89461.0,89461.0,-71.22437562880805,-25.32076312018372,-0.8189978518400791
63857.87104155257,1.4131415279771318,PPG_2,PPG_1,89473.0,89473.0,-59.252545264040236,-26.04066112476172,-0.8423541885862452
63857.88113542063,1.4232353960323962,PPG_2,PPG_1,89468.0,89468.0,-64.28071489927243,-26.18849115041713,-0.8471503789332737
63857.89122928869,1.4333292640949369,PPG_2,PPG_1,89456.0,89456.0,-76.30888453449006,-25.748426506567768,-0.8328729424819081
63857.901323156744,1.4434231321502011,PPG_2,PPG_1,89447.0,89447.0,-85.33705416972225,-24.744010014640985,-0.8002857014148953
63857.9114170248,1.4535170002054656,PPG_2,PPG_1,89483.0,89483.0,-49.36522380495444,-23.23660129636831,-0.7513794043919975
63857.921510892855,1.46361086826073,PPG_2,PPG_1,89470.0,89470.0,-62.39339344018663,-21.31849814193029,-0.6891485565440455
63857.93160476091,1.4737047363159943,PPG_2,PPG_1,89477.0,89477.0,-55.42156307541882,-19.10119448109236,-0.6172104616449001
63857.94169862897,1.483798604378535,PPG_2,PPG_1,89480.0,89480.0,-52.449732710651006,-16.701573204714144,-0.5393572626667914
63857.95179249703,1.4938924724337994,PPG_2,PPG_1,89503.0,89503.0,-29.477902345883194,-14.228730558095869,-0.4591284730224118
63857.96188636508,1.503986340489064,PPG_2,PPG_1,89486.0,89486.0,-46.50607198111538,-11.77355292249297,-0.37947280615830953
63857.97198023314,1.5140802085443283,PPG_2,PPG_1,89486.0,89486.0,-46.53424161633302,-9.403332356629594,-0.30257348243891014
63857.9820741012,1.5241740766068688,PPG_2,PPG_1,89469.0,89469.0,-63.56241125156521,-7.162468304421388,-0.22987099531862204
63857.992167969256,1.5342679446621332,PPG_2,PPG_1,89491.0,89491.0,-41.5905808867974,-5.077226390776745,-0.16221750548730376
63858.00226183731,1.5443618127173977,PPG_2,PPG_1,89490.0,89490.0,-42.618750522029586,-3.160698394394759,-0.10003776199267851
63858.01235570537,1.5544556807726622,PPG_2,PPG_1,89509.0,89509.0,-23.646920157261775,-1.4156119880948044,-0.04342026132243965
63858.02244957343,1.5645495488352026,PPG_2,PPG_1,89499.0,89499.0,-33.675089792493964,0.16420109189041718,0.007835119380778709
63858.032543441484,1.574643416890467,PPG_2,PPG_1,89496.0,89496.0,-36.70325942772615,1.5911619448918548,0.054131369675061686
63858.04263730954,1.5847372849457315,PPG_2,PPG_1,89472.0,89472.0,-60.73142906295834,2.8788254096900983,0.09590826210747311
63858.052731177595,1.594831153000996,PPG_2,PPG_1,89482.0,89482.0,-50.75959869817598,4.036254692467164,0.1334598429098972
63858.06282504566,1.6049250210635364,PPG_2,PPG_1,89525.0,89525.0,-7.787768333408167,5.066231548591033,0.16687636322167151
63858.07291891371,1.6150188891188009,PPG_2,PPG_1,89513.0,89513.0,-19.815937968640355,5.969720165616678,0.19618910509813886
63858.08301278177,1.6251127571740651,PPG_2,PPG_1,89505.0,89505.0,-27.844107603872544,6.753746530530727,0.2216260193281476
63858.09310664982,1.6352066252293298,PPG_2,PPG_1,89488.0,89488.0,-44.87227723910473,7.437458827744913,0.24380834869936213
63858.10320051788,1.6453004932845945,PPG_2,PPG_1,89528.0,89528.0,-4.900446874336922,8.054324816870142,0.26382191961863616
63858.11329438594,1.6553943613471347,PPG_2,PPG_1,89498.0,89498.0,-34.92861650956911,8.651883013563657,0.2832090694352089
63858.123388254,1.6654882294023992,PPG_2,PPG_1,89501.0,89501.0,-31.9567861448013,9.290091519420416,0.3039150759559464
63858.13348212205,1.6755820974576636,PPG_2,PPG_1,89533.0,89533.0,0.015044219981064089,10.038020980196757,0.3281808639386632
63858.14357599011,1.685675965512928,PPG_2,PPG_1,89497.0,89497.0,-36.013125415251125,10.968659277146067,0.3583744487440111
63858.15366985817,1.6957698335754685,PPG_2,PPG_1,89509.0,89509.0,-24.041295050483313,12.151561470352693,0.39675247144530734
63858.163763726225,1.705863701630733,PPG_2,PPG_1,89533.0,89533.0,-0.06946468571550213,13.643332573568623,0.44515142242633593
63858.17385759428,1.7159575696859974,PPG_2,PPG_1,89482.0,89482.0,-51.09763432094769,15.476866683943477,0.5046385162162412
63858.183951462335,1.726051437741262,PPG_2,PPG_1,89487.0,89487.0,-46.12580395617988,17.65107995119673,0.5751785884278829
63858.1940453304,1.7361453058038023,PPG_2,PPG_1,89511.0,89511.0,-22.15397359141207,20.124699340037264,0.6554325786601134
63858.20413919845,1.7462391738590668,PPG_2,PPG_1,89535.0,89535.0,1.8178567733702948,22.818928739747392,0.7428440296307801
63858.21423306651,1.7563330419143313,PPG_2,PPG_1,89516.0,89516.0,-17.210312861861894,25.630363136978985,0.8340580739869494
63858.22432693456,1.7664269099695955,PPG_2,PPG_1,89553.0,89553.0,19.761517502905917,28.450000593897762,0.9255382580228851
63858.23442080262,1.7765207780248602,PPG_2,PPG_1,89527.0,89527.0,-6.266652132326271,31.182446200100717,1.0141895937860241
63858.24451467068,1.7866146460874006,PPG_2,PPG_1,89546.0,89546.0,12.70517823244154,33.76106718264957,1.0978502507487358
63858.25460853874,1.796708514142665,PPG_2,PPG_1,89548.0,89548.0,14.677008597209351,36.156831502638596,1.1755783148165262
63858.26470240679,1.8068023821979295,PPG_2,PPG_1,89556.0,89556.0,22.648838961977162,38.37973309074537,1.2476980286027086
63858.27479627485,1.816896250253194,PPG_2,PPG_1,89528.0,89528.0,-5.379330673255026,40.47208863947231,1.3155823128735378
63858.28489014291,1.8269901183157344,PPG_2,PPG_1,89540.0,89540.0,6.592499691527337,42.49397889713849,1.3811804245803845
63858.294984010965,1.837083986370999,PPG_2,PPG_1,89529.0,89529.0,-4.435669943704852,44.503657230773435,1.4463823332026577
63858.30507787902,1.8471778544262631,PPG_2,PPG_1,89564.0,89564.0,30.53616042106296,46.53753257477495,1.5123692884826216
63858.315171747076,1.857271722481528,PPG_2,PPG_1,89513.0,89513.0,-20.49200921416923,48.593227957639144,1.5790641720694434
63858.32526561514,1.8673655905440685,PPG_2,PPG_1,89560.0,89560.0,26.479821150598582,50.617265233250855,1.6447319415247725
63858.33535948319,1.8774594585993327,PPG_2,PPG_1,89551.0,89551.0,17.451651515366393,52.49851255720271,1.7057670405549472
63858.34545335125,1.8875533266545972,PPG_2,PPG_1,89515.0,89515.0,-18.576518119865796,54.06842975649679,1.756701359773966
63858.355547219304,1.8976471947098617,PPG_2,PPG_1,89569.0,89569.0,35.395312244902016,55.10867911985751,1.7904511608237414
63858.36564108737,1.907741062772402,PPG_2,PPG_1,89540.0,89540.0,6.367142609684379,55.366801153169995,1.7988256598407035
63858.37573495542,1.9178349308276663,PPG_2,PPG_1,89547.0,89547.0,13.33897297445219,54.57995816879352,1.7732973633423292
63858.38582882348,1.927928798882931,PPG_2,PPG_1,89559.0,89559.0,25.31080333922,52.504833637524335,1.70597212138536
63858.39592269153,1.9380226669381957,PPG_2,PPG_1,89584.0,89584.0,50.28263370398781,48.95049866976855,1.5906554461235067
63858.40601655959,1.94811653499346,PPG_2,PPG_1,89539.0,89539.0,5.254464068755624,43.80965693025399,1.4238662203397332
63858.41611042765,1.9582104030560004,PPG_2,PPG_1,89534.0,89534.0,0.22629443352343515,37.08259982727856,1.2056138984710467
63858.426204295705,1.9683042711112648,PPG_2,PPG_1,89577.0,89577.0,43.198124798291246,28.890329142058263,0.9398242565732156
63858.43629816376,1.9783981391665293,PPG_2,PPG_1,89543.0,89543.0,9.169955163059058,19.475858830573824,0.6343816279181878
63858.446392031816,1.9884920072217935,PPG_2,PPG_1,89503.0,89503.0,-30.85821447215858,9.19167546722382,0.3007220702221975
63858.45648589988,1.9985858752843344,PPG_2,PPG_1,89498.0,89498.0,-35.88638410739077,-1.528734012637227,-0.047090386926093304
63858.46657976793,2.008679743339598,PPG_2,PPG_1,89456.0,89456.0,-77.91455374262296,-12.212214916786145,-0.3937047351139427
63858.47667363599,2.018773611394863,PPG_2,PPG_1,89459.0,89459.0,-74.94272337785515,-22.391582375302335,-0.7239636505604969
63858.48676750405,2.0288674794501276,PPG_2,PPG_1,89461.0,89461.0,-72.97089301308733,-31.646238798871348,-1.0242212850092207
63858.49686137211,2.038961347512668,PPG_2,PPG_1,89475.0,89475.0,-58.99906264831952,-39.63182941388371,-1.2833054085033337
63858.50695524016,2.0490552155679325,PPG_2,PPG_1,89425.0,89425.0,-109.02723228355171,-46.09809997734701,-1.4930967842421814
63858.51704910822,2.059149083623197,PPG_2,PPG_1,89452.0,89452.0,-82.05540191876935,-50.897246930338454,-1.6488000805641538
63858.52714297627,2.0692429516784614,PPG_2,PPG_1,89452.0,89452.0,-82.08357155400154,-53.984241026587206,-1.7489543707370758
63858.537236844335,2.079336819741002,PPG_2,PPG_1,89442.0,89442.0,-92.11174118923373,-55.40946378738815,-1.79519423045037
63858.54733071239,2.0894306877962663,PPG_2,PPG_1,89437.0,89437.0,-97.13991082446591,-55.305118803110695,-1.7918088667251488
63858.557424580446,2.0995245558515307,PPG_2,PPG_1,89443.0,89443.0,-91.1680804596981,-53.86739585887204,-1.745163451652757
63858.5675184485,2.109618423906795,PPG_2,PPG_1,89466.0,89466.0,-68.19625009493029,-51.33519442898167,-1.663008828456778
63858.57761231656,2.1197122919620597,PPG_2,PPG_1,89486.0,89486.0,-48.22441973016248,-47.9666499981224,-1.5537199325697957
63858.58770618462,2.1298061600246,PPG_2,PPG_1,89463.0,89463.0,-71.25258936539467,-44.017599830364986,-1.4255971360637634
63858.597800052674,2.139900028079865,PPG_2,PPG_1,89442.0,89442.0,-92.2807590006123,-39.72735761580241,-1.2864047209595155
63858.60789392073,2.149993896135129,PPG_2,PPG_1,89460.0,89460.0,-74.3089286358445,-35.31338281773105,-1.14319793177932
63858.617987788784,2.1600877641903935,PPG_2,PPG_1,89465.0,89465.0,-69.33709827107668,-30.970832416247774,-1.0023084323373852
63858.62808165685,2.170181632252934,PPG_2,PPG_1,89501.0,89501.0,-33.36526790630887,-26.87192470413847,-0.8693236647638154
63858.6381755249,2.1802755003081984,PPG_2,PPG_1,89471.0,89471.0,-63.39343754154106,-23.164180635006762,-0.7490297918866372
63858.64826939296,2.190369368363463,PPG_2,PPG_1,89472.0,89472.0,-62.42160717677325,-19.9702042331749,-0.64540457286103
63858.65836326101,2.2004632364187273,PPG_2,PPG_1,89467.0,89467.0,-67.44977681200544,-17.39041800493134,-0.5617061107222178
63858.668457129075,2.2105571044812677,PPG_2,PPG_1,89460.0,89460.0,-74.47794644723763,-15.506121605074517,-0.5005720876178712
63858.67855099713,2.220650972536532,PPG_2,PPG_1,89513.0,89513.0,-21.506116082455264,-14.378423326691827,-0.46398509811313227
63858.688644865186,2.2307448405917967,PPG_2,PPG_1,89476.0,89476.0,-58.53428571768745,-14.041133942785107,-0.45304209732505507
63858.69873873324,2.240838708647061,PPG_2,PPG_1,89502.0,89502.0,-32.56245535291964,-14.490111468824406,-0.4676087029038294
63858.7088326013,2.2509325767096016,PPG_2,PPG_1,89511.0,89511.0,-23.59062498815183,-15.673750282016304,-0.506010624469021
63858.71892646936,2.261026444764866,PPG_2,PPG_1,89495.0,89495.0,-39.61879462338402,-17.48883110636076,-0.5648990207214162
63858.729020337414,2.2711203128201305,PPG_2,PPG_1,89471.0,89471.0,-63.64696425861621,-19.78482849700844,-0.6393902512613885
63858.73911420547,2.281214180875395,PPG_2,PPG_1,89472.0,89472.0,-62.6751338938484,-22.37731557740131,-0.7235007792454679
63858.749208073525,2.291308048930659,PPG_2,PPG_1,89467.0,89467.0,-67.70330352906603,-25.067053809590558,-0.8107665189899136
63858.75930194159,2.3014019169932,PPG_2,PPG_1,89474.0,89474.0,-60.73147316429822,-27.65934867284844,-0.8948708106903742
63858.76939580964,2.3114957850484643,PPG_2,PPG_1,89476.0,89476.0,-58.75964279953041,-29.980084771174262,-0.9701646626899438
63858.7794896777,2.321589653103729,PPG_2,PPG_1,89447.0,89447.0,-87.7878124347626,-31.887750212751506,-1.0320568698764607
63858.78958354575,2.3316835211589932,PPG_2,PPG_1,89465.0,89465.0,-69.81598206999479,-33.28161281805747,-1.0772792821909638
63858.799677413816,2.3417773892215337,PPG_2,PPG_1,89460.0,89460.0,-74.84415170522698,-34.10505415212314,-1.1039949738123402
63858.80977128187,2.351871257276798,PPG_2,PPG_1,89482.0,89482.0,-52.872321340459166,-34.34278201200561,-1.1117078052329734
63858.819865149926,2.3619651253320626,PPG_2,PPG_1,89458.0,89458.0,-76.90049097569135,-34.01268886952919,-1.1009982789608472
63858.82995901798,2.372058993387327,PPG_2,PPG_1,89454.0,89454.0,-80.92866061090899,-33.154876344350505,-1.0731674500437742
63858.84005288605,2.3821528614498675,PPG_2,PPG_1,89518.0,89518.0,-16.95683024614118,-31.819688005012534,-1.0298486628338939
63858.8501467541,2.392246729505132,PPG_2,PPG_1,89498.0,89498.0,-36.98499988137337,-30.0564760975889,-0.9726430992641255
63858.860240622154,2.4023405975603964,PPG_2,PPG_1,89459.0,89459.0,-76.01316951660556,-27.907526712673803,-0.9029226872538638
63858.87033449021,2.412434465615661,PPG_2,PPG_1,89448.0,89448.0,-87.04133915183775,-25.411566807808494,-0.8219438823783929
63858.88042835827,2.4225283336782013,PPG_2,PPG_1,89471.0,89471.0,-64.06950878706994,-22.614584572730315,-0.7311987232862731
63858.89052222633,2.4326222017334658,PPG_2,PPG_1,89475.0,89475.0,-60.097678422302124,-19.579704673396577,-0.6327352236484862
63858.90061609438,2.4427160697887302,PPG_2,PPG_1,89486.0,89486.0,-49.12584805753431,-16.389847472324,-0.5292436477771135
63858.91070996244,2.4528099378439947,PPG_2,PPG_1,89474.0,89474.0,-61.15401769275195,-13.14274872693686,-0.4238949299545484
63858.92080383049,2.462903805899259,PPG_2,PPG_1,89520.0,89520.0,-15.182187327984138,-9.94090052552414,-0.3200143186363669
63858.93089769856,2.4729976739617996,PPG_2,PPG_1,89494.0,89494.0,-41.21035696321633,-6.87933840142354,-0.2206851421626552
63858.94099156661,2.483091542017064,PPG_2,PPG_1,89505.0,89505.0,-30.238526598448516,-4.034644538063742,-0.12839202926351434
63858.951085434666,2.4931854100723285,PPG_2,PPG_1,89476.0,89476.0,-59.266696233680705,-1.457967621059544,-0.04479444547120859
63858.96117930272,2.503279278127593,PPG_2,PPG_1,89525.0,89525.0,-10.294865868912893,0.8279965396627257,0.0293712674325161
63858.971273170784,2.5133731461901334,PPG_2,PPG_1,89537.0,89537.0,1.676964495854918,2.829832241432513,0.09431873007820112
63858.98136703884,2.523467014245398,PPG_2,PPG_1,89497.0,89497.0,-38.35120513937727,4.581326793092387,0.15114413631282947
63858.991460906895,2.5335608823006623,PPG_2,PPG_1,89483.0,89483.0,-52.37937477459491,6.1353962016165795,0.20156429055910144
63859.00155477495,2.543654750355927,PPG_2,PPG_1,89495.0,89495.0,-40.407544409827096,7.550362743993766,0.24747139800787488
63859.01164864301,2.5537486184184672,PPG_2,PPG_1,89518.0,89518.0,-17.435714045059285,8.876483856545223,0.2904960085415693
63859.02174251107,2.5638424864737317,PPG_2,PPG_1,89514.0,89514.0,-21.463883680291474,10.148282947050667,0.3317581979662025
63859.03183637912,2.573936354528996,PPG_2,PPG_1,89488.0,89488.0,-47.49205331552366,11.383046520522486,0.3718188088312274
63859.04193024718,2.5840302225842606,PPG_2,PPG_1,89537.0,89537.0,1.4797770492441487,12.583230375072121,0.4107575169341968
63859.05202411524,2.594124090646801,PPG_2,PPG_1,89505.0,89505.0,-30.54839258598804,13.741624395290314,0.44834039763244404
63859.062117983296,2.6042179587020655,PPG_2,PPG_1,89528.0,89528.0,-7.576562221205677,14.848472994526926,0.48425094113498757
63859.07221185135,2.61431182675733,PPG_2,PPG_1,89545.0,89545.0,9.395268143562134,15.898495116393688,0.5183178090986238
63859.08230571941,2.6244056948125944,PPG_2,PPG_1,89513.0,89513.0,-22.632901491670054,16.89497674416793,0.5506476118090871
63859.09239958746,2.634499562867859,PPG_2,PPG_1,89496.0,89496.0,-39.66107112690224,17.848745152470553,0.5815916288510973
63859.10249345552,2.6445934309303993,PPG_2,PPG_1,89517.0,89517.0,-18.689240762134432,18.77285636639054,0.6115734492839457
63859.11258732358,2.654687298985664,PPG_2,PPG_1,89537.0,89537.0,1.2825896026333794,19.677294655493725,0.640917002276294
63859.122681191635,2.6647811670409283,PPG_2,PPG_1,89512.0,89512.0,-23.74558003259881,20.567049757441684,0.6697841746403816
63859.13277505969,2.6748750350961927,PPG_2,PPG_1,89521.0,89521.0,-14.773749667830998,21.442901899957448,0.6982002800474814
63859.14286892775,2.684968903158733,PPG_2,PPG_1,89522.0,89522.0,-13.801919303048635,22.303089592803236,0.7261081687917919
63859.15296279581,2.6950627712139976,PPG_2,PPG_1,89528.0,89528.0,-7.830088938280824,23.14578087737276,0.753448404895103
63859.16305666386,2.705156639269262,PPG_2,PPG_1,89519.0,89519.0,-16.858258573513012,23.97281272901721,0.7802805870986586
63859.17315053192,2.7152505073245266,PPG_2,PPG_1,89520.0,89520.0,-15.886428208745201,24.79442638717307,0.8069369816894265
63859.18324439998,2.725344375387067,PPG_2,PPG_1,89532.0,89532.0,-3.91459784397739,25.63478366261959,0.8342014933113544
63859.19333826803,2.735438243442331,PPG_2,PPG_1,89554.0,89554.0,18.05723252079042,26.538097692540223,0.86350857089206
63859.20343213609,2.745532111497596,PPG_2,PPG_1,89556.0,89556.0,20.029062885558233,27.573378340978692,0.8970971671903544
63859.21352600415,2.7556259795528604,PPG_2,PPG_1,89526.0,89526.0,-9.999106749673956,28.833374106236707,0.9379764100899932
63859.2236198722,2.765719847608125,PPG_2,PPG_1,89539.0,89539.0,2.972723615108407,30.423992804377832,0.9895823677566076
63859.233713740265,2.7758137156706653,PPG_2,PPG_1,89542.0,89542.0,5.944553979876218,32.4446757273219,1.0551413087529433
63859.24380760832,2.7859075837259297,PPG_2,PPG_1,89491.0,89491.0,-45.08361565535597,34.963827489505434,1.1368725491482363
63859.253901476375,2.796001451781194,PPG_2,PPG_1,89523.0,89523.0,-13.11178529058816,37.994953107256364,1.2352142450522574
63859.26399534443,2.8060953198364587,PPG_2,PPG_1,89539.0,89539.0,2.860045074179652,41.48021313442675,1.3482898562150656
63859.27408921249,2.816189187898999,PPG_2,PPG_1,89536.0,89536.0,-0.1681245610525366,45.286879769379176,1.4717931681300114
63859.28418308055,2.8262830559542635,PPG_2,PPG_1,89577.0,89577.0,40.803705803715275,49.217149907500506,1.5993066662444742
63859.2942769486,2.836376924009528,PPG_2,PPG_1,89573.0,89573.0,36.775536168483086,53.02667109580086,1.722902591152969
63859.30437081666,2.8464707920647925,PPG_2,PPG_1,89551.0,89551.0,14.747366533265449,56.44512825634926,1.8338108532767325
63859.31446468472,2.856564660127333,PPG_2,PPG_1,89544.0,89544.0,7.71919689803326,59.193865705731675,1.922990760827952
63859.32455855278,2.866658528182598,PPG_2,PPG_1,89543.0,89543.0,6.691027262801072,61.000443165016684,1.981603274307314
63859.33465242083,2.876752396237862,PPG_2,PPG_1,89586.0,89586.0,49.66285762756888,61.61426896703639,2.001518209540204
63859.34474628889,2.8868462642931263,PPG_2,PPG_1,89558.0,89558.0,21.634687992336694,60.826247817011435,1.975951688691361
63859.35484015695,2.8969401323556667,PPG_2,PPG_1,89559.0,89559.0,22.606518357104505,58.490593989855846,1.9001738466045563
63859.364934025005,2.907034000410931,PPG_2,PPG_1,89599.0,89599.0,62.57834872187232,54.544459270971416,1.7721456387836025
63859.37502789306,2.9171278684661957,PPG_2,PPG_1,89540.0,89540.0,3.55017908665468,49.02154304809355,1.5929604065672482
63859.385121761115,2.92722173652146,PPG_2,PPG_1,89567.0,89567.0,30.52200945142249,42.05649255074554,1.3669866382895148
63859.39521562917,2.9373156045767246,PPG_2,PPG_1,89535.0,89535.0,-1.5061601838096976,33.87818755960919,1.10165009870874
63859.40530949723,2.947409472639265,PPG_2,PPG_1,89520.0,89520.0,-16.534329819041886,24.792686126049894,0.8068805207400133
63859.41540336529,2.9575033406945295,PPG_2,PPG_1,89506.0,89506.0,-30.562499454274075,15.158840316734432,0.49432048382907195
63859.425497233344,2.967597208749794,PPG_2,PPG_1,89501.0,89501.0,-35.590669089506264,5.360826271050689,0.17643418043696502
63859.4355911014,2.9776910768050584,PPG_2,PPG_1,89512.0,89512.0,-24.618838724738453,-4.218156052919263,-0.13434586815528501
63859.44568496946,2.987784944867599,PPG_2,PPG_1,89489.0,89489.0,-47.64700835997064,-13.218951212595154,-0.4263672397881801
63859.45577883752,2.9978788129228633,PPG_2,PPG_1,89461.0,89461.0,-75.67517799518828,-21.326873540254145,-0.6894202875703731
63859.46587270557,3.007972680978128,PPG_2,PPG_1,89473.0,89473.0,-63.70334763042047,-28.289899204511496,-0.9153283622592655
63859.47596657363,3.018066549033392,PPG_2,PPG_1,89478.0,89478.0,-58.731517265652656,-33.932809270633804,-1.0984066690396015
63859.48606044169,3.0281604170959326,PPG_2,PPG_1,89444.0,89444.0,-92.75968690088484,-38.16528021425189,-1.2357247557669782
63859.496154309745,3.038254285151197,PPG_2,PPG_1,89449.0,89449.0,-87.78785653611703,-40.98366019782374,-1.327164142397235
63859.5062481778,3.0483481532064616,PPG_2,PPG_1,89445.0,89445.0,-91.81602617134922,-42.46605428674101,-1.375258865970714
63859.516342045856,3.058442021261726,PPG_2,PPG_1,89478.0,89478.0,-58.84419580658141,-42.75915997452637,-1.3847683730155964
63859.52643591392,3.0685358893242665,PPG_2,PPG_1,89478.0,89478.0,-58.8723654418136,-42.05710406078726,-1.3619909042191103
63859.53652978197,3.078629757379531,PPG_2,PPG_1,89450.0,89450.0,-86.90053507703124,-40.57654705848247,-1.3139557829966315
63859.54662365003,3.0887236254347954,PPG_2,PPG_1,89493.0,89493.0,-43.928704712263425,-38.53367411195716,-1.247676909926762
63859.55671751808,3.09881749349006,PPG_2,PPG_1,89473.0,89473.0,-63.956874347495614,-36.126450330169185,-1.1695770556234049
63859.56681138614,3.1089113615453243,PPG_2,PPG_1,89473.0,89473.0,-63.9850439827278,-33.523585503277445,-1.0851298325236944
63859.5769052542,3.1190052296078647,PPG_2,PPG_1,89463.0,89463.0,-74.01321361795999,-30.860992710424483,-0.9987447981267134
63859.58699912226,3.129099097663129,PPG_2,PPG_1,89484.0,89484.0,-53.04138325319218,-28.244802698130925,-0.9138652533432772
63859.59709299031,3.1391929657183937,PPG_2,PPG_1,89461.0,89461.0,-76.06955288842437,-25.758162148023537,-0.8331888051719487
63859.60718685837,3.149286833773658,PPG_2,PPG_1,89473.0,89473.0,-64.097722523642,-23.469067491902095,-0.7589215266238405
63859.61728072643,3.1593807018361986,PPG_2,PPG_1,89483.0,89483.0,-54.125892158874194,-21.437131102323995,-0.6929974786893072
63859.627374594485,3.169474569891463,PPG_2,PPG_1,89469.0,89469.0,-68.15406179410638,-19.717625489992322,-0.6372099200863584
63859.63746846254,3.1795684379467275,PPG_2,PPG_1,89476.0,89476.0,-61.18223142933857,-18.36198505714441,-0.5932275861238205
63859.64756233059,3.189662306001992,PPG_2,PPG_1,89503.0,89503.0,-34.21040106457076,-17.414636907636414,-0.5624918676539014
63859.65765619866,3.1997561740645324,PPG_2,PPG_1,89486.0,89486.0,-51.23857069980295,-16.906840884724854,-0.5460169575498809
63859.667750066714,3.209850042119797,PPG_2,PPG_1,89491.0,89491.0,-46.26674033503514,-16.849845024134563,-0.5441677865497964
63859.67784393477,3.2199439101750613,PPG_2,PPG_1,89478.0,89478.0,-59.29490997026733,-17.230142120645507,-0.5565061275275652
63859.687937802824,3.230037778230326,PPG_2,PPG_1,89504.0,89504.0,-33.32307960548496,-18.007837473391675,-0.5817376386988118
63859.69803167089,3.240131646292866,PPG_2,PPG_1,89472.0,89472.0,-65.35124924071715,-19.11769954726426,-0.6177459512296429
63859.70812553894,3.2502255143481307,PPG_2,PPG_1,89496.0,89496.0,-41.37941887594934,-20.472736294813785,-0.6617086992549672
63859.718219407,3.260319382403395,PPG_2,PPG_1,89480.0,89480.0,-57.40758851118153,-21.97044154792491,-0.7103001775139893
63859.72831327505,3.2704132504586596,PPG_2,PPG_1,89457.0,89457.0,-80.43575814641372,-23.50130008617422,-0.7599672793849744
63859.73840714311,3.280507118513924,PPG_2,PPG_1,89487.0,89487.0,-50.46392778164591,-24.958071029318297,-0.8072306868312115
63859.74850101117,3.2906009865764645,PPG_2,PPG_1,89483.0,89483.0,-54.492097416878096,-26.24361495236338,-0.8489388129514237
63859.758594879226,3.300694854631729,PPG_2,PPG_1,89466.0,89466.0,-71.52026705211028,-27.276153334013117,-0.8824384392759743
63859.76868874728,3.3107887226869934,PPG_2,PPG_1,89467.0,89467.0,-70.54843668732792,-27.992720067948582,-0.9056866964352754
63859.778782615336,3.320882590742258,PPG_2,PPG_1,89479.0,89479.0,-58.57660632256011,-28.351184805586808,-0.9173167093963648
63859.7888764834,3.3309764588047983,PPG_2,PPG_1,89491.0,89491.0,-46.6047759577923,-28.330072819686357,-0.9166317531262606
63859.798970351454,3.341070326860063,PPG_2,PPG_1,89481.0,89481.0,-56.63294559302449,-27.92672432438178,-0.9035455336583854
63859.80906421951,3.3511641949153272,PPG_2,PPG_1,89472.0,89472.0,-65.66111522825668,-27.15639039604828,-0.878552856191942
63859.819158087565,3.3612580629705917,PPG_2,PPG_1,89448.0,89448.0,-89.68928486348887,-26.053882216420746,-0.8427831330575126
63859.82925195563,3.371351931033132,PPG_2,PPG_1,89465.0,89465.0,-72.71745449872105,-24.67557586271632,-0.7980654270327936
63859.83934582368,3.3814457990883966,PPG_2,PPG_1,89496.0,89496.0,-41.74562413395324,-23.09700828793378,-0.7468504554413492
63859.84943969174,3.391539667143661,PPG_2,PPG_1,89506.0,89506.0,-31.77379376917088,-21.403656925647418,-0.691911444087479
63859.85953355979,3.4016335351989255,PPG_2,PPG_1,89473.0,89473.0,-64.80196340440307,-19.67818918783153,-0.6359304505678521
63859.86962742785,3.41172740325419,PPG_2,PPG_1,89489.0,89489.0,-48.83013303963526,-17.9900410571308,-0.5811602526129764
63859.87972129591,3.4218212713167304,PPG_2,PPG_1,89487.0,89487.0,-50.858302674867446,-16.389920957632683,-0.5292460319309862
63859.889815163966,3.431915139371995,PPG_2,PPG_1,89489.0,89489.0,-48.886472310099634,-14.90784680519076,-0.4811616883613525
63859.89990903202,3.4420090074272593,PPG_2,PPG_1,89486.0,89486.0,-51.91464194533182,-13.552903434816768,-0.4372019698606863
63859.91000290008,3.452102875482524,PPG_2,PPG_1,89519.0,89519.0,-18.942811580564012,-12.314297832688846,-0.39701670840000797
63859.92009676814,3.462196743545064,PPG_2,PPG_1,89477.0,89477.0,-60.97098121578165,-11.164414227523816,-0.35970993920445593
63859.930190636194,3.4722906116003287,PPG_2,PPG_1,89469.0,89469.0,-68.99915085101384,-10.06475981251806,-0.324032803474182
63859.94028450425,3.482384479655593,PPG_2,PPG_1,89521.0,89521.0,-17.027320486246026,-8.973750315498544,-0.2886361430533902
63859.950378372305,3.4924783477108576,PPG_2,PPG_1,89481.0,89481.0,-57.055490121478215,-7.853402792108647,-0.25228764109530144
63859.96047224037,3.502572215773398,PPG_2,PPG_1,89506.0,89506.0,-32.083659756710404,-6.673673484207796,-0.21401255933450977
63859.97056610842,3.5126660838286625,PPG_2,PPG_1,89480.0,89480.0,-58.11182939194259,-5.415564054810669,-0.1731945166261523
63859.98065997648,3.522759951883927,PPG_2,PPG_1,89500.0,89500.0,-38.13999902717478,-4.07332403099171,-0.12964694489913434
63859.99075384453,3.5328538199391915,PPG_2,PPG_1,89489.0,89489.0,-49.16816866240697,-2.654274618982573,-0.0836073730215
63860.00084771259,3.542947688001732,PPG_2,PPG_1,89518.0,89518.0,-20.196338297624607,-1.174926603314286,-0.03561147610416467
63860.01094158065,3.5530415560569963,PPG_2,PPG_1,89536.0,89536.0,-2.2245079328567954,0.3458626845153341,0.013728939483363366
63860.021035448706,3.563135424112261,PPG_2,PPG_1,89490.0,89490.0,-48.252677568088984,1.8931915966657924,0.06393040538470302
63860.03112931676,3.5732292921675253,PPG_2,PPG_1,89497.0,89497.0,-41.28084720332117,3.4578797949483855,0.11469507514269575
63860.04122318482,3.5833231602227897,PPG_2,PPG_1,89494.0,89494.0,-44.30901683855336,5.033619212809238,0.16581829014499286
63860.05131705288,3.59341702828533,PPG_2,PPG_1,89519.0,89519.0,-19.33718647378555,6.613881236708805,0.2170882363632938
63860.061410920935,3.603510896340594,PPG_2,PPG_1,89518.0,89518.0,-20.36535610901774,8.192392074243868,0.2683013671741696
63860.07150478899,3.613604764395859,PPG_2,PPG_1,89539.0,89539.0,0.6064742557500722,9.766503942368924,0.3193717780299645
63860.081598657045,3.623698632451123,PPG_2,PPG_1,89494.0,89494.0,-44.421695379467565,11.339626230605175,0.370410083002741
63860.09169252511,3.633792500513664,PPG_2,PPG_1,89515.0,89515.0,-23.449865014699753,12.919874423893232,0.42167958050133747
63860.10178639316,3.643886368568928,PPG_2,PPG_1,89516.0,89516.0,-22.478034649931942,14.515886275611203,0.4734605133870295
63860.11188026122,3.653980236624193,PPG_2,PPG_1,89510.0,89510.0,-28.50620428516413,16.13316395831511,0.5259313938854887
63860.12197412927,3.664074104679458,PPG_2,PPG_1,89531.0,89531.0,-7.53437392039632,17.7732082650253,0.5791409136543484
63860.132067997336,3.674167972741998,PPG_2,PPG_1,89527.0,89527.0,-11.562543555628508,19.43537254292346,0.6330680927202142
63860.14216186539,3.6842618407972623,PPG_2,PPG_1,89524.0,89524.0,-14.590713190860697,21.119931119469996,0.6877218313502123
63860.15225573345,3.6943557088525263,PPG_2,PPG_1,89524.0,89524.0,-14.618882826092886,22.83066623813182,0.7432248404721505
63860.1623496015,3.704449576907791,PPG_2,PPG_1,89538.0,89538.0,-0.6470524613105226,24.57628521391219,0.7998596198013748
63860.17244346957,3.714543444970331,PPG_2,PPG_1,89536.0,89536.0,-2.6752220965427114,26.370823778860558,0.8580815439633751
63860.18253733762,3.724637313025596,PPG_2,PPG_1,89512.0,89512.0,-26.7033917317749,28.232874464807942,0.9184938281798185
63860.192631205675,3.734731181080861,PPG_2,PPG_1,89543.0,89543.0,4.268438632992911,30.18365946301017,0.9817850042181367
63860.20272507373,3.744825049136125,PPG_2,PPG_1,89549.0,89549.0,10.240268997760722,32.24507876106716,1.0486655942382301
63860.212818941785,3.7549189171913895,PPG_2,PPG_1,89537.0,89537.0,-1.7879006374714663,34.43833597054133,1.1198235272088373
63860.22291280985,3.76501278525393,PPG_2,PPG_1,89533.0,89533.0,-5.816070272703655,36.78188225706551,1.1958574318733906
63860.2330066779,3.7751066533091944,PPG_2,PPG_1,89566.0,89566.0,27.155760092078708,39.287590287984656,1.27715250448861
63860.24310054596,3.785200521364459,PPG_2,PPG_1,89527.0,89527.0,-11.87240954315348,41.95563175614418,1.3637143154490368
63860.253194414014,3.7952943894197233,PPG_2,PPG_1,89548.0,89548.0,9.09942082161433,44.76889152286748,1.4549875820064948
63860.26328828208,3.805388257482264,PPG_2,PPG_1,89574.0,89574.0,35.07125118638214,47.68777322327142,1.5496876415750995
63860.27338215013,3.815482125537528,PPG_2,PPG_1,89535.0,89535.0,-3.956918448850047,50.646244767149575,1.6456721521493072
63860.28347601819,3.8255759935927927,PPG_2,PPG_1,89568.0,89568.0,29.014911915917764,53.549057262707855,1.739850863197383
63860.29356988624,3.835669861648057,PPG_2,PPG_1,89555.0,89555.0,15.986742280685576,56.269943001041064,1.8281271511551525
63860.303663754305,3.8457637297105975,PPG_2,PPG_1,89556.0,89556.0,16.958572645453387,58.65163637285256,1.9053986980470619
63860.31375762236,3.855857597765862,PPG_2,PPG_1,89547.0,89547.0,7.93040301023575,60.508988410726936,1.9656585395480832
63860.323851490415,3.8659514658211265,PPG_2,PPG_1,89579.0,89579.0,39.90223337500356,61.63648901880166,2.002239115846718
63860.33394535847,3.876045333876391,PPG_2,PPG_1,89561.0,89561.0,21.874063739771373,61.82106003018083,2.0082273289934944
63860.34403922653,3.8861392019389314,PPG_2,PPG_1,89549.0,89549.0,9.845894104539184,60.85927907535383,1.977023353271744
63860.35413309459,3.896233069994196,PPG_2,PPG_1,89563.0,89563.0,23.817724469306995,58.57735712086274,1.9029887855154326
63860.36422696264,3.90632693804946,PPG_2,PPG_1,89577.0,89577.0,37.789554834074806,54.85312524812997,1.7821599831195416
63860.3743208307,3.9164208061047248,PPG_2,PPG_1,89568.0,89568.0,28.761385198842618,49.638741539741694,1.6129847651826192
63860.384414698754,3.926514674159989,PPG_2,PPG_1,89557.0,89557.0,17.73321556361043,42.98015011436059,1.3969537405133674
63860.39450856682,3.9366085422225296,PPG_2,PPG_1,89585.0,89585.0,45.70504592839279,35.02814039885249,1.1389591141314468
63860.40460243487,3.946702410277794,PPG_2,PPG_1,89520.0,89520.0,-19.323123706839397,26.037090750474185,0.8472539254052722
63860.41469630293,3.9567962783330586,PPG_2,PPG_1,89524.0,89524.0,-15.351293342071585,16.349635500684542,0.5329545863480185
63860.42479017098,3.966890146388323,PPG_2,PPG_1,89512.0,89512.0,-27.379462977303774,6.3689131976791025,0.20914050491350375
63860.434884039045,3.976984014450863,PPG_2,PPG_1,89505.0,89505.0,-34.40763261253596,-3.476639115268461,-0.11028812776897803
63860.4449779071,3.987077882506128,PPG_2,PPG_1,89469.0,89469.0,-70.43580224776815,-12.770782658550488,-0.4118268804584642
63860.455071775155,3.997171750561392,PPG_2,PPG_1,89494.0,89494.0,-45.46397188300034,-21.14554088966141,-0.6835371396474929
63860.46516564321,4.007265618616657,PPG_2,PPG_1,89445.0,89445.0,-94.49214151821798,-28.312440802873272,-0.9160597008083188
63860.47525951127,4.017359486679197,PPG_2,PPG_1,89447.0,89447.0,-92.52031115345017,-34.085391755535916,-1.1033570479492216
63860.48535337933,4.027453354734462,PPG_2,PPG_1,89465.0,89465.0,-74.54848078868235,-38.39167590719301,-1.2430699269003724
63860.495447247384,4.037547222789726,PPG_2,PPG_1,89460.0,89460.0,-79.57665042391454,-41.26838707907769,-1.3364018078400657
63860.50554111544,4.047641090844991,PPG_2,PPG_1,89484.0,89484.0,-55.60482005914673,-42.84497516203537,-1.3875525568925478
63860.5156349835,4.057734958907531,PPG_2,PPG_1,89474.0,89474.0,-65.63298969437892,-43.3168443979212,-1.402861860020796
63860.52572885156,4.067828826962796,PPG_2,PPG_1,89469.0,89469.0,-70.66115932961111,-42.91679413789819,-1.3898826483420998
63860.53582271961,4.07792269501806,PPG_2,PPG_1,89468.0,89468.0,-71.6893289648433,-41.88961072748087,-1.3565567584504539
63860.54591658767,4.0880165630733245,PPG_2,PPG_1,89462.0,89462.0,-77.71749860006094,-40.47188078355392,-1.3105599953327514
63860.55601045572,4.098110431128589,PPG_2,PPG_1,89503.0,89503.0,-36.745668235293124,-38.87668742897783,-1.2588056177295437
63860.566104323785,4.108204299191129,PPG_2,PPG_1,89450.0,89450.0,-89.77383787052531,-37.28303728853515,-1.207101308092551
63860.57619819184,4.118298167246394,PPG_2,PPG_1,89474.0,89474.0,-65.8020075057575,-35.83091967421504,-1.1599888730261678
63860.586292059896,4.128392035301658,PPG_2,PPG_1,89477.0,89477.0,-62.83017714098969,-34.62183584115172,-1.1207614144420506
63860.59638592795,4.138485903356923,PPG_2,PPG_1,89429.0,89429.0,-110.85834677622188,-33.72238359991154,-1.091579628550292
63860.60647979601,4.148579771419463,PPG_2,PPG_1,89491.0,89491.0,-48.88651641145407,-33.167498739336594,-1.0735769704285558
63860.61657366407,4.158673639474728,PPG_2,PPG_1,89504.0,89504.0,-35.914686046686256,-32.96070596416745,-1.066867795430417
63860.62666753213,4.168767507529992,PPG_2,PPG_1,89478.0,89478.0,-61.94285568190389,-33.07219221871661,-1.0704848501899247
63860.63676140018,4.178861375585257,PPG_2,PPG_1,89455.0,89455.0,-84.97102531713608,-33.439560811544396,-1.0824037394068502
63860.64685526824,4.188955243647797,PPG_2,PPG_1,89495.0,89495.0,-44.99919495236827,-33.97476954428322,-1.099768026169479
63860.6569491363,4.1990491117030615,PPG_2,PPG_1,89449.0,89449.0,-91.02736458760046,-34.57558281091952,-1.1192607833210253
63860.66704300435,4.209142979758326,PPG_2,PPG_1,89476.0,89476.0,-64.05553422283265,-35.13793829293937,-1.1375058179309037
63860.67713687241,4.21923684781359,PPG_2,PPG_1,89475.0,89475.0,-65.08370385806484,-35.56692700030669,-1.15142390722391
63860.68723074047,4.229330715876131,PPG_2,PPG_1,89448.0,89448.0,-92.11187349329703,-35.78512825506864,-1.1585032183933355
63860.697324608525,4.239424583931395,PPG_2,PPG_1,89484.0,89484.0,-56.140043128529214,-35.73750223996617,-1.1569580422162415
63860.70741847658,4.24951845198666,PPG_2,PPG_1,89489.0,89489.0,-51.16821276374685,-35.39250004728395,-1.145764807425745
63860.71751234464,4.259612320041924,PPG_2,PPG_1,89466.0,89466.0,-74.19638239897904,-34.740396385601024,-1.1246079871278438
63860.72760621269,4.269706188097189,PPG_2,PPG_1,89457.0,89457.0,-83.22455203421123,-33.79121763594253,-1.09381287675339
63860.737700080754,4.279800056159729,PPG_2,PPG_1,89471.0,89471.0,-69.25272166944342,-32.572961284309535,-1.0542878254114634
63860.74779394881,4.289893924214994,PPG_2,PPG_1,89485.0,89485.0,-55.280891304675606,-31.12773514030739,-1.007398976881505
63860.757887816864,4.299987792270258,PPG_2,PPG_1,89503.0,89503.0,-37.309060939907795,-29.504143534956363,-0.9547232477758851
63860.76798168492,4.3100816603255225,PPG_2,PPG_1,89464.0,89464.0,-76.33723057513998,-27.748163652094764,-0.8977523196682979
63860.77807555298,4.320175528388063,PPG_2,PPG_1,89494.0,89494.0,-46.36540021035762,-25.89636755483902,-0.8376727348414239
63860.78816942104,4.330269396443327,PPG_2,PPG_1,89486.0,89486.0,-54.39356984558981,-23.9729345520305,-0.7752689656455091
63860.79826328909,4.340363264498592,PPG_2,PPG_1,89499.0,89499.0,-41.421739480822,-21.989591054091754,-0.710921463184614
63860.80835715715,4.350457132553856,PPG_2,PPG_1,89487.0,89487.0,-53.44990911605419,-19.948101196514127,-0.6446874629870215
63860.81845102521,4.360551000616397,PPG_2,PPG_1,89466.0,89466.0,-74.47807875128638,-17.845568157829643,-0.5764729807142985
63860.828544893266,4.370644868671661,PPG_2,PPG_1,89485.0,89485.0,-55.506248386518564,-15.681011795982764,-0.5062462166840419
63860.83863876132,4.380738736726926,PPG_2,PPG_1,89531.0,89531.0,-9.534418021750753,-13.459718234350467,-0.43417867363259666
63860.848732629376,4.39083260478219,PPG_2,PPG_1,89512.0,89512.0,-28.56258765698294,-11.193978574960962,-0.36066912349171815
63860.85882649744,4.400926472844731,PPG_2,PPG_1,89457.0,89457.0,-83.59075729220058,-8.903540972041034,-0.2863582744413191
63860.868920365494,4.411020340899995,PPG_2,PPG_1,89496.0,89496.0,-44.61892692743277,-6.6187614487055795,-0.21223099585683491
63860.87901423355,4.4211142089552595,PPG_2,PPG_1,89518.0,89518.0,-22.647096562664956,-4.383463002564674,-0.13970907899605264
63860.889108101605,4.431208077010524,PPG_2,PPG_1,89503.0,89503.0,-37.675266197897145,-2.252551645092995,-0.07057389189338326
63860.89920196966,4.4413019450657885,PPG_2,PPG_1,89529.0,89529.0,-11.703435833129333,-0.2845021026951485,-0.0067225858013106685
63860.90929583772,4.451395813128329,PPG_2,PPG_1,89510.0,89510.0,-30.731605468361522,1.4670226342475232,0.05010379976320235
63860.91938970578,4.461489681183593,PPG_2,PPG_1,89501.0,89501.0,-39.75977510359371,2.959033853713379,0.09851054106446495
63860.92948357383,4.471583549238858,PPG_2,PPG_1,89504.0,89504.0,-36.7879447388259,4.162279980982685,0.1375486013984371
63860.93957744189,4.481677417294122,PPG_2,PPG_1,89531.0,89531.0,-9.816114374043536,5.063713434494043,0.16679466564723658
63860.94967130995,4.491771285356663,PPG_2,PPG_1,89520.0,89520.0,-20.844284009275725,5.670268994058572,0.18647372547843155
63860.959765178006,4.501865153411927,PPG_2,PPG_1,89525.0,89525.0,-15.872453644507914,6.012888673386007,0.19758966211854756
63860.96985904606,4.511959021467192,PPG_2,PPG_1,89532.0,89532.0,-8.900623279740103,6.147741187382804,0.20196481069229946
63860.97995291412,4.522052889522456,PPG_2,PPG_1,89529.0,89529.0,-11.928792914972291,6.152235563503951,0.2021106260181955
63860.99004678218,4.5321467575849965,PPG_2,PPG_1,89488.0,89488.0,-52.95696255020448,6.114997307801885,0.20090246981483562
63861.000140650234,4.542240625640261,PPG_2,PPG_1,89518.0,89518.0,-22.98513218543667,6.121236715773725,0.20110490087140237
63861.01023451829,4.5523344936955255,PPG_2,PPG_1,89497.0,89497.0,-44.01330182066886,6.237835246836879,0.2048878180878707
63861.020328386345,4.56242836175079,PPG_2,PPG_1,89495.0,89495.0,-46.041471455886494,6.503388952722004,0.2135034299376092
63861.0304222544,4.572522229806054,PPG_2,PPG_1,89527.0,89527.0,-14.069641091118683,6.926652394629944,0.22723576898935888
63861.04051612246,4.582616097868595,PPG_2,PPG_1,89540.0,89540.0,-1.0978107263508718,7.493972562063971,0.2456418776175497
63861.05060999052,4.592709965923859,PPG_2,PPG_1,89518.0,89518.0,-23.12598036158306,8.182670179870431,0.26798595049381674
63861.06070385857,4.602803833979124,PPG_2,PPG_1,89544.0,89544.0,2.8458500031847507,8.974587087906752,0.2936788651309692
63861.07079772663,4.612897702034388,PPG_2,PPG_1,89527.0,89527.0,-14.182319632047438,9.864862351547727,0.3225629135963757
63861.08089159469,4.622991570096929,PPG_2,PPG_1,89529.0,89529.0,-12.210489267279627,10.863822038949422,0.3549731143559623
63861.090985462746,4.633085438152193,PPG_2,PPG_1,89506.0,89506.0,-35.238658902497264,11.992094758173886,0.39157874099215034
63861.1010793308,4.643179306207458,PPG_2,PPG_1,89512.0,89512.0,-29.266828537729452,13.271315876015219,0.4330817303199558
63861.11117319886,4.653273174262722,PPG_2,PPG_1,89534.0,89534.0,-7.294998172961641,14.714831663331122,0.4799150881186358
63861.12126706692,4.6633670423252624,PPG_2,PPG_1,89519.0,89519.0,-22.32316780819383,16.322277375035267,0.532066980615894
63861.131360934975,4.673460910380527,PPG_2,PPG_1,89541.0,89541.0,-0.3513374434260186,18.078848738711226,0.5890570986989935
63861.14145480303,4.683554778435791,PPG_2,PPG_1,89540.0,89540.0,-1.3795070786582073,19.957549509669967,0.6500095774845349
63861.151548671085,4.693648646491056,PPG_2,PPG_1,89521.0,89521.0,-20.407676713890396,21.922200681329514,0.7137506269974153
63861.16164253915,4.703742514553596,PPG_2,PPG_1,89541.0,89541.0,-0.4358463491225848,23.929960425030256,0.778890288978781
63861.1717364072,4.713836382608861,PPG_2,PPG_1,89528.0,89528.0,-13.464015984340222,25.933793497652122,0.8439025542297399
63861.18183027526,4.723930250664125,PPG_2,PPG_1,89551.0,89551.0,9.50781438042759,27.88623926540099,0.9072476121965293
63861.19192414331,4.73402411871939,PPG_2,PPG_1,89532.0,89532.0,-9.520355254804599,29.745002697567127,0.9675532449070695
63861.20201801137,4.744117986774654,PPG_2,PPG_1,89551.0,89551.0,9.451475109963212,31.47972474931534,1.0238344849493752
63861.21211187943,4.7542118548371946,PPG_2,PPG_1,89546.0,89546.0,4.423305474731023,33.07905106020669,1.0757229519914235
63861.22220574749,4.764305722892459,PPG_2,PPG_1,89576.0,89576.0,34.395135839498835,34.55701747396281,1.1236740242817915
63861.23229961554,4.7743995909477235,PPG_2,PPG_1,89557.0,89557.0,15.366966204266646,35.956720240966966,1.169085914525679
63861.2423934836,4.784493459002988,PPG_2,PPG_1,89553.0,89553.0,11.338796569034457,37.34824503225848,1.2142324789130812
63861.25248735166,4.794587327065528,PPG_2,PPG_1,89552.0,89552.0,10.31062693381682,38.819097766969605,1.2619527553376146
63861.262581219715,4.804681195120793,PPG_2,PPG_1,89567.0,89567.0,25.28245729858463,40.45841719637029,1.315138757221395
63861.27267508777,4.814775063176057,PPG_2,PPG_1,89535.0,89535.0,-6.745712336647557,42.337964027383364,1.3761186855392462
63861.282768955825,4.824868931231322,PPG_2,PPG_1,89556.0,89556.0,14.226118028120254,44.492790727485584,1.446029780884926
63861.29286282389,4.834962799293862,PPG_2,PPG_1,89562.0,89562.0,20.197948392888065,46.904589116621935,1.5242780535323135
63861.30295669194,4.845056667349127,PPG_2,PPG_1,89545.0,89545.0,3.1697787576558767,49.49058764561066,1.6081780672621149
63861.31305056,4.855150535404391,PPG_2,PPG_1,89541.0,89541.0,-0.858390877576312,52.099825428739635,1.692832054251986
63861.32314442805,4.865244403459656,PPG_2,PPG_1,89568.0,89568.0,26.11343948720605,54.51845301939647,1.7713018931898832
63861.33323829611,4.875338271522196,PPG_2,PPG_1,89596.0,89596.0,54.08526985197386,56.4856116244134,1.835124293751789
63861.34333216417,4.8854321395774605,PPG_2,PPG_1,89550.0,89550.0,8.057100216741674,57.71846149233892,1.875122816444756
63861.35342603223,4.895526007632725,PPG_2,PPG_1,89598.0,89598.0,56.028930581509485,57.94144433769266,1.8823572613127524
63861.36351990028,4.905619875687989,PPG_2,PPG_1,89578.0,89578.0,36.000760946277296,56.91503410699743,1.8490564564273706
63861.37361376834,4.915713743743254,PPG_2,PPG_1,89566.0,89566.0,23.972591311045107,54.46110193132874,1.7694411972063542
63861.3837076364,4.925807611805794,PPG_2,PPG_1,89565.0,89565.0,22.94442167581292,50.48298782820938,1.6403754517587141
63861.393801504455,4.935901479861059,PPG_2,PPG_1,89583.0,89583.0,40.91625204058073,44.97959475855587,1.461823627800412
63861.40389537251,4.945995347916323,PPG_2,PPG_1,89567.0,89567.0,24.888082405363093,38.05341202433174,1.2371108833876132
63861.413989240566,4.956089215971588,PPG_2,PPG_1,89565.0,89565.0,22.859912770130904,29.91074019508502,0.9729304244226091
63861.42408310863,4.966183084034128,PPG_2,PPG_1,89561.0,89561.0,18.831743134898716,20.851061593140457,0.6789986411791045
63861.43417697668,4.976276952089393,PPG_2,PPG_1,89514.0,89514.0,-28.196426500333473,11.243726677704473,0.36729872245289674
63861.44427084474,4.986370820144657,PPG_2,PPG_1,89516.0,89516.0,-26.224596135565662,1.493154036777285,0.050951605748568995
63861.454364712794,4.9964646881999215,PPG_2,PPG_1,89477.0,89477.0,-65.25276577079785,-8.002560059789694,-0.25712689241971476
63861.46445858086,5.006558556262462,PPG_2,PPG_1,89471.0,89471.0,-71.28093540603004,-16.891867781274644,-0.5455311708910843
63861.47455244891,5.016652424317726,PPG_2,PPG_1,89479.0,89479.0,-63.30910504126223,-24.900637964195273,-0.8053673311879851
63861.48464631697,5.026746292372991,PPG_2,PPG_1,89485.0,89485.0,-57.337274676479865,-31.847890008334502,-1.0307636472932418
63861.49474018502,5.036840160428255,PPG_2,PPG_1,89481.0,89481.0,-61.365444311712054,-37.64537467130541,-1.2188569649687881
63861.50483405308,5.04693402848352,PPG_2,PPG_1,89484.0,89484.0,-58.39361394694424,-42.28473195609163,-1.3693760528675867
63861.51492792114,5.05702789654606,PPG_2,PPG_1,89475.0,89475.0,-67.42178358217643,-45.81784734695278,-1.484004281182219
63861.525021789195,5.067121764601325,PPG_2,PPG_1,89488.0,89488.0,-54.44995321740862,-48.3352127992403,-1.565677566623895
63861.53511565725,5.077215632656589,PPG_2,PPG_1,89479.0,89479.0,-63.47812285264081,-49.945833624243946,-1.6179324723465804
63861.545209525306,5.087309500711854,PPG_2,PPG_1,89470.0,89470.0,-72.506292487873,-50.76148927047919,-1.6443955654809328
63861.55530339337,5.097403368774394,PPG_2,PPG_1,89470.0,89470.0,-72.53446212310519,-50.88705998921804,-1.6484695759291794
63861.565397261424,5.1074972368296585,PPG_2,PPG_1,89481.0,89481.0,-61.56263175832282,-50.416795616927665,-1.6332123409193715
63861.57549112948,5.117591104884923,PPG_2,PPG_1,89451.0,89451.0,-91.59080139355501,-49.435173578845955,-1.6013646420327299
63861.585584997534,5.127684972940187,PPG_2,PPG_1,89474.0,89474.0,-68.6189710287872,-48.02071641593491,-1.5554740608672177
63861.5956788656,5.137778841002728,PPG_2,PPG_1,89454.0,89454.0,-88.64714066401939,-46.25058038096625,-1.4980438512314973
63861.60577273365,5.147872709057992,PPG_2,PPG_1,89485.0,89485.0,-57.67531029925158,-44.20328950804829,-1.4316216431671005
63861.61586660171,5.157966577113257,PPG_2,PPG_1,89501.0,89501.0,-41.70347993448377,-41.95832378844506,-1.358786081744217
63861.62596046976,5.168060445168521,PPG_2,PPG_1,89449.0,89449.0,-93.73164956971596,-39.59396195378951,-1.282076838422492
63861.636054337825,5.178154313231062,PPG_2,PPG_1,89490.0,89490.0,-52.75981920493359,-37.18571452336876,-1.2039437729114015
63861.64614820588,5.188248181286326,PPG_2,PPG_1,89490.0,89490.0,-52.78798884016578,-34.805399644119106,-1.1267169497668448
63861.656242073936,5.198342049341591,PPG_2,PPG_1,89492.0,89492.0,-50.81615847539797,-32.519305863242614,-1.052547031472979
63861.66633594199,5.208435917396855,PPG_2,PPG_1,89500.0,89500.0,-42.84432811063016,-30.385712815059023,-0.9833248397239317
63861.676429810046,5.2185297854521195,PPG_2,PPG_1,89474.0,89474.0,-68.87249774586235,-28.453716689325905,-0.9206432489736385
63861.68652367811,5.22862365351466,PPG_2,PPG_1,89487.0,89487.0,-55.900667381094536,-26.763878461188646,-0.8658182175776221
63861.69661754616,5.238717521569924,PPG_2,PPG_1,89480.0,89480.0,-62.928837016326725,-25.34856318276489,-0.8198997957530797
63861.70671141422,5.248811389625189,PPG_2,PPG_1,89535.0,89535.0,-7.957006651558913,-24.229165156546266,-0.7835820992362211
63861.716805282274,5.258905257680453,PPG_2,PPG_1,89481.0,89481.0,-61.98517628677655,-23.410125222006613,-0.7570092064124944
63861.72689915034,5.268999125742994,PPG_2,PPG_1,89530.0,89530.0,-13.013345922008739,-22.87321999318646,-0.7395898786113959
63861.73699301839,5.279092993798258,PPG_2,PPG_1,89507.0,89507.0,-36.04151555724093,-22.576213283393905,-0.7299538069933725
63861.74708688645,5.289186861853523,PPG_2,PPG_1,89470.0,89470.0,-73.06968519247312,-22.457842089610057,-0.7261133775915966
63861.7571807545,5.299280729908787,PPG_2,PPG_1,89496.0,89496.0,-47.097854827705305,-22.448054587599902,-0.725795832340187
63861.767274622565,5.309374597971328,PPG_2,PPG_1,89502.0,89502.0,-41.126024462937494,-22.479267900320743,-0.7268085155789725
63861.77736849062,5.319468466026592,PPG_2,PPG_1,89500.0,89500.0,-43.15419409816968,-22.494158373591194,-0.7272916213881327
63861.78746235867,5.3295623340818565,PPG_2,PPG_1,89485.0,89485.0,-58.18236373340187,-22.448929106298344,-0.7258242051833977
63861.79755622673,5.339656202137121,PPG_2,PPG_1,89522.0,89522.0,-21.210533368619508,-22.31342090168357,-0.7214277834143079
63861.807650094794,5.349750070199661,PPG_2,PPG_1,89490.0,89490.0,-53.2387030038517,-22.069176959409027,-0.7135035445253289
63861.81774396285,5.359843938254926,PPG_2,PPG_1,89512.0,89512.0,-31.266872639083886,-21.70649724126389,-0.7017367809364119
63861.827837830904,5.36993780631019,PPG_2,PPG_1,89490.0,89490.0,-53.295042274316074,-21.221710070096677,-0.6860083689280467
63861.83793169896,5.380031674365455,PPG_2,PPG_1,89510.0,89510.0,-33.32321190954826,-20.614943433072884,-0.666322460909766
63861.848025567015,5.390125542420719,PPG_2,PPG_1,89501.0,89501.0,-42.35138154478045,-19.8877579650793,-0.6427296900458813
63861.85811943508,5.40021941048326,PPG_2,PPG_1,89510.0,89510.0,-33.37955118001264,-19.040309692874185,-0.6152351184611442
63861.86821330313,5.410313278538524,PPG_2,PPG_1,89503.0,89503.0,-40.40772081524483,-18.06847932833298,-0.5837051001668451
63861.87830717119,5.420407146593789,PPG_2,PPG_1,89525.0,89525.0,-18.435890450462466,-16.961720121850636,-0.547797456918585
63861.88840103924,5.430501014649053,PPG_2,PPG_1,89507.0,89507.0,-36.464060085694655,-15.702508488357049,-0.5069436543527529
63861.898494907306,5.4405948827115935,PPG_2,PPG_1,89521.0,89521.0,-22.492229720926844,-14.268518754460956,-0.4604193593798067
63861.90858877536,5.450688750766858,PPG_2,PPG_1,89513.0,89513.0,-30.520399356159032,-12.638314903279198,-0.4075291028837943
63861.918682643416,5.4607826188221225,PPG_2,PPG_1,89497.0,89497.0,-46.54856899139122,-10.800154553775327,-0.34789191561081434
63861.92877651147,5.470876486877387,PPG_2,PPG_1,89502.0,89502.0,-41.57673862662341,-8.761816335097953,-0.28176016703635254
63861.938870379534,5.480970354939927,PPG_2,PPG_1,89524.0,89524.0,-19.6049082618556,-6.5578797315646415,-0.21025575231096325
63861.94896424759,5.491064222995192,PPG_2,PPG_1,89513.0,89513.0,-30.633077897073235,-4.2513100318911965,-0.1354215142779572
63861.959058115644,5.501158091050456,PPG_2,PPG_1,89508.0,89508.0,-35.661247532305424,-1.9287203146627723,-0.060067523554550376
63861.9691519837,5.511251959105721,PPG_2,PPG_1,89545.0,89545.0,1.3105828324623872,0.30957872524002067,0.01255174442805109
63861.97924585176,5.521345827168261,PPG_2,PPG_1,89528.0,89528.0,-15.717586802769802,2.363388093284143,0.07918543823942437
63861.98933971982,5.531439695223526,PPG_2,PPG_1,89548.0,89548.0,4.25424356199801,4.14792580254788,0.13708289511351082
63861.99943358787,5.54153356327879,PPG_2,PPG_1,89529.0,89529.0,-14.773926073234179,5.607055415619639,0.18442282713510944
63862.00952745593,5.551627431334055,PPG_2,PPG_1,89558.0,89558.0,14.197904291533632,6.721559618943294,0.22058174869387093
63862.01962132398,5.561721299389319,PPG_2,PPG_1,89527.0,89527.0,-16.830265343698557,7.511189167160422,0.2462004523374424
63862.029715192046,5.5718151674518595,PPG_2,PPG_1,89531.0,89531.0,-12.858434978916193,8.030361846201814,0.2630444661338247
63862.0398090601,5.581909035507124,PPG_2,PPG_1,89548.0,89548.0,4.113395385851618,8.35871874673138,0.273697661854504
63862.04990292816,5.592002903562388,PPG_2,PPG_1,89525.0,89525.0,-18.91477424938057,8.58884417517241,0.2811638403497134
63862.05999679621,5.602096771617653,PPG_2,PPG_1,89530.0,89530.0,-13.94294388461276,8.813170613358487,0.2884418766798924
63862.070090664274,5.612190639680193,PPG_2,PPG_1,89523.0,89523.0,-20.97111351984495,9.111766041782754,0.2981294926099172
63862.08018453233,5.622284507735458,PPG_2,PPG_1,89524.0,89524.0,-19.999283155077137,9.543464781746046,0.3121355060720447
63862.090278400385,5.632378375790722,PPG_2,PPG_1,89552.0,89552.0,7.972547209690674,10.142892195157811,0.3315833006672464
63862.10037226844,5.642472243845987,PPG_2,PPG_1,89539.0,89539.0,-5.0556224255415145,10.923933680626558,0.3569233736099785
63862.1104661365,5.652566111908527,PPG_2,PPG_1,89552.0,89552.0,7.916207939240849,11.887329630181753,0.3881797461441596
63862.12056000456,5.662659979963792,PPG_2,PPG_1,89545.0,89545.0,0.8880383040086599,13.028736897852742,0.42521150944772973
63862.13065387261,5.672753848019056,PPG_2,PPG_1,89546.0,89546.0,1.8598686687764712,14.344570563550759,0.46790235454321033
63862.14074774067,5.6828477160743205,PPG_2,PPG_1,89562.0,89562.0,17.831699033544282,15.834603778987537,0.5162449215754867
63862.15084160873,5.692941584136861,PPG_2,PPG_1,89544.0,89544.0,-0.1964706016879063,17.50106176154912,0.5703114053919837
63862.160935476786,5.703035452192125,PPG_2,PPG_1,89555.0,89555.0,10.775359763079905,19.344029284389553,0.6301045563688937
63862.17102934484,5.71312932024739,PPG_2,PPG_1,89523.0,89523.0,-21.252809872152284,21.35377215241046,0.6953085587417271
63862.1811232129,5.723223188302654,PPG_2,PPG_1,89554.0,89554.0,9.71902049263008,23.502502814585895,0.765021874521788
63862.19121708095,5.733317056357919,PPG_2,PPG_1,89532.0,89532.0,-12.30914914260211,25.7395972072878,0.8376020589876895
63862.201310949014,5.743410924420459,PPG_2,PPG_1,89571.0,89571.0,26.662681222165702,27.993519849140643,0.9107282183715907
63862.21140481707,5.753504792475724,PPG_2,PPG_1,89575.0,89575.0,30.634511586933513,30.180848069819355,0.9816937915106796
63862.221498685125,5.763598660530988,PPG_2,PPG_1,89557.0,89557.0,12.606341951701324,32.2194444012068,1.0478339142816757
63862.23159255318,5.773692528586253,PPG_2,PPG_1,89552.0,89552.0,7.578172316469136,34.04157559076511,1.106951052248968
63862.24168642124,5.783786396648793,PPG_2,PPG_1,89592.0,89592.0,47.55000268123695,35.60491358550498,1.1576719160672038
63862.2517802893,5.7938802647040575,PPG_2,PPG_1,89592.0,89592.0,47.52183304600476,36.90138051554709,1.1997344277088104
63862.26187415735,5.803974132759322,PPG_2,PPG_1,89572.0,89572.0,27.49366341078712,37.962058690672066,1.2341470201593896
63862.27196802541,5.814068000814586,PPG_2,PPG_1,89574.0,89574.0,29.465493775554933,38.85442132602094,1.2630987912135714
63862.28206189347,5.824161868877127,PPG_2,PPG_1,89548.0,89548.0,3.437324140322744,39.67074538885099,1.2895835704242509
63862.29215576153,5.834255736932391,PPG_2,PPG_1,89562.0,89562.0,17.409154505090555,40.51146146546858,1.3168597229743702
63862.30224962958,5.844349604987656,PPG_2,PPG_1,89590.0,89590.0,45.380984869858366,41.46932481568909,1.3479365961179144
63862.31234349764,5.85444347304292,PPG_2,PPG_1,89569.0,89569.0,24.352815234626178,42.61803394616353,1.3852052607122605
63862.3224373657,5.864537341105461,PPG_2,PPG_1,89585.0,89585.0,40.32464559939399,44.00475819631758,1.4301960765704858
63862.332531233755,5.874631209160725,PPG_2,PPG_1,89596.0,89596.0,51.2964759641618,45.643980788776545,1.4833789366811179
63862.34262510181,5.88472507721599,PPG_2,PPG_1,89571.0,89571.0,26.268306328944163,47.510720939199146,1.543943365660772
63862.352718969865,5.894818945271254,PPG_2,PPG_1,89574.0,89574.0,29.240136693711975,49.53257707131002,1.6095403701997197
63862.36281283792,5.9049128133265185,PPG_2,PPG_1,89587.0,89587.0,42.211967058479786,51.58192677828636,1.6760293749787432
63862.37290670598,5.915006681389059,PPG_2,PPG_1,89559.0,89559.0,14.183797423247597,53.47139164779212,1.7373310836674574
63862.38300057404,5.925100549444323,PPG_2,PPG_1,89563.0,89563.0,18.15562778801541,54.95594402413786,1.785495830615989
63862.39309444209,5.935194417499588,PPG_2,PPG_1,89585.0,89585.0,40.12745815278322,55.74475986362451,1.8110881343320686
63862.40318831015,5.945288285554852,PPG_2,PPG_1,89591.0,89591.0,46.09928851755103,55.52500459894827,1.803958404938625
63862.41328217821,5.955382153617393,PPG_2,PPG_1,89585.0,89585.0,40.07111888231884,53.99642280108397,1.7543651695248017
63862.42337604627,5.965476021672657,PPG_2,PPG_1,89615.0,89615.0,70.0429492471012,50.91170395466375,1.6542846974494976
63862.43346991432,5.975569889727922,PPG_2,PPG_1,89580.0,89580.0,35.01477961186902,46.116046212783786,1.49869460492748
63862.44356378238,5.985663757783186,PPG_2,PPG_1,89614.0,89614.0,68.98660997663683,39.57967787709443,1.2866289803883075
63862.45365765044,5.995757625845727,PPG_2,PPG_1,89605.0,89605.0,59.95844034140464,31.41781891887638,1.021826015120193
63862.463751518495,6.005851493900991,PPG_2,PPG_1,89576.0,89576.0,30.93027070617245,21.89305322518836,0.7128049683116047
63862.47384538655,6.0159453619562555,PPG_2,PPG_1,89527.0,89527.0,-18.09789892905974,11.396585131842425,0.3722580548953269
63862.483939254606,6.02603923001152,PPG_2,PPG_1,89539.0,89539.0,-6.126068564291927,0.40981512500693323,0.015803809432109135
63862.49403312267,6.03613309807406,PPG_2,PPG_1,89508.0,89508.0,-37.154238199509564,-10.546104355523026,-0.3396495230175896
63862.50412699072,6.046226966129325,PPG_2,PPG_1,89489.0,89489.0,-56.18240783474175,-20.96303886690234,-0.6776160526694618
63862.51422085878,6.056320834184589,PPG_2,PPG_1,89493.0,89493.0,-52.21057746997394,-30.393265218670006,-0.9835698695487949
63862.524314726834,6.066414702239854,PPG_2,PPG_1,89478.0,89478.0,-67.23874710520613,-38.485962884479754,-1.2461289691234139
63862.53440859489,6.076508570295118,PPG_2,PPG_1,89477.0,89477.0,-68.26691674043832,-45.00921458018876,-1.4577690380166322
63862.54450246295,6.086602438357659,PPG_2,PPG_1,89501.0,89501.0,-44.29508637567051,-49.85650847470821,-1.615034411427963
63862.55459633101,6.096696306412923,PPG_2,PPG_1,89479.0,89479.0,-66.3232560109027,-53.03952180542306,-1.7183039450937652
63862.56469019906,6.106790174468188,PPG_2,PPG_1,89471.0,89471.0,-74.35142564613489,-54.67107139766535,-1.771237862748974
63862.57478406712,6.116884042523452,PPG_2,PPG_1,89491.0,89491.0,-54.37959528135252,-54.942027674444105,-1.7800287553527696
63862.58487793518,6.1269779105859925,PPG_2,PPG_1,89497.0,89497.0,-48.40776491658471,-54.09431361699883,-1.7525255606442958
63862.594971803235,6.137071778641257,PPG_2,PPG_1,89505.0,89505.0,-40.4359345518169,-52.392222707062864,-1.6973030038206292
63862.60506567129,6.147165646696521,PPG_2,PPG_1,89487.0,89487.0,-58.46410418704909,-50.096186242555326,-1.6228105055701993
63862.615159539346,6.157259514751786,PPG_2,PPG_1,89474.0,89474.0,-71.49227382228128,-47.4428362780435,-1.536725345057921
63862.62525340741,6.167353382814326,PPG_2,PPG_1,89516.0,89516.0,-29.520443457513466,-44.631787392824585,-1.4455238082352224
63862.63534727546,6.177447250869591,PPG_2,PPG_1,89505.0,89505.0,-40.548613092745654,-41.81714644345782,-1.354205730653531
63862.64544114352,6.187541118924855,PPG_2,PPG_1,89515.0,89515.0,-30.576782727977843,-39.10339191411891,-1.2661608073024404
63862.655535011574,6.19763498698012,PPG_2,PPG_1,89483.0,89483.0,-62.60495236319548,-36.54768777255295,-1.1832436632425998
63862.66562887963,6.207728855035384,PPG_2,PPG_1,89501.0,89501.0,-44.63312199842767,-34.16931880849152,-1.106079973278197
63862.67572274769,6.217822723097925,PPG_2,PPG_1,89507.0,89507.0,-38.66129163365986,-31.96324725289999,-1.0345062922694017
63862.68581661575,6.227916591153189,PPG_2,PPG_1,89526.0,89526.0,-19.689461268892046,-29.913812964113077,-0.9680145433221241
63862.6959104838,6.2380104592084535,PPG_2,PPG_1,89480.0,89480.0,-65.71763090412423,-28.00713974878038,-0.9061545278768658
63862.70600435186,6.248104327263718,PPG_2,PPG_1,89488.0,89488.0,-57.74580053935642,-26.242206289996716,-0.8488931103763531
63862.71609821992,6.258198195326258,PPG_2,PPG_1,89510.0,89510.0,-35.77397017458861,-24.638072676750944,-0.7968486754445253
63862.726192087976,6.268292063381523,PPG_2,PPG_1,89528.0,89528.0,-17.8021398098208,-23.232963900908842,-0.7512613929060785
63862.73628595603,6.278385931436787,PPG_2,PPG_1,89539.0,89539.0,-6.830309445038438,-22.07453757166389,-0.7136774639752982
63862.746379824086,6.288479799492052,PPG_2,PPG_1,89526.0,89526.0,-19.858479080270627,-21.206426043281752,-0.6855124946863393
63862.75647369215,6.298573667554592,PPG_2,PPG_1,89511.0,89511.0,-34.886648715502815,-20.657679947304292,-0.6677090023523016
63862.76656756021,6.308667535609857,PPG_2,PPG_1,89508.0,89508.0,-37.914818350735004,-20.437990492992665,-0.6605814081072089
63862.77666142826,6.318761403665121,PPG_2,PPG_1,89527.0,89527.0,-18.942987985967193,-20.536720678816714,-0.6637846055774809
63862.786755296314,6.328855271720386,PPG_2,PPG_1,89523.0,89523.0,-22.97115762119938,-20.922358623375004,-0.676296224776207
63862.79684916438,6.338949139782926,PPG_2,PPG_1,89515.0,89515.0,-30.99932725643157,-21.54135452606636,-0.6963788985102886
63862.80694303243,6.3490430078381905,PPG_2,PPG_1,89523.0,89523.0,-23.027496891649207,-22.317568064128906,-0.7215623337561596
63862.81703690049,6.359136875893455,PPG_2,PPG_1,89525.0,89525.0,-21.055666526881396,-23.15343230777053,-0.7486810736671241
63862.82713076854,6.3692307439487195,PPG_2,PPG_1,89530.0,89530.0,-16.083836162113585,-23.933336902246797,-0.773984261372371
63862.8372246366,6.379324612003984,PPG_2,PPG_1,89517.0,89517.0,-29.112005797345773,-24.530182628242006,-0.7933482958233703
63862.84731850466,6.389418480066524,PPG_2,PPG_1,89520.0,89520.0,-26.140175432577962,-24.816147956119295,-0.8026261413697613
63862.85741237272,6.399512348121789,PPG_2,PPG_1,89508.0,89508.0,-38.16834506781015,-24.677317638837987,-0.798121937134746
63862.86750624077,6.409606216177053,PPG_2,PPG_1,89506.0,89506.0,-40.19651470304234,-24.029950686310663,-0.777118794404227
63862.877600108826,6.419700084232318,PPG_2,PPG_1,89482.0,89482.0,-64.22468433827453,-22.834781060856333,-0.7383427677124126
63862.88769397689,6.429793952294858,PPG_2,PPG_1,89522.0,89522.0,-24.252853973492165,-21.104868375735926,-0.6822175625330742
63862.897787844944,6.439887820350123,PPG_2,PPG_1,89545.0,89545.0,-1.2810236087243538,-18.903371760903696,-0.6107923106854771
63862.907881713,6.449981688405387,PPG_2,PPG_1,89524.0,89524.0,-22.309193243956543,-16.331832279154316,-0.527361405599127
63862.917975581055,6.460075556460652,PPG_2,PPG_1,89545.0,89545.0,-1.3373628791887313,-13.514333779907846,-0.43595061780455124
63862.92806944912,6.470169424523192,PPG_2,PPG_1,89528.0,89528.0,-18.36553251442092,-10.58331959730954,-0.34085693255856386
63862.93816331717,6.4802632925784565,PPG_2,PPG_1,89518.0,89518.0,-28.39370214965311,-7.669313618124395,-0.2463150606581322
63862.94825718523,6.490357160633721,PPG_2,PPG_1,89553.0,89553.0,6.5781282151147025,-4.8934147506663574,-0.15625392934598648
63862.95835105328,6.500451028688985,PPG_2,PPG_1,89551.0,89551.0,4.549958579882514,-2.3605637792532423,-0.07407823245562392
63862.968444921346,6.510544896751526,PPG_2,PPG_1,89535.0,89535.0,-11.478211055335123,-0.1534631100960878,-0.0024711629350726576
63862.9785387894,6.52063876480679,PPG_2,PPG_1,89552.0,89552.0,5.493619309432688,1.6710430602546333,0.05672302879650359
63862.988632657456,6.530732632862055,PPG_2,PPG_1,89568.0,89568.0,21.4654496742005,3.081963692775234,0.1024988709376166
63862.99872652551,6.540826500917319,PPG_2,PPG_1,89492.0,89492.0,-54.56271996103169,4.0707963033959125,0.1345805092980195
63863.00882039357,6.550920368972584,PPG_2,PPG_1,89544.0,89544.0,-2.590889596263878,4.646494845324194,0.1532584455112694
63863.01891426163,6.561014237035124,PPG_2,PPG_1,89568.0,89568.0,21.380940768503933,4.832828654757391,0.15930385079457593
63863.02900812968,6.571108105090389,PPG_2,PPG_1,89555.0,89555.0,8.352771133271744,4.671409849954398,0.1540667867408252
63863.03910199774,6.581201973145653,PPG_2,PPG_1,89565.0,89565.0,18.324601498054108,4.227909466913591,0.1396778813299443
63863.049195865795,6.5912958412009175,PPG_2,PPG_1,89550.0,89550.0,3.296431862821919,3.595346899335692,0.11915505136317771
63863.05928973386,6.601389709263458,PPG_2,PPG_1,89536.0,89536.0,-10.73173777241027,2.890831733227568,0.09629779469936985
63863.06938360191,6.611483577318722,PPG_2,PPG_1,89549.0,89549.0,2.2400925923575414,2.246545595769413,0.07539460578696211
63863.07947746997,6.621577445373987,PPG_2,PPG_1,89551.0,89551.0,4.211922957125353,1.7980732328147004,0.06084438969536554
63863.08957133802,6.631671313429251,PPG_2,PPG_1,89553.0,89553.0,6.183753321893164,1.6725490482598686,0.05677188899998002
63863.099665206086,6.641765181491792,PPG_2,PPG_1,89531.0,89531.0,-15.844416313339025,1.9770232293984875,0.06665023490448828
63863.10975907414,6.651859049547056,PPG_2,PPG_1,89566.0,89566.0,19.127414051428786,2.7868593421192234,0.0929245193692707
63863.11985294219,6.661952917602321,PPG_2,PPG_1,89533.0,89533.0,-13.90075558378885,4.134945510698283,0.13666176313984962
63863.12994681025,6.672046785657585,PPG_2,PPG_1,89532.0,89532.0,-14.928925219021039,6.003073052635447,0.19727120458405678
63863.140040678314,6.682140653720126,PPG_2,PPG_1,89534.0,89534.0,-12.957094854253228,8.317519880864051,0.27236100780262684
63863.15013454637,6.69223452177539,PPG_2,PPG_1,89536.0,89536.0,-10.985264489485417,10.952299082525311,0.3578436593650085
63863.160228414425,6.7023283898306545,PPG_2,PPG_1,89596.0,89596.0,48.986565875282395,13.743052628490798,0.44838673516271976
63863.17032228248,6.712422257885919,PPG_2,PPG_1,89565.0,89565.0,17.958396240050206,16.510302969140817,0.5381672740809404
63863.180416150535,6.722516125941183,PPG_2,PPG_1,89567.0,89567.0,19.930226604818017,19.085798397429663,0.6217265257093535
63863.1905100186,6.732609994003724,PPG_2,PPG_1,89580.0,89580.0,32.90205696958583,21.335127302153623,0.6947036461035322
63863.20060388665,6.742703862058988,PPG_2,PPG_1,89571.0,89571.0,23.87388733436819,23.17356614142052,0.7543498686851866
63863.21069775471,6.752797730114253,PPG_2,PPG_1,89563.0,89563.0,15.845717699136003,24.575235231060898,0.7998255542075038
63863.22079162276,6.762891598169517,PPG_2,PPG_1,89601.0,89601.0,53.817548063903814,25.576257886199784,0.8323026857945963
63863.230885490826,6.772985466232058,PPG_2,PPG_1,89572.0,89572.0,24.789378428671625,26.272200233944034,0.8548818063456535
63863.24097935888,6.783079334287322,PPG_2,PPG_1,89587.0,89587.0,39.76120879343944,26.809044553048395,0.872299157994819
63863.25107322694,6.793173202342587,PPG_2,PPG_1,89574.0,89574.0,26.733039158207248,27.366660679640173,0.8903904291817768
63863.26116709499,6.803267070397851,PPG_2,PPG_1,89537.0,89537.0,-10.29513047702494,28.135713767909717,0.9153415511338815
63863.271260963054,6.8133609384603915,PPG_2,PPG_1,89584.0,89584.0,36.67669988774287,29.292104674881507,0.9528594429208854
63863.28135483111,6.823454806515656,PPG_2,PPG_1,89573.0,89573.0,25.648530252525234,30.97468249243944,1.007448917900121
63863.291448699165,6.83354867457092,PPG_2,PPG_1,89571.0,89571.0,23.620360617293045,33.26998317204933,1.081917544380199
63863.30154256722,6.843642542626185,PPG_2,PPG_1,89580.0,89580.0,32.592190982060856,36.204133583666945,1.1771129812918697
63863.311636435275,6.853736410681449,PPG_2,PPG_1,89604.0,89604.0,56.56402134682867,39.740702162287185,1.2918532446665192
63863.32173030334,6.86383027874399,PPG_2,PPG_1,89584.0,89584.0,36.53585171159648,43.783306580957074,1.4230113108558282
63863.33182417139,6.873924146799254,PPG_2,PPG_1,89594.0,89594.0,46.50768207636429,48.181194043273464,1.5656961632771325
63863.34191803945,6.884018014854519,PPG_2,PPG_1,89615.0,89615.0,67.4795124411321,52.73629167819071,1.7134815350884591
63863.352011907504,6.894111882909783,PPG_2,PPG_1,89575.0,89575.0,27.451342805914464,57.21156763939481,1.8586771763004075
63863.362105775566,6.904205750972324,PPG_2,PPG_1,89627.0,89627.0,79.42317317068228,61.34130472650906,1.9926621706557026
63863.37219964362,6.914299619027588,PPG_2,PPG_1,89600.0,89600.0,52.39500353545009,64.84408230391871,2.1063061203883557
63863.38229351168,6.9243934870828525,PPG_2,PPG_1,89609.0,89609.0,61.3668339002179,67.43888033281051,2.1904916246760235
63863.39238737973,6.934487355138117,PPG_2,PPG_1,89650.0,89650.0,102.33866426498571,68.86361648209653,2.236715696788387
63863.402481247795,6.944581223200657,PPG_2,PPG_1,89620.0,89620.0,72.31049462975352,68.89400145824199,2.237701505514574
63863.41257511585,6.954675091255922,PPG_2,PPG_1,89588.0,89588.0,40.28232499452133,67.35937267507718,2.187912081996214
63863.422668983905,6.964768959311186,PPG_2,PPG_1,89601.0,89601.0,53.25415535928914,64.15372454685381,2.083908186032658
63863.43276285196,6.974862827366451,PPG_2,PPG_1,89628.0,89628.0,80.2259857240715,59.24445101465255,1.9246319481934557
63863.44285672002,6.984956695428991,PPG_2,PPG_1,89615.0,89615.0,67.19781608883932,52.68191651343806,1.711717389819942
63863.45295058808,6.995050563484256,PPG_2,PPG_1,89612.0,89612.0,64.16964645360713,44.60791532631322,1.4497648779137917
63863.46304445613,7.00514443153952,PPG_2,PPG_1,89601.0,89601.0,53.14147681837494,35.25727359683079,1.1463931007485428
63863.47313832419,7.015238299594785,PPG_2,PPG_1,89566.0,89566.0,18.11330718314275,24.948405379112884,0.8119326688072005
63863.48323219224,7.025332167650049,PPG_2,PPG_1,89539.0,89539.0,-8.914862452089437,14.06301017025773,0.45876742248573105
63863.49332606031,7.0354260357125895,PPG_2,PPG_1,89582.0,89582.0,34.056967912678374,3.0191718459005115,0.10046165523317882
63863.50341992836,7.045519903767854,PPG_2,PPG_1,89543.0,89543.0,-4.971201722553815,-7.757001798516285,-0.24916001182741918
63863.51351379642,7.055613771823118,PPG_2,PPG_1,89515.0,89515.0,-32.99937135777145,-17.85923832840288,-0.5769164950805779
63863.52360766447,7.065707639878383,PPG_2,PPG_1,89517.0,89517.0,-31.02754099300364,-26.928682799649923,-0.8711651217249493
63863.533701532535,7.075801507940923,PPG_2,PPG_1,89516.0,89516.0,-32.05571062823583,-34.67930572299206,-1.122625964565109
63863.54379540059,7.085895375996188,PPG_2,PPG_1,89494.0,89494.0,-54.08388026346802,-40.917447652501565,-1.3250159457144675
63863.553889268645,7.095989244051452,PPG_2,PPG_1,89483.0,89483.0,-65.1120498987002,-45.5531323186306,-1.4754158793475896
63863.5639831367,7.106083112106717,PPG_2,PPG_1,89502.0,89502.0,-46.140219533932395,-48.6018206509884,-1.574327379132058
63863.57407700476,7.116176980169257,PPG_2,PPG_1,89519.0,89519.0,-29.168389169164584,-50.17552397362301,-1.6253845351573208
63863.58417087282,7.126270848224522,PPG_2,PPG_1,89501.0,89501.0,-47.19655880439677,-50.464662604140976,-1.6347653351842104
63863.594264740874,7.136364716279786,PPG_2,PPG_1,89491.0,89491.0,-57.22472843961441,-49.715196788712355,-1.6104497017839594
63863.60435860893,7.1464585843350505,PPG_2,PPG_1,89503.0,89503.0,-45.2528980748466,-48.20495038771006,-1.5614513391170532
63863.61445247699,7.156552452397591,PPG_2,PPG_1,89517.0,89517.0,-31.281067710078787,-46.21982547437173,-1.4970460404993513
63863.62454634505,7.166646320452855,PPG_2,PPG_1,89510.0,89510.0,-38.309237345310976,-44.0297795896553,-1.4259922955970066
63863.6346402131,7.17674018850812,PPG_2,PPG_1,89533.0,89533.0,-15.337406980543165,-41.866505435772005,-1.3558071314611597
63863.64473408116,7.186834056563384,PPG_2,PPG_1,89518.0,89518.0,-30.365576615775353,-39.90625216455464,-1.2922087672218185
63863.65482794921,7.196927924618649,PPG_2,PPG_1,89532.0,89532.0,-16.393746251007542,-38.26085170672172,-1.2388254727397494
63863.664921817275,7.207021792681189,PPG_2,PPG_1,89508.0,89508.0,-40.42191588622518,-36.97857714663456,-1.197223417676416
63863.67501568533,7.217115660736454,PPG_2,PPG_1,89499.0,89499.0,-49.45008552145737,-36.05417791994759,-1.167232252971004
63863.685109553386,7.227209528791718,PPG_2,PPG_1,89531.0,89531.0,-17.478255156689556,-35.44474401335708,-1.1474598081852965
63863.69520342144,7.237303396846983,PPG_2,PPG_1,89481.0,89481.0,-67.50642479192175,-35.086773246828706,-1.1358458215994869
63863.7052972895,7.247397264909523,PPG_2,PPG_1,89524.0,89524.0,-24.534594427153934,-34.91069767641148,-1.1301332341366994
63863.71539115756,7.2574911329647875,PPG_2,PPG_1,89507.0,89507.0,-41.56276406238612,-34.85047339987027,-1.1281793205624906
63863.725485025614,7.267585001020052,PPG_2,PPG_1,89548.0,89548.0,-0.5909336976183113,-34.847333784085535,-1.1280774590167502
63863.73557889367,7.2776788690753165,PPG_2,PPG_1,89502.0,89502.0,-46.6191033328505,-34.8494692088092,-1.1281467406352916
63863.74567276173,7.287772737137857,PPG_2,PPG_1,89537.0,89537.0,-11.647272968068137,-34.81121784289055,-1.126905715132074
63863.75576662979,7.297866605193121,PPG_2,PPG_1,89511.0,89511.0,-37.675442603300326,-34.69413632678346,-1.1231071279717277
63863.76586049784,7.307960473248386,PPG_2,PPG_1,89508.0,89508.0,-40.703612238532514,-34.469868539846644,-1.1158309945199005
63863.7759543659,7.31805434130365,PPG_2,PPG_1,89500.0,89500.0,-48.7317818737647,-34.123015418728066,-1.1045777082949262
63863.78604823396,7.328148209366191,PPG_2,PPG_1,89531.0,89531.0,-17.759951508996892,-33.65114138363935,-1.0892682494615669
63863.796142102015,7.338242077421455,PPG_2,PPG_1,89538.0,89538.0,-10.78812114422908,-33.059846975703266,-1.0700843217106133
63863.80623597007,7.34833594547672,PPG_2,PPG_1,89529.0,89529.0,-19.81629077946127,-32.354440092105506,-1.0471981342068282
63863.816329838126,7.358429813531984,PPG_2,PPG_1,89531.0,89531.0,-17.844460414693458,-31.53283010006336,-1.02054185855928
63863.82642370618,7.368523681587249,PPG_2,PPG_1,89517.0,89517.0,-31.872630049911095,-30.583319570513087,-0.9897359839337395
63863.83651757424,7.378617549649789,PPG_2,PPG_1,89526.0,89526.0,-22.900799685143284,-29.48745840631198,-0.9541819162528179
63863.8466114423,7.388711417705053,PPG_2,PPG_1,89518.0,89518.0,-30.928969320375472,-28.225618118294772,-0.9132428297441876
63863.856705310354,7.398805285760318,PPG_2,PPG_1,89536.0,89536.0,-12.957138955607661,-26.78266292877299,-0.8664276599537745
63863.86679917841,7.408899153815582,PPG_2,PPG_1,89530.0,89530.0,-18.98530859083985,-25.15230193095054,-0.8135323049995983
63863.87689304647,7.418993021878123,PPG_2,PPG_1,89524.0,89524.0,-25.01347822607204,-23.340150112380993,-0.7547389372717652
63863.88698691453,7.429086889933387,PPG_2,PPG_1,89541.0,89541.0,-8.041647861304227,-21.365934625614045,-0.6906875835727719
63863.89708078258,7.439180757988652,PPG_2,PPG_1,89523.0,89523.0,-26.069817496521864,-19.264637756346847,-0.6225132075220441
63863.90717465064,7.449274626043916,PPG_2,PPG_1,89539.0,89539.0,-10.097987131754053,-17.085859611668795,-0.5518250326435514
63863.9172685187,7.459368494106457,PPG_2,PPG_1,89531.0,89531.0,-18.12615676698624,-14.890659158855188,-0.48060405317812543
63863.92736238675,7.469462362161721,PPG_2,PPG_1,89567.0,89567.0,17.84567359778157,-12.745471695624516,-0.4110056927767241
63863.93745625481,7.479556230216986,PPG_2,PPG_1,89538.0,89538.0,-11.182496037450619,-10.713983650704506,-0.34509619091503174
63863.947550122866,7.48965009827225,PPG_2,PPG_1,89552.0,89552.0,2.789334327317192,-8.8493262374533,-0.2845993341614701
63863.95764399093,7.4997439663347905,PPG_2,PPG_1,89565.0,89565.0,15.761164692085003,-7.188704979799109,-0.23072221677127921
63863.967737858984,7.509837834390055,PPG_2,PPG_1,89538.0,89538.0,-11.267004943147185,-5.751179618259213,-0.18408321206260303
63863.97783172704,7.519931702445319,PPG_2,PPG_1,89539.0,89539.0,-10.295174578364822,-4.538329061292916,-0.14473354606667424
63863.987925595095,7.530025570500584,PPG_2,PPG_1,89548.0,89548.0,-1.3233442135970108,-3.5362168234630302,-0.11222106411038778
63863.99801946315,7.540119438555848,PPG_2,PPG_1,89564.0,89564.0,14.6484861511708,-2.7158412818068247,-0.08560483891266303
63864.00811333121,7.550213306618389,PPG_2,PPG_1,89574.0,89574.0,24.62031651593861,-2.0308321727281813,-0.06338043583877105
63864.01820719927,7.560307174673653,PPG_2,PPG_1,89580.0,89580.0,30.592146880706423,-1.4150067085928872,-0.0434006236629623
63864.02830106732,7.570401042728918,PPG_2,PPG_1,89536.0,89536.0,-13.436022754525766,-0.7844958175310807,-0.022944358191859453
63864.03839493538,7.580494910784182,PPG_2,PPG_1,89570.0,89570.0,20.535807610242045,-0.04702594867005783,0.0009820792864135123
63864.04848880344,7.590588778846723,PPG_2,PPG_1,89547.0,89547.0,-2.4923620249901433,0.883471636982693,0.031171098861123854
63864.058582671496,7.600682646901987,PPG_2,PPG_1,89543.0,89543.0,-6.52053166020778,2.0712020211766995,0.06970576716201746
63864.06867653955,7.6107765149572515,PPG_2,PPG_1,89554.0,89554.0,4.451298704560031,3.54572948411106,0.11754526629488851
63864.07877040761,7.620870383012516,PPG_2,PPG_1,89560.0,89560.0,10.423129069327842,5.295123143283022,0.17430251127319568
63864.08886427567,7.630964251075056,PPG_2,PPG_1,89560.0,89560.0,10.394959434095654,7.266724408538643,0.23826904929335765
63864.09895814373,7.641058119130321,PPG_2,PPG_1,89567.0,89567.0,17.366789798863465,9.375066249648746,0.3066719920767112
63864.10905201178,7.651151987185585,PPG_2,PPG_1,89577.0,89577.0,27.338620163631276,11.51503002054617,0.3761008752515918
63864.119145879835,7.66124585524085,PPG_2,PPG_1,89577.0,89577.0,27.310450528399087,13.577927426011344,0.4430294209183918
63864.1292397479,7.67133972330339,PPG_2,PPG_1,89597.0,89597.0,47.2822808931669,15.467761689666023,0.5043431142133689
63864.13933361595,7.681433591358655,PPG_2,PPG_1,89576.0,89576.0,26.254111257949262,17.114465421016742,0.5577686920396905
63864.14942748401,7.691527459413919,PPG_2,PPG_1,89573.0,89573.0,23.225941622717073,18.481452577346115,0.6021191585611648
63864.15952135206,7.701621327469184,PPG_2,PPG_1,89578.0,89578.0,28.197771987484884,19.567013124240294,0.6373390335023038
63864.16961522012,7.711715195524448,PPG_2,PPG_1,89591.0,89591.0,41.169602352252696,20.401489728669127,0.6644127529124058
63864.17970908818,7.7218090635869885,PPG_2,PPG_1,89597.0,89597.0,47.14143271702051,21.042098958127642,0.6851966483959137
63864.18980295624,7.731902931642253,PPG_2,PPG_1,89559.0,89559.0,9.113263081788318,21.565119139834753,0.7021654903864579
63864.19989682429,7.741996799697517,PPG_2,PPG_1,89575.0,89575.0,25.08509344655613,22.0548777582369,0.7180551957933274
63864.20999069235,7.752090667752782,PPG_2,PPG_1,89593.0,89593.0,43.05692381133849,22.59157086968591,0.7354676416684883
63864.22008456041,7.762184535815322,PPG_2,PPG_1,89571.0,89571.0,21.028754176106304,23.241236848718074,0.7565453739059845
63864.230178428465,7.772278403870587,PPG_2,PPG_1,89570.0,89570.0,20.000584540874115,24.049328745924775,0.782763069125284
63864.24027229652,7.782372271925851,PPG_2,PPG_1,89589.0,89589.0,38.97241490564193,25.038052010455218,0.814841159866317
63864.250366164575,7.792466139981116,PPG_2,PPG_1,89599.0,89599.0,48.94424527040974,26.20805218038703,0.8528005899358833
63864.26046003264,7.802560008043656,PPG_2,PPG_1,89567.0,89567.0,16.91607563517755,27.54409257956778,0.8961470213349257
63864.27055390069,7.812653876098921,PPG_2,PPG_1,89622.0,89622.0,71.88790599994536,29.022684182043044,0.9441183772184712
63864.28064776875,7.822747744154185,PPG_2,PPG_1,89589.0,89589.0,38.85973636471317,30.619538351972025,0.9959266382362857
63864.2907416368,7.8328416122094495,PPG_2,PPG_1,89576.0,89576.0,25.831566729495535,32.315147316225726,1.0509388951214018
63864.30083550486,7.842935480264714,PPG_2,PPG_1,89606.0,89606.0,55.803397094263346,34.097699974767686,1.108771949103938
63864.31092937292,7.853029348327254,PPG_2,PPG_1,89606.0,89606.0,55.77522745903116,35.964413083818386,1.1693355007546036
63864.32102324098,7.863123216382519,PPG_2,PPG_1,89602.0,89602.0,51.74705782379897,37.922312436336036,1.232857494567198
63864.33111710903,7.873217084437783,PPG_2,PPG_1,89595.0,89595.0,44.71888818856678,39.98743852412048,1.299858347497552
63864.34121097709,7.883310952493048,PPG_2,PPG_1,89635.0,89635.0,84.69071855333459,42.18117462587532,1.3710318176266199
63864.35130484515,7.893404820555588,PPG_2,PPG_1,89601.0,89601.0,50.6625489181024,44.52338956248888,1.4470225280377624
63864.361398713205,7.903498688610853,PPG_2,PPG_1,89614.0,89614.0,63.63437928287021,47.0218813572343,1.5280834774285232
63864.37149258126,7.913592556666117,PPG_2,PPG_1,89613.0,89613.0,62.60620964765258,49.65790950116128,1.613606649614589
63864.381586449315,7.923686424721382,PPG_2,PPG_1,89593.0,89593.0,42.57804001242039,52.3696465095355,1.701586116611107
63864.39168031738,7.933780292783922,PPG_2,PPG_1,89586.0,89586.0,35.5498703771882,55.03739305481047,1.7881383591074431
63864.40177418543,7.943874160839187,PPG_2,PPG_1,89617.0,89617.0,66.52170074195601,57.475652910224476,1.8672451463127928
63864.41186805349,7.953968028894451,PPG_2,PPG_1,89610.0,89610.0,59.49353110672382,59.43682292689644,1.9308732533982202
63864.421961921544,7.9640618969497154,PPG_2,PPG_1,89616.0,89616.0,65.46536147149163,60.62801666577064,1.9695202866142372
63864.432055789606,7.974155765012256,PPG_2,PPG_1,89624.0,89624.0,73.43719183625944,60.738719472197175,1.9731119232199805
63864.44214965766,7.98424963306752,PPG_2,PPG_1,89623.0,89623.0,72.40902220102726,59.47551295321359,1.9321285107786197
63864.45224352572,7.994343501122785,PPG_2,PPG_1,89628.0,89628.0,77.38085256580962,56.60003952963131,1.8388367872861953
63864.46233739377,8.00443736917805,PPG_2,PPG_1,89646.0,89646.0,95.35268293057743,51.9659304902314,1.6884879732120077
63864.47243126183,8.014531237233314,PPG_2,PPG_1,89640.0,89640.0,89.32451329534524,45.549371588912585,1.4803094402840506
63864.48252512989,8.024625105295854,PPG_2,PPG_1,89621.0,89621.0,70.29634366011305,37.466960046837656,1.2180840632204477
63864.492618997945,8.034718973351119,PPG_2,PPG_1,89590.0,89590.0,39.268174024880864,27.975517238468253,0.9101441425240392
63864.502712866,8.044812841406383,PPG_2,PPG_1,89596.0,89596.0,45.240004389648675,17.452778260488365,0.5687448977716161
63864.512806734056,8.054906709461648,PPG_2,PPG_1,89551.0,89551.0,0.21183475441648625,6.362767404212455,0.2089411110815073
63864.52290060212,8.065000577524188,PPG_2,PPG_1,89537.0,89537.0,-13.81633488080115,-4.787790929595731,-0.15282707510044863
63864.53299447017,8.075094445579452,PPG_2,PPG_1,89557.0,89557.0,6.155495483966661,-15.495026470015015,-0.5002121175817745
63864.54308833823,8.085188313634717,PPG_2,PPG_1,89516.0,89516.0,-34.87267415126553,-25.29919132066357,-0.8182979773986869
63864.55318220629,8.095282181689981,PPG_2,PPG_1,89501.0,89501.0,-49.90084378649772,-33.81774815284428,-1.0946736315865282
63864.56327607435,8.105376049752522,PPG_2,PPG_1,89538.0,89538.0,-12.929013421729906,-40.76807622978712,-1.320169746354299
63864.5733699424,8.115469917807786,PPG_2,PPG_1,89513.0,89513.0,-37.957183056962094,-45.97821625202136,-1.4892072823387388
63864.58346381046,8.12556378586305,PPG_2,PPG_1,89506.0,89506.0,-44.98535269219428,-49.3863279289538,-1.5997798960823153
63864.59355767851,8.135657653918315,PPG_2,PPG_1,89548.0,89548.0,-3.0135223274264717,-51.03209901193957,-1.653175215109281
63864.603651546575,8.145751521980856,PPG_2,PPG_1,89492.0,89492.0,-59.04169196264411,-51.04364932886457,-1.6535499530442517
63864.61374541463,8.15584539003612,PPG_2,PPG_1,89523.0,89523.0,-28.069861597876297,-49.62266811451304,-1.6074477058629646
63864.623839282685,8.165939258091385,PPG_2,PPG_1,89496.0,89496.0,-55.098031233108486,-47.02890146932009,-1.523295663739147
63864.63393315074,8.176033126146649,PPG_2,PPG_1,89557.0,89557.0,5.873799131659325,-43.56299343937795,-1.410847907857364
63864.6440270188,8.186126994201913,PPG_2,PPG_1,89512.0,89512.0,-39.15437050357286,-39.54711545077305,-1.2805569526985774
63864.65412088686,8.196220862264454,PPG_2,PPG_1,89533.0,89533.0,-18.182540138805052,-35.3053974070155,-1.1429388534924754
63864.664214754914,8.206314730319718,PPG_2,PPG_1,89527.0,89527.0,-24.21070977403724,-31.146502065462734,-1.008007850111922
63864.67430862297,8.216408598374983,PPG_2,PPG_1,89532.0,89532.0,-19.23887940926943,-27.348297058427885,-0.8847790668521567
63864.684402491024,8.226502466430247,PPG_2,PPG_1,89555.0,89555.0,3.7329509555129334,-24.14327872749588,-0.7807956040020768
63864.69449635909,8.236596334492788,PPG_2,PPG_1,89536.0,89536.0,-15.295218679719255,-21.704602691189077,-0.7016753142435631
63864.70459022714,8.246690202548052,PPG_2,PPG_1,89575.0,89575.0,23.676611685048556,-20.134375428640226,-0.6507309353469999
63864.7146840952,8.256784070603317,PPG_2,PPG_1,89551.0,89551.0,-0.3515579501836328,-19.45684931215225,-0.6287493101301171
63864.72477796325,8.266877938658581,PPG_2,PPG_1,89569.0,89569.0,17.62027241458418,-19.619386528369088,-0.6340226598707797
63864.734871831315,8.276971806721122,PPG_2,PPG_1,89528.0,89528.0,-23.40789722064801,-20.50323766253546,-0.6626982841839374
63864.74496569937,8.287065674776386,PPG_2,PPG_1,89531.0,89531.0,-20.4360668558802,-21.943481403924544,-0.7094254838796227
63864.755059567426,8.29715954283165,PPG_2,PPG_1,89527.0,89527.0,-24.464236491097836,-23.753689761986905,-0.7681557980668569
63864.76515343548,8.307253410886915,PPG_2,PPG_1,89524.0,89524.0,-27.492406126330025,-25.748831409217072,-0.8328860791242747
63864.77524730354,8.317347278949455,PPG_2,PPG_1,89549.0,89549.0,-2.5205757615622133,-27.76135188234921,-0.8981801979857122
63864.7853411716,8.32744114700472,PPG_2,PPG_1,89537.0,89537.0,-14.548745396794402,-29.649095241453225,-0.9594260540725309
63864.795435039654,8.337535015059984,PPG_2,PPG_1,89531.0,89531.0,-20.57691503202659,-31.297156166246808,-1.0128956646185985
63864.80552890771,8.347628883115249,PPG_2,PPG_1,89533.0,89533.0,-18.60508466725878,-32.61667985804267,-1.0557062287459353
63864.81562277576,8.357722751170513,PPG_2,PPG_1,89530.0,89530.0,-21.63325430249097,-33.54205896347494,-1.0857291845909258
63864.82571664383,8.367816619233054,PPG_2,PPG_1,89552.0,89552.0,0.338576062276843,-34.02658493976452,-1.1014491224050582
63864.83581051188,8.377910487288318,PPG_2,PPG_1,89544.0,89544.0,-7.689593572940794,-34.03738729414053,-1.101799593478534
63864.84590437994,8.388004355343583,PPG_2,PPG_1,89544.0,89544.0,-7.717763208172983,-33.55225299637138,-1.0860599193111453
63864.85599824799,8.398098223398847,PPG_2,PPG_1,89545.0,89545.0,-6.745932843405171,-32.56123360714633,-1.0539073332093287
63864.866092116055,8.408192091461387,PPG_2,PPG_1,89498.0,89498.0,-53.77410247863736,-31.073899644640395,-1.0056523406112292
63864.87618598411,8.418285959516652,PPG_2,PPG_1,89522.0,89522.0,-29.80227211386955,-29.12942197103463,-0.9425657991132286
63864.886279852166,8.428379827571916,PPG_2,PPG_1,89545.0,89545.0,-6.8304417491017375,-26.80346309690162,-0.8671024996228661
63864.89637372022,8.43847369562718,PPG_2,PPG_1,89539.0,89539.0,-12.858611384333926,-24.20665585708067,-0.7828518085910248
63864.90646758829,8.448567563689721,PPG_2,PPG_1,89535.0,89535.0,-16.886781019566115,-21.47430118883114,-0.6942034232145374
63864.91656145634,8.458661431744986,PPG_2,PPG_1,89566.0,89566.0,14.085049345216248,-18.750455228001382,-0.6058310939383682
63864.926655324394,8.46875529980025,PPG_2,PPG_1,89570.0,89570.0,18.05687970998406,-16.16970423689182,-0.5221013310788494
63864.93674919245,8.478849167855515,PPG_2,PPG_1,89555.0,89555.0,3.0287100747518707,-13.840103981092808,-0.4465198907742721
63864.946843060505,8.48894303591078,PPG_2,PPG_1,89551.0,89551.0,-0.999459560480318,-11.831116567533776,-0.38134039833020056
63864.95693692857,8.49903690397332,PPG_2,PPG_1,89578.0,89578.0,25.972370804287493,-10.168245547368665,-0.3273902897517166
63864.96703079662,8.509130772028584,PPG_2,PPG_1,89571.0,89571.0,18.944201169055304,-8.833590417556335,-0.28408880196641845
63864.97712466468,8.519224640083848,PPG_2,PPG_1,89551.0,89551.0,-1.0839684661768842,-7.771897426118647,-0.2496432848634796
63864.98721853273,8.529318508139113,PPG_2,PPG_1,89560.0,89560.0,7.887861898590927,-6.902333438126794,-0.22143119204377198
63864.9973124008,8.539412376201653,PPG_2,PPG_1,89542.0,89542.0,-10.14030773662671,-6.134181720392365,-0.1965093141145947
63865.00740626885,8.549506244256918,PPG_2,PPG_1,89554.0,89554.0,1.8315226281411014,-5.3822217126622185,-0.17211275925750727
63865.017500136906,8.559600112312182,PPG_2,PPG_1,89566.0,89566.0,13.803352992908913,-4.5775741622410875,-0.14600681226209883
63865.02759400496,8.569693980367447,PPG_2,PPG_1,89568.0,89568.0,15.775183357676724,-3.672077478655779,-0.11662892076932754
63865.037687873024,8.579787848429987,PPG_2,PPG_1,89566.0,89566.0,13.747013722444535,-2.6372114389562475,-0.08305377601731198
63865.04778174108,8.589881716485252,PPG_2,PPG_1,89572.0,89572.0,19.718844087212346,-1.4601905344746093,-0.04486656556870805
63865.057875609134,8.599975584540516,PPG_2,PPG_1,89579.0,89579.0,26.690674451980158,-0.13943314457067202,-0.0020159753984148768
63865.06796947719,8.61006945259578,PPG_2,PPG_1,89571.0,89571.0,18.66250481676252,1.3192208950269393,0.04530852713992486
63865.07806334525,8.620163320658321,PPG_2,PPG_1,89562.0,89562.0,9.634335181530332,2.9046242539308893,0.09674527858747158
63865.08815721331,8.630257188713585,PPG_2,PPG_1,89586.0,89586.0,33.60616554629814,4.600844994696037,0.1517773839207342
63865.09825108136,8.64035105676885,PPG_2,PPG_1,89577.0,89577.0,24.577995911065955,6.387154219960174,0.20973231577598944
63865.10834494942,8.650444924824114,PPG_2,PPG_1,89593.0,89593.0,40.549826275833766,8.237841189305064,0.2697759161094827
63865.11843881747,8.660538792879379,PPG_2,PPG_1,89557.0,89557.0,4.521656640601577,10.120896676524648,0.33086967910303067
63865.128532685536,8.67063266094192,PPG_2,PPG_1,89574.0,89574.0,21.49348700536939,11.995344726034459,0.39168418279541006
63865.13862655359,8.680726528997184,PPG_2,PPG_1,89569.0,89569.0,16.4653173701372,13.809607888494815,0.4505460508643846
63865.14872042165,8.690820397052448,PPG_2,PPG_1,89577.0,89577.0,24.437147734919563,15.504611000106973,0.5055386514951083
63865.1588142897,8.700914265107713,PPG_2,PPG_1,89610.0,89610.0,57.408978099687374,17.02355356048088,0.5548191519445755
63865.16890815776,8.711008133170253,PPG_2,PPG_1,89620.0,89620.0,67.38080846445519,18.32642209182699,0.5970893568355317
63865.17900202582,8.721102001225518,PPG_2,PPG_1,89596.0,89596.0,43.352638829223,19.40344984773781,0.6320323943103565
63865.189095893875,8.731195869280782,PPG_2,PPG_1,89586.0,89586.0,33.32446919399081,20.280968340755418,0.6605025627141734
63865.19918976193,8.741289737336047,PPG_2,PPG_1,89587.0,89587.0,34.29629955875862,21.0173107098865,0.6843924196446379
63865.20928362999,8.751383605398587,PPG_2,PPG_1,89608.0,89608.0,55.26812992352643,21.691845549681524,0.7062769960222444
63865.21937749805,8.761477473453851,PPG_2,PPG_1,89577.0,89577.0,24.23996028829424,22.391459616383212,0.728975241649162
63865.2294713661,8.771571341509116,PPG_2,PPG_1,89586.0,89586.0,33.211790653076605,23.196830278183413,0.7551046492358864
63865.23956523416,8.78166520956438,PPG_2,PPG_1,89572.0,89572.0,19.183621017844416,24.170341795705045,0.7866892107778163
63865.24965910222,8.79175907762692,PPG_2,PPG_1,89606.0,89606.0,53.15545138261223,25.34873962562955,0.8249210941302391
63865.25975297027,8.801852945682185,PPG_2,PPG_1,89595.0,89595.0,42.12728174738004,26.742976308097994,0.8701556429864752
63865.26984683833,8.81194681373745,PPG_2,PPG_1,89601.0,89601.0,48.09911211214785,28.34461538144858,0.9221191451841543
63865.27994070639,8.822040681792714,PPG_2,PPG_1,89630.0,89630.0,77.07094247691566,30.13567643433565,0.9802282451096295
63865.29003457444,8.832134549847979,PPG_2,PPG_1,89615.0,89615.0,62.04277284168347,32.09810954388917,1.043897331920651
63865.300128442505,8.842228417910519,PPG_2,PPG_1,89615.0,89615.0,62.014603206451284,34.21900359552366,1.1127075180274364
63865.31022231056,8.852322285965784,PPG_2,PPG_1,89606.0,89606.0,52.98643357123365,36.48874995055641,1.186347061211896
63865.320316178615,8.862416154021048,PPG_2,PPG_1,89612.0,89612.0,58.95826393600146,38.89246445566247,1.264333060708882
63865.33041004667,8.872510022076312,PPG_2,PPG_1,89575.0,89575.0,21.93009430076927,41.39803752402246,1.345623754605228
63865.34050391473,8.882603890138853,PPG_2,PPG_1,89646.0,89646.0,92.90192466553708,43.94553565527049,1.4282746632551784
63865.35059778279,8.892697758194117,PPG_2,PPG_1,89623.0,89623.0,69.87375503030489,46.44163019700568,1.5092578362828755
63865.36069165084,8.902791626249382,PPG_2,PPG_1,89609.0,89609.0,55.8455853950727,48.75906909087595,1.5844447139373363
63865.3707855189,8.912885494304646,PPG_2,PPG_1,89618.0,89618.0,64.81741575984051,50.738645530683186,1.6486699981427253
63865.38087938696,8.922979362367187,PPG_2,PPG_1,89612.0,89612.0,58.78924612462288,52.19312792526315,1.6958591560277974
63865.39097325502,8.933073230422451,PPG_2,PPG_1,89621.0,89621.0,67.76107648939069,52.91555441174213,1.7192975267209398
63865.40106712307,8.943167098477716,PPG_2,PPG_1,89640.0,89640.0,86.7329068541585,52.69375144855557,1.7121013618940633
63865.41116099113,8.95326096653298,PPG_2,PPG_1,89621.0,89621.0,67.70473721892631,51.33007495559656,1.667858306378092
63865.42125485919,8.96335483459552,PPG_2,PPG_1,89619.0,89619.0,65.67656758369412,48.66324380088588,1.5813357627698457
63865.431348727245,8.973448702650785,PPG_2,PPG_1,89622.0,89622.0,68.64839794846193,44.58939892499959,1.4491641326670235
63865.4414425953,8.98354257070605,PPG_2,PPG_1,89630.0,89630.0,76.62022831322975,39.08105842986453,1.2704517946708453
63865.451536463355,8.993636438761314,PPG_2,PPG_1,89612.0,89612.0,58.59205867799756,32.202659109666605,1.047289333078363
63865.46163033141,9.003730306816578,PPG_2,PPG_1,89624.0,89624.0,70.56388904277992,24.11997217699173,0.7850550212551856
63865.47172419947,9.01382417487912,PPG_2,PPG_1,89616.0,89616.0,62.53571940754773,15.100088032628918,0.4924143275076925
63865.48181806753,9.023918042934383,PPG_2,PPG_1,89584.0,89584.0,30.507549772315542,5.499185737865042,0.180923108421743
63865.49191193558,9.034011910989648,PPG_2,PPG_1,89573.0,89573.0,19.479380137083353,-4.263160488455036,-0.13580598992914766
63865.50200580364,9.044105779044912,PPG_2,PPG_1,89540.0,89540.0,-13.548789498148835,-13.741039265267164,-0.4433058398284811
63865.5120996717,9.054199647107453,PPG_2,PPG_1,89548.0,89548.0,-5.576959133381024,-22.504688412503633,-0.7276332574716128
63865.52219353976,9.064293515162715,PPG_2,PPG_1,89507.0,89507.0,-46.60512876861321,-30.180827979918302,-0.9766775658416621
63865.53228740781,9.074387383217982,PPG_2,PPG_1,89547.0,89547.0,-6.6332984038454015,-36.48420954833434,-1.1811841787441428
63865.54238127587,9.084481251273246,PPG_2,PPG_1,89521.0,89521.0,-32.66146803906304,-41.236267984965096,-1.3353597374727288
63865.55247514393,9.094575119335786,PPG_2,PPG_1,89535.0,89535.0,-18.689637674295227,-44.37022151871124,-1.437037577410513
63865.562569011985,9.104668987391053,PPG_2,PPG_1,89526.0,89526.0,-27.717807309527416,-45.92487559409919,-1.4874767005608067
63865.57266288004,9.114762855446315,PPG_2,PPG_1,89534.0,89534.0,-19.745976944759605,-46.030164533189044,-1.4908926899112298
63865.582756748096,9.12485672350158,PPG_2,PPG_1,89552.0,89552.0,-1.7741465799917933,-44.8870888078009,-1.4538067952445488
63865.59285061616,9.13495059156412,PPG_2,PPG_1,89540.0,89540.0,-13.802316215223982,-42.74504980664168,-1.384310583397395
63865.60294448421,9.145044459619385,PPG_2,PPG_1,89535.0,89535.0,-18.83048585045617,-39.88015562812145,-1.291362092430437
63865.61303835227,9.15513832767465,PPG_2,PPG_1,89516.0,89516.0,-37.85865548567381,-36.576704975086145,-1.184185095986526
63865.62313222032,9.165232195729914,PPG_2,PPG_1,89574.0,89574.0,20.113174879094004,-33.11088619347581,-1.0717402356733907
63865.63322608838,9.175326063785178,PPG_2,PPG_1,89563.0,89563.0,9.085005243861815,-29.734749204206906,-0.9622050071811609
63865.64331995644,9.18541993184772,PPG_2,PPG_1,89558.0,89558.0,4.056835608629626,-26.661795263160695,-0.8625062351382986
63865.6534138245,9.195513799902985,PPG_2,PPG_1,89526.0,89526.0,-27.971334026602563,-24.0581469619744,-0.7780335930357027
63865.66350769255,9.205607667958247,PPG_2,PPG_1,89552.0,89552.0,-1.9995036618347513,-22.040232446346362,-0.7125644701151398
63865.67360156061,9.215701536013512,PPG_2,PPG_1,89597.0,89597.0,42.97232670293306,-20.67529655453451,-0.668280554722467
63865.68369542867,9.225795404076052,PPG_2,PPG_1,89555.0,89555.0,0.9441570677008713,-19.98215662671274,-0.6457923557505744
63865.693789296725,9.235889272131317,PPG_2,PPG_1,89533.0,89533.0,-21.084012567516766,-19.934419807913457,-0.644243584663592
63865.70388316478,9.24598314018658,PPG_2,PPG_1,89565.0,89565.0,10.887817797251046,-20.468311893441676,-0.6615651541865131
63865.71397703283,9.256077008241846,PPG_2,PPG_1,89560.0,89560.0,5.859648162018857,-21.492591562445572,-0.6947968352293439
63865.7240709009,9.266170876304386,PPG_2,PPG_1,89549.0,89549.0,-5.168521473213332,-22.896961155820517,-0.7403601357668544
63865.73416476895,9.27626474435965,PPG_2,PPG_1,89546.0,89546.0,-8.19669110844552,-24.55840868594245,-0.7942640607018335
63865.74425863701,9.286358612414915,PPG_2,PPG_1,89561.0,89561.0,6.775139256322291,-26.346023504426935,-0.8522613511616606
63865.754352505064,9.29645248047018,PPG_2,PPG_1,89568.0,89568.0,13.746969621090102,-28.124164672707057,-0.9099512789631925
63865.76444637313,9.30654634853272,PPG_2,PPG_1,89557.0,89557.0,2.7187999858579133,-29.75504156890358,-0.9628633716997698
63865.77454024118,9.316640216587984,PPG_2,PPG_1,89554.0,89554.0,-0.30936964935972355,-31.10352031490823,-1.0066133522337413
63865.78463410924,9.326734084643247,PPG_2,PPG_1,89531.0,89531.0,-23.337539284591912,-32.046039959219655,-1.037192414909875
63865.79472797729,9.336827952698512,PPG_2,PPG_1,89557.0,89557.0,2.634291080175899,-32.48241908561268,-1.0513502786075357
63865.80482184535,9.346921820753778,PPG_2,PPG_1,89535.0,89535.0,-19.39387855505629,-32.34728503454524,-1.046965995858405
63865.81491571341,9.357015688816318,PPG_2,PPG_1,89543.0,89543.0,-11.422048190288479,-31.618346052051145,-1.0233163340531612
63865.825009581466,9.367109556871585,PPG_2,PPG_1,89549.0,89549.0,-5.450217825520667,-30.32008130596214,-0.9811954941529235
63865.83510344952,9.377203424926847,PPG_2,PPG_1,89535.0,89535.0,-19.478387460752856,-28.52205466820981,-0.9228604031221634
63865.845197317576,9.387297292982112,PPG_2,PPG_1,89571.0,89571.0,16.493442904014955,-26.331483532757918,-0.8517896170098479
63865.85529118564,9.397391161044652,PPG_2,PPG_1,89567.0,89567.0,12.465273268797318,-23.880834177428472,-0.7722808654563524
63865.865385053694,9.407485029099917,PPG_2,PPG_1,89545.0,89545.0,-9.56289636643487,-21.312908965607477,-0.6889672215722867
63865.87547892175,9.41757889715518,PPG_2,PPG_1,89578.0,89578.0,23.40893399833294,-18.766372538035817,-0.6063475143908396
63865.885572789804,9.427672765210446,PPG_2,PPG_1,89565.0,89565.0,10.380764363100752,-16.36309455825459,-0.5283756775008066
63865.89566665787,9.437766633272986,PPG_2,PPG_1,89558.0,89558.0,3.3525947278685635,-14.19741762655801,-0.45811255775544757
63865.90576052592,9.44786050132825,PPG_2,PPG_1,89607.0,89607.0,52.324425092636375,-12.327741989312788,-0.3974528899804265
63865.91585439398,9.457954369383517,PPG_2,PPG_1,89589.0,89589.0,34.296255457404186,-10.771807186730907,-0.3469722149777438
63865.92594826203,9.46804823743878,PPG_2,PPG_1,89569.0,89569.0,14.26808582218655,-9.508561818020912,-0.3059875420977003
63865.93604213009,9.478142105494044,PPG_2,PPG_1,89531.0,89531.0,-23.76008381304564,-8.488915240093242,-0.2729061768421946
63865.94613599815,9.488235973556584,PPG_2,PPG_1,89565.0,89565.0,10.211746551722172,-7.652274379160437,-0.2457622403966371
63865.956229866206,9.498329841611849,PPG_2,PPG_1,89575.0,89575.0,20.183576916489983,-6.940639325694668,-0.22267398644479341
63865.96632373426,9.508423709667111,PPG_2,PPG_1,89584.0,89584.0,29.155407281257794,-6.304075658072888,-0.20202134497780638
63865.97641760232,9.518517577722378,PPG_2,PPG_1,89591.0,89591.0,36.127237646025605,-5.698360981122153,-0.18236956670228582
63865.98651147038,9.528611445784918,PPG_2,PPG_1,89563.0,89563.0,8.099068010793417,-5.079901948924065,-0.1623043111690467
63865.996605338434,9.538705313840182,PPG_2,PPG_1,89577.0,89577.0,22.070898375561228,-4.401776182720381,-0.1403032309452036
63866.00669920649,9.548799181895449,PPG_2,PPG_1,89601.0,89601.0,46.04272874034359,-3.6112717714984446,-0.11465614328776198
63866.016793074545,9.558893049950711,PPG_2,PPG_1,89595.0,89595.0,40.0145591051114,-2.6483243406938684,-0.08341432247467169
63866.02688694261,9.568986918013252,PPG_2,PPG_1,89584.0,89584.0,28.986389469879214,-1.4465207650666638,-0.04442306421781658
63866.03698081066,9.579080786068516,PPG_2,PPG_1,89565.0,89565.0,9.958219834647025,0.060725423389489,0.004477959695415989
63866.04707467872,9.58917465412378,PPG_2,PPG_1,89600.0,89600.0,44.930050199414836,1.929277445388153,0.0651011729506233
63866.05716854677,9.599268522179043,PPG_2,PPG_1,89578.0,89578.0,22.901880564182648,4.192170393921038,0.13851836453936894
63866.067262414836,9.609362390241586,PPG_2,PPG_1,89588.0,89588.0,32.87371092895046,6.84922540835557,0.2247237315157655
63866.07735628289,9.61945625829685,PPG_2,PPG_1,89569.0,89569.0,13.84554129371827,9.859597066914995,0.3223920869512615
63866.087450150946,9.629550126352116,PPG_2,PPG_1,89595.0,89595.0,39.81737165850063,13.138821866622733,0.4287831009578219
63866.097544019,9.63964399440738,PPG_2,PPG_1,89598.0,89598.0,42.789202023268444,16.56268618831465,0.5398667927614923
63866.10763788706,9.649737862462644,PPG_2,PPG_1,89596.0,89596.0,40.761032388036256,19.978791185431653,0.6506987414063513
63866.11773175512,9.659831730525184,PPG_2,PPG_1,89627.0,89627.0,71.73286275280407,23.22414475978363,0.7559908389825514
63866.127825623174,9.669925598580448,PPG_2,PPG_1,89603.0,89603.0,47.70469311757188,26.145613299897708,0.8507748258561272
63866.13791949123,9.680019466635713,PPG_2,PPG_1,89622.0,89622.0,66.67652348233969,28.619862802063253,0.9310492594552147
63866.148013359285,9.690113334690976,PPG_2,PPG_1,89645.0,89645.0,89.6483538471075,30.569968380682933,0.9943183924367929
63866.15810722735,9.700207202753518,PPG_2,PPG_1,89634.0,89634.0,78.62018421187531,31.976063717386154,1.039937682909067
63866.1682010954,9.710301070808782,PPG_2,PPG_1,89600.0,89600.0,44.592014576657675,32.876929278430296,1.0691653224815711
63866.17829496346,9.720394938864048,PPG_2,PPG_1,89611.0,89611.0,55.56384494142549,33.36115543632969,1.0848755330020603
63866.18838883151,9.730488806919311,PPG_2,PPG_1,89616.0,89616.0,60.5356753061933,33.551165065385064,1.0910401964029999
63866.198482699576,9.740582674981852,PPG_2,PPG_1,89634.0,89634.0,78.50750567096111,33.58568772698309,1.0921602479999342
63866.20857656763,9.750676543037116,PPG_2,PPG_1,89587.0,89587.0,31.47933603572892,33.603658896054974,1.0927433037576888
63866.21867043569,9.76077041109238,PPG_2,PPG_1,89615.0,89615.0,59.45116640049673,33.72993673367224,1.096840255937318
63866.22876430374,9.770864279147643,PPG_2,PPG_1,89608.0,89608.0,52.42299676526454,34.06428867464106,1.1076879544659168
63866.23885817181,9.780958147210184,PPG_2,PPG_1,89620.0,89620.0,64.3948271300469,34.67633033169098,1.1275450049839537
63866.24895203986,9.79105201526545,PPG_2,PPG_1,89637.0,89637.0,81.36665749481472,35.607141909294704,1.1577442116986423
63866.259045907915,9.801145883320714,PPG_2,PPG_1,89622.0,89622.0,66.33848785958253,36.87511440210505,1.1988822511689896
63866.26913977597,9.81123975137598,PPG_2,PPG_1,89638.0,89638.0,82.31031822435034,38.482146151316066,1.2510207130867375
63866.279233644025,9.821333619431243,PPG_2,PPG_1,89616.0,89616.0,60.28214858911815,40.41720533807098,1.3138016816436702
63866.28932751209,9.831427487493784,PPG_2,PPG_1,89647.0,89647.0,91.25397895388596,42.65635558594981,1.3864485661775094
63866.29942138014,9.841521355549048,PPG_2,PPG_1,89633.0,89633.0,77.22580931865377,45.15970098840601,1.467666985786837
63866.3095152482,9.851615223604313,PPG_2,PPG_1,89623.0,89623.0,67.19763968342158,47.8656687331109,1.5554592750662597
63866.31960911625,9.861709091659575,PPG_2,PPG_1,89651.0,89651.0,95.16947004820395,50.68311489246114,1.6468683647477225
63866.32970298432,9.871802959722118,PPG_2,PPG_1,89619.0,89619.0,63.14130041297176,53.48268491370133,1.737697481851453
63866.33979685237,9.881896827777382,PPG_2,PPG_1,89625.0,89625.0,69.11313077773957,56.08963299189367,1.8222771817628642
63866.34989072043,9.891990695832646,PPG_2,PPG_1,89615.0,89615.0,59.08496114250738,58.28106167889263,1.893375790236935
63866.35998458848,9.902084563887913,PPG_2,PPG_1,89630.0,89630.0,74.0567915072752,59.79164752776049,1.942385165934306
63866.370078456544,9.912178431950451,PPG_2,PPG_1,89651.0,89651.0,95.028621872043,60.331277085074376,1.9598928817199555
