timestamp,time_from_segment_start_sec,selected_channel_name,backup_channel_name,selected_channel_raw,selected_channel_clipped,selected_channel_detrended,selected_channel_filtered,selected_channel_filtered_z
62858.88091995412,0.0,PPG_2,PPG_1,86480.0,86480.0,-83.8509177389933,-15.094584063758104,-1.0909626887416248
62858.891013822176,0.0100938680552644,PPG_2,PPG_1,86480.0,86480.0,-83.86812674258545,-10.40443825624169,-0.7523683111003809
62858.90110769023,0.0201877361105289,PPG_2,PPG_1,86497.0,86497.0,-66.88533574616304,-6.0025959689114075,-0.43458734843501273
62858.911201558294,0.0302816041730693,PPG_2,PPG_1,86509.0,86509.0,-54.90254474975518,-2.107491733444539,-0.1533891834777366
62858.92129542635,0.0403754722283338,PPG_2,PPG_1,86512.0,86512.0,-51.91975375333277,1.1094274529111148,0.07884895890169033
62858.931389294405,0.0504693402835982,PPG_2,PPG_1,86511.0,86511.0,-52.93696275692491,3.5409672950922504,0.254388431097583
62858.94148316246,0.0605632083388627,PPG_2,PPG_1,86522.0,86522.0,-41.954171760502504,5.153004618800272,0.3707657883815791
62858.95157703052,0.0706570764014031,PPG_2,PPG_1,86502.0,86502.0,-61.97138076409465,5.983203893098949,0.43070013117938327
62858.96167089858,0.0807509444566676,PPG_2,PPG_1,86514.0,86514.0,-49.98858976767224,6.129859014941552,0.441287563158282
62858.97176476663,0.0908448125119321,PPG_2,PPG_1,86493.0,86493.0,-71.00579877126438,5.732789082963986,0.41262200519576986
62858.98185863469,0.1009386805671965,PPG_2,PPG_1,86484.0,86484.0,-80.02300777484197,4.949781416597749,0.3560945528814484
62858.99195250275,0.111032548629737,PPG_2,PPG_1,86487.0,86487.0,-77.04021677843411,3.933405619983333,0.2827196207518832
62859.002046370806,0.1211264166850014,PPG_2,PPG_1,86488.0,86488.0,-76.0574257820117,2.8135998011416246,0.20187779410715262
62859.01214023886,0.1312202847402659,PPG_2,PPG_1,86517.0,86517.0,-47.07463478560385,1.6899795018793573,0.12076058974986692
62859.02223410692,0.1413141527955304,PPG_2,PPG_1,86516.0,86516.0,-48.09184378918144,0.6339451698368419,0.0445226001221914
62859.03232797497,0.1514080208507948,PPG_2,PPG_1,86516.0,86516.0,-48.10905279277358,-0.3036463413243932,-0.023164680237959923
62859.042421843034,0.1615018889133352,PPG_2,PPG_1,86503.0,86503.0,-61.12626179635117,-1.0851693073210467,-0.07958494799592553
62859.05251571109,0.1715957569685997,PPG_2,PPG_1,86480.0,86480.0,-84.14347079992876,-1.6828916628224388,-0.12273614995619507
62859.062609579145,0.1816896250238642,PPG_2,PPG_1,86515.0,86515.0,-49.16067980352091,-2.078853102137317,-0.15132168281956396
62859.0727034472,0.1917834930791286,PPG_2,PPG_1,86503.0,86503.0,-61.1778888070985,-2.2647443474475266,-0.1647416772286708
62859.08279731526,0.2018773611416691,PPG_2,PPG_1,86518.0,86518.0,-46.19509781069064,-2.2401859031605307,-0.16296873636489928
62859.09289118332,0.2119712291969335,PPG_2,PPG_1,86475.0,86475.0,-89.21230681426823,-2.010701009494228,-0.14640159795643376
62859.10298505137,0.222065097252198,PPG_2,PPG_1,86535.0,86535.0,-29.229515817860374,-1.5867220345087316,-0.11579340301756368
62859.11307891943,0.2321589653074625,PPG_2,PPG_1,86501.0,86501.0,-63.246724821437965,-0.9832637008848834,-0.07222810520137761
62859.12317278749,0.2422528333700029,PPG_2,PPG_1,86489.0,86489.0,-75.26393382503011,-0.21994990475490234,-0.017122406924064137
62859.133266655546,0.2523467014252674,PPG_2,PPG_1,86516.0,86516.0,-48.2811428286077,0.6784712469644041,0.04773705868969515
62859.1433605236,0.2624405694805318,PPG_2,PPG_1,86505.0,86505.0,-59.29835183219984,1.6822656922868304,0.12020370886270156
62859.15345439166,0.2725344375357963,PPG_2,PPG_1,86516.0,86516.0,-48.31556083577743,2.7589724345903255,0.1979340959922721
62859.16354825972,0.2826283055983367,PPG_2,PPG_1,86502.0,86502.0,-62.332769839369575,3.8775653514206283,0.2786883599431023
62859.173642127775,0.2927221736536012,PPG_2,PPG_1,86529.0,86529.0,-35.349978842947166,5.0135059910595725,0.3606950031693212
62859.18373599583,0.3028160417088656,PPG_2,PPG_1,86533.0,86533.0,-31.36718784653931,6.153888214758253,0.44302229642480734
62859.193829863885,0.3129099097641301,PPG_2,PPG_1,86524.0,86524.0,-40.3843968501169,7.300961690760309,0.5258326493765765
62859.20392373194,0.3230037778193946,PPG_2,PPG_1,86514.0,86514.0,-50.40160585370904,8.471404008590529,0.6103300625562649
62859.2140176,0.333097645881935,PPG_2,PPG_1,86518.0,86518.0,-46.418814857286634,9.690361165494815,0.6983298938732154
62859.22411146806,0.3431915139371995,PPG_2,PPG_1,86521.0,86521.0,-43.436023860864225,10.982359608581524,0.7916027742278778
62859.23420533611,0.3532853819924639,PPG_2,PPG_1,86521.0,86521.0,-43.45323286445637,12.362361282133818,0.891228847057316
62859.24429920417,0.3633792500477284,PPG_2,PPG_1,86524.0,86524.0,-40.47044186803396,13.829071665754217,0.9971146574144305
62859.25439307223,0.3734731181102688,PPG_2,PPG_1,86517.0,86517.0,-47.4876508716261,15.361344539283781,1.1077336021725754
62859.26448694029,0.3835669861655333,PPG_2,PPG_1,86536.0,86536.0,-28.504859875203692,16.91823675826076,1.2201298844148436
62859.27458080834,0.3936608542207978,PPG_2,PPG_1,86540.0,86540.0,-24.522068878795835,18.442989410619354,1.330205923960313
62859.2846746764,0.4037547222760622,PPG_2,PPG_1,86517.0,86517.0,-47.539277882373426,19.870158631204337,1.433237150251463
62859.29476854446,0.4138485903386026,PPG_2,PPG_1,86561.0,86561.0,-3.556486885965569,21.134385517316066,1.524505126401441
62859.304862412515,0.4239424583938671,PPG_2,PPG_1,86543.0,86543.0,-21.57369588954316,22.17946655465374,1.5999523679040235
62859.31495628057,0.4340363264491316,PPG_2,PPG_1,86538.0,86538.0,-26.590904893135303,22.96607457047487,1.656739739234299
62859.325050148625,0.444130194504396,PPG_2,PPG_1,86523.0,86523.0,-41.608113896712894,23.4763813795698,1.6935801752298452
62859.33514401668,0.4542240625596605,PPG_2,PPG_1,86565.0,86565.0,0.37467709969496354,23.715815456511006,1.7108655722292494
62859.34523788474,0.4643179306222009,PPG_2,PPG_1,86532.0,86532.0,-32.64253190388263,23.713759910000928,1.710717176737967
62859.3553317528,0.4744117986774654,PPG_2,PPG_1,86553.0,86553.0,-11.65974090747477,23.52357046947358,1.6969868839299926
62859.365425620854,0.4845056667327299,PPG_2,PPG_1,86561.0,86561.0,-3.676949911052361,23.220468449418334,1.675105125013684
62859.37551948891,0.4945995347879943,PPG_2,PPG_1,86528.0,86528.0,-36.694158914644504,22.895839986114833,1.6516693136321425
62859.38561335697,0.5046934028505348,PPG_2,PPG_1,86541.0,86541.0,-23.711367918222095,22.647510602582525,1.6337417402649341
62859.39570722503,0.5147872709057992,PPG_2,PPG_1,86543.0,86543.0,-21.728576921799686,22.567422835655545,1.6279599866239578
62859.40580109308,0.5248811389610637,PPG_2,PPG_1,86532.0,86532.0,-32.74578592539183,22.729642958627032,1.639671098353233
62859.41589496114,0.5349750070163282,PPG_2,PPG_1,86531.0,86531.0,-33.76299492896942,23.181224977000852,1.6722720320428037
62859.4259888292,0.5450688750788686,PPG_2,PPG_1,86559.0,86559.0,-5.780203932561562,23.93747084465182,1.7268674773465893
62859.436082697255,0.555162743134133,PPG_2,PPG_1,86545.0,86545.0,-19.797412936139153,24.98220801378562,1.8022898940686085
62859.44617656531,0.5652566111893975,PPG_2,PPG_1,86542.0,86542.0,-22.814621939731296,26.27201540594041,1.89540459649936
62859.456270433366,0.575350479244662,PPG_2,PPG_1,86564.0,86564.0,-0.8318309433088871,27.742388802229474,2.0015548497002023
62859.46636430143,0.5854443473072024,PPG_2,PPG_1,86582.0,86582.0,17.15096005309897,29.31431527496087,2.1150364955968626
62859.47645816948,0.5955382153624669,PPG_2,PPG_1,86548.0,86548.0,-16.86624895047862,30.899211456506507,2.229454460035498
62859.48655203754,0.6056320834177313,PPG_2,PPG_1,86537.0,86537.0,-27.883457954070764,32.39957104873848,2.337769498249388
62859.496645905594,0.6157259514729958,PPG_2,PPG_1,86552.0,86552.0,-12.900666957648355,33.705600305459306,2.4320553011879564
62859.50673977365,0.6258198195282603,PPG_2,PPG_1,86534.0,86534.0,-30.917875961240497,34.692518118298466,2.5033035813769864
62859.51683364171,0.6359136875908007,PPG_2,PPG_1,86574.0,86574.0,9.064915035181912,35.22372632982498,2.5416529464418183
62859.52692750977,0.6460075556460652,PPG_2,PPG_1,86561.0,86561.0,-3.952293968410231,35.161535796111664,2.537163242726405
62859.53702137782,0.6561014237013296,PPG_2,PPG_1,86568.0,86568.0,3.030497028012178,34.3830969359387,2.4809656249530687
62859.54711524588,0.6661952917565941,PPG_2,PPG_1,86564.0,86564.0,-0.9867119755799649,32.79722603237721,2.366477292681987
62859.55720911394,0.6762891598191345,PPG_2,PPG_1,86554.0,86554.0,-11.003920979157556,30.35859804169462,2.190426107774171
62859.567302981995,0.686383027874399,PPG_2,PPG_1,86567.0,86567.0,1.9788700172648532,27.077775251660817,1.9535745905009911
62859.57739685005,0.6964768959296634,PPG_2,PPG_1,86578.0,86578.0,12.96166101367271,23.026476460743243,1.661100315916371
62859.587490718106,0.7065707639849279,PPG_2,PPG_1,86534.0,86534.0,-31.05554798990488,18.336720628648298,1.3225340916610873
62859.59758458617,0.7166646320474683,PPG_2,PPG_1,86546.0,86546.0,-19.072756993497023,13.192142911592832,0.9511330389386318
62859.607678454224,0.7267585001027328,PPG_2,PPG_1,86551.0,86551.0,-14.089965997074614,7.811857676344533,0.5627156196247662
62859.61777232228,0.7368523681579973,PPG_2,PPG_1,86509.0,86509.0,-56.10717500066676,2.4294579208045963,0.17414554734198676
62859.627866190334,0.7469462362132617,PPG_2,PPG_1,86536.0,86536.0,-29.124384004244348,-2.730150583245508,-0.19834061876004666
62859.6379600584,0.7570401042758022,PPG_2,PPG_1,86492.0,86492.0,-73.14159300783649,-7.473452271423911,-0.5407724639490743
62859.64805392645,0.7671339723310666,PPG_2,PPG_1,86497.0,86497.0,-68.15880201141408,-11.657024896641783,-0.8427959462643698
62859.65814779451,0.7772278403863311,PPG_2,PPG_1,86520.0,86520.0,-45.176011015006225,-15.19823283623867,-1.098445375432323
62859.66824166256,0.7873217084415955,PPG_2,PPG_1,86507.0,86507.0,-58.193220018583816,-18.075277207070357,-1.3061470308108887
62859.67833553062,0.79741557649686,PPG_2,PPG_1,86520.0,86520.0,-45.21042902217596,-20.317429627643087,-1.4680141101251334
62859.68842939868,0.8075094445594004,PPG_2,PPG_1,86513.0,86513.0,-52.22763802575355,-21.989394981132122,-1.5887178348142643
62859.698523266736,0.8176033126146649,PPG_2,PPG_1,86524.0,86524.0,-41.24484702934569,-23.17422531165801,-1.674253957749282
62859.70861713479,0.8276971806699294,PPG_2,PPG_1,86500.0,86500.0,-65.26205603292328,-23.958120595894233,-1.7308454896109364
62859.718711002846,0.8377910487251938,PPG_2,PPG_1,86519.0,86519.0,-46.279265036515426,-24.4190855956819,-1.7641238062396791
62859.72880487091,0.8478849167877343,PPG_2,PPG_1,86513.0,86513.0,-52.29647404009302,-24.619926409504895,-1.7786230506453382
62859.73889873896,0.8579787848429987,PPG_2,PPG_1,86499.0,86499.0,-66.31368304367061,-24.605274482087616,-1.7775652881687116
62859.74899260702,0.8680726528982632,PPG_2,PPG_1,86543.0,86543.0,-22.33089204726275,-24.402434623328414,-1.7629217272740072
62859.759086475075,0.8781665209535277,PPG_2,PPG_1,86470.0,86470.0,-95.34810105084034,-24.026064888524285,-1.7357505728261486
62859.76918034314,0.8882603890160681,PPG_2,PPG_1,86505.0,86505.0,-60.365310054432484,-23.48605069590485,-1.696765480044089
62859.77927421119,0.8983542570713325,PPG_2,PPG_1,86496.0,86496.0,-69.38251905801008,-22.795737486109672,-1.646929892571831
62859.78936807925,0.908448125126597,PPG_2,PPG_1,86522.0,86522.0,-43.39972806160222,-21.976239808144655,-1.5877681271093746
62859.7994619473,0.9185419931818616,PPG_2,PPG_1,86537.0,86537.0,-28.41693706517981,-21.05518921134929,-1.5212749803295382
62859.809555815365,0.928635861244402,PPG_2,PPG_1,86514.0,86514.0,-51.43414606877195,-20.063079124396758,-1.4496518557552567
62859.81964968342,0.9387297292996664,PPG_2,PPG_1,86497.0,86497.0,-68.45135507234954,-19.032053185533062,-1.3752192900251963
62859.82974355147,0.9488235973549308,PPG_2,PPG_1,86495.0,86495.0,-70.46856407594169,-17.998524212626254,-1.300606023462193
62859.83983741953,0.9589174654101952,PPG_2,PPG_1,86532.0,86532.0,-33.48577307951928,-17.005990350880612,-1.228952305433417
62859.84993128759,0.9690113334654598,PPG_2,PPG_1,86517.0,86517.0,-48.50298208311142,-16.10372813934837,-1.1638155432685018
62859.86002515565,0.9791052015280002,PPG_2,PPG_1,86515.0,86515.0,-50.52019108668901,-15.341128830466541,-1.108761425768215
62859.870119023704,0.9891990695832646,PPG_2,PPG_1,86543.0,86543.0,-22.537400090281153,-14.760637830089486,-1.066854202183818
62859.88021289176,0.9992929376385292,PPG_2,PPG_1,86514.0,86514.0,-51.554609093858744,-14.392032274788342,-1.0402435649639092
62859.890306759815,1.0093868056937936,PPG_2,PPG_1,86510.0,86510.0,-55.57181809745089,-14.249562705129916,-1.0299582993770693
62859.90040062788,1.019480673756334,PPG_2,PPG_1,86521.0,86521.0,-44.58902710102848,-14.331948849243828,-1.0359059791161098
62859.91049449593,1.0295745418115985,PPG_2,PPG_1,86535.0,86535.0,-30.60623610460607,-14.623457267187373,-1.0569507643747253
62859.92058836399,1.039668409866863,PPG_2,PPG_1,86508.0,86508.0,-57.62344510819821,-15.094717366426114,-1.0909723122236583
62859.93068223204,1.0497622779221274,PPG_2,PPG_1,86514.0,86514.0,-51.6406541117758,-15.703803944606477,-1.1349439283167244
62859.940776100106,1.0598561459846678,PPG_2,PPG_1,86537.0,86537.0,-28.657863115367945,-16.398035767281716,-1.1850624111069092
62859.95086996816,1.0699500140399325,PPG_2,PPG_1,86505.0,86505.0,-60.675072118945536,-17.115972123107444,-1.2368921885942659
62859.960963836216,1.0800438820951968,PPG_2,PPG_1,86533.0,86533.0,-32.69228112253768,-17.789720355214065,-1.2855319052895195
62859.97105770427,1.0901377501504612,PPG_2,PPG_1,86507.0,86507.0,-58.70949012611527,-18.348348577784968,-1.3258607955025061
62859.981151572334,1.1002316182130016,PPG_2,PPG_1,86522.0,86522.0,-43.72669912970741,-18.722528145495602,-1.3528738358331522
62859.99124544039,1.110325486268266,PPG_2,PPG_1,86514.0,86514.0,-51.743908133285004,-18.849759663583004,-1.362059025047124
62860.001339308445,1.1204193543235306,PPG_2,PPG_1,86526.0,86526.0,-39.76111713687715,-18.679473364827114,-1.3497655941572615
62860.0114331765,1.130513222378795,PPG_2,PPG_1,86523.0,86523.0,-42.77832614045474,-18.177855620941887,-1.3135524454034573
62860.021527044555,1.1406070904340595,PPG_2,PPG_1,86490.0,86490.0,-75.79553514404688,-17.3327483609735,-1.2525418545876
62860.03162091262,1.1507009584966,PPG_2,PPG_1,86533.0,86533.0,-32.81274414762447,-16.158063415508153,-1.167738154583869
62860.04171478067,1.1607948265518644,PPG_2,PPG_1,86524.0,86524.0,-41.829953151216614,-14.695722408272477,-1.062167781387641
62860.05180864873,1.1708886946071289,PPG_2,PPG_1,86507.0,86507.0,-58.847162154794205,-13.013877510683107,-0.9407508255489216
62860.06190251678,1.180982562662393,PPG_2,PPG_1,86514.0,86514.0,-51.864371158371796,-11.20190867158889,-0.8099398685856638
62860.071996384846,1.1910764307249335,PPG_2,PPG_1,86553.0,86553.0,-12.881580161963939,-9.362360844621225,-0.6771379095047276
62860.0820902529,1.2011702987801982,PPG_2,PPG_1,86513.0,86513.0,-52.89878916554153,-7.599667746639845,-0.5498843022656881
62860.09218412096,1.211264166835463,PPG_2,PPG_1,86554.0,86554.0,-11.915998169133672,-6.0074751807839535,-0.43493959200593046
62860.10227798901,1.2213580348907271,PPG_2,PPG_1,86530.0,86530.0,-35.93320717271126,-4.6576421643399595,-0.33749147655715345
62860.112371857074,1.2314519029532676,PPG_2,PPG_1,86514.0,86514.0,-51.950416176303406,-3.5927990656633426,-0.26061755811645876
62860.12246572513,1.241545771008532,PPG_2,PPG_1,86561.0,86561.0,-4.967625179880997,-2.8223708933268017,-0.20499825367788155
62860.132559593185,1.2516396390637965,PPG_2,PPG_1,86535.0,86535.0,-30.98483418347314,-2.3210320906652973,-0.16880524244941678
62860.14265346124,1.261733507119061,PPG_2,PPG_1,86536.0,86536.0,-30.00204318705073,-2.0297131456790485,-0.14777413575873688
62860.152747329295,1.2718273751743254,PPG_2,PPG_1,86544.0,86544.0,-22.019252190642874,-1.8605999456741167,-0.135565394057184
62860.16284119736,1.2819212432368658,PPG_2,PPG_1,86548.0,86548.0,-18.036461194220465,-1.7067268996398413,-0.12445688050644498
62860.17293506541,1.2920151112921303,PPG_2,PPG_1,86513.0,86513.0,-53.05367019781261,-1.4555165833937276,-0.10632132477380686
62860.18302893347,1.3021089793473948,PPG_2,PPG_1,86532.0,86532.0,-34.0708792013902,-1.004852574977453,-0.07378666471900157
62860.19312280152,1.3122028474026592,PPG_2,PPG_1,86548.0,86548.0,-18.08808820498234,-0.27881478264221354,-0.021372022503443375
62860.203216669586,1.3222967154651997,PPG_2,PPG_1,86516.0,86516.0,-50.10529720855993,0.7600740059951842,0.05362818372967903
62860.21331053764,1.332390583520464,PPG_2,PPG_1,86512.0,86512.0,-54.122506212152075,2.1036450363501564,0.15062422937729714
62860.2234044057,1.3424844515757286,PPG_2,PPG_1,86545.0,86545.0,-21.139715215729666,3.697390887622043,0.26568107553438336
62860.23349827375,1.352578319630993,PPG_2,PPG_1,86550.0,86550.0,-16.156924219307257,5.448507858974518,0.3920989707183459
62860.243592141815,1.3626721876935337,PPG_2,PPG_1,86546.0,86546.0,-20.1741332228994,7.242350831590292,0.5216013720990371
62860.25368600987,1.372766055748798,PPG_2,PPG_1,86570.0,86570.0,3.8086577735230094,8.962925138461847,0.6458143092932396
62860.263779877925,1.3828599238040624,PPG_2,PPG_1,86552.0,86552.0,-14.208551230069133,10.511971920692384,0.7576442081262269
62860.27387374598,1.3929537918593269,PPG_2,PPG_1,86551.0,86551.0,-15.225760233646724,11.822763929038436,0.852273847053821
62860.28396761404,1.4030476599218673,PPG_2,PPG_1,86555.0,86555.0,-11.242969237238867,12.867003200652142,0.9276603192001567
62860.2940614821,1.4131415279771318,PPG_2,PPG_1,86566.0,86566.0,-0.26017824081645813,13.655348117065557,0.984573082106559
62860.30415535015,1.4232353960323962,PPG_2,PPG_1,86537.0,86537.0,-29.2773872444086,14.232785319886933,1.026259843742598
62860.31424921821,1.4333292640876607,PPG_2,PPG_1,86549.0,86549.0,-17.294596247986192,14.669859854502306,1.0578134427359935
62860.324343086264,1.4434231321429252,PPG_2,PPG_1,86541.0,86541.0,-25.311805251578335,15.051720611882686,1.085381009032891
62860.33443695433,1.4535170002054656,PPG_2,PPG_1,86565.0,86565.0,-1.3290142551559256,15.467990955138198,1.1154326968885704
62860.34453082238,1.46361086826073,PPG_2,PPG_1,86541.0,86541.0,-25.34622325874807,16.00535464036133,1.1542264423353625
62860.35462469044,1.4737047363159943,PPG_2,PPG_1,86578.0,86578.0,11.63656773767434,16.742479626702877,1.2074414992306388
62860.36471855849,1.483798604371259,PPG_2,PPG_1,86537.0,86537.0,-29.380641265917802,17.745778988556925,1.2798724079820059
62860.374812426555,1.4938924724337994,PPG_2,PPG_1,86581.0,86581.0,14.602149730504607,19.064768677648974,1.3750938597709068
62860.38490629461,1.503986340489064,PPG_2,PPG_1,86551.0,86551.0,-15.415059273087536,20.726472847405752,1.4950568017078003
62860.395000162665,1.5140802085443283,PPG_2,PPG_1,86550.0,86550.0,-16.432268276665127,22.728908157827465,1.6396180510857001
62860.40509403072,1.5241740765995928,PPG_2,PPG_1,86561.0,86561.0,-5.449477280242718,25.03459817684199,1.8060720823805723
62860.41518789878,1.5342679446621332,PPG_2,PPG_1,86576.0,86576.0,9.53331371616514,27.566172767814493,1.9888333350710563
62860.42528176684,1.5443618127173977,PPG_2,PPG_1,86532.0,86532.0,-34.48389528741245,30.20579075489981,2.1793945342805667
62860.435375634894,1.5544556807726622,PPG_2,PPG_1,86567.0,86567.0,0.4988957089954056,32.79921158592378,2.366620635190933
62860.44546950295,1.5645495488279266,PPG_2,PPG_1,86596.0,86596.0,29.481686705417815,35.1657273114323,2.5374658396134975
62860.45556337101,1.574643416890467,PPG_2,PPG_1,86576.0,86576.0,9.464477701825672,37.11419576127288,2.6781310745983187
62860.46565723907,1.5847372849457315,PPG_2,PPG_1,86581.0,86581.0,14.447268698248081,38.46177601793101,2.775416557193241
62860.47575110712,1.594831153000996,PPG_2,PPG_1,86576.0,86576.0,9.430059694655938,39.050633889456535,2.8179278079541024
62860.48584497518,1.6049250210562604,PPG_2,PPG_1,86586.0,86586.0,19.412850691078347,38.760627888329736,2.7969914862503322
62860.49593884323,1.615018889111525,PPG_2,PPG_1,86572.0,86572.0,5.395641687486204,37.51830051740989,2.7073044956435233
62860.506032711295,1.6251127571740651,PPG_2,PPG_1,86573.0,86573.0,6.378432683908613,35.3025216824882,2.5473413971832146
62860.51612657935,1.6352066252293298,PPG_2,PPG_1,86588.0,86588.0,21.36122368031647,32.14684566184744,2.3195245654476455
62860.526220447406,1.6453004932845945,PPG_2,PPG_1,86553.0,86553.0,-13.65598532326112,28.13853652598848,2.030153830944072
62860.53631431546,1.6553943613398587,PPG_2,PPG_1,86586.0,86586.0,19.326805673146737,23.41384403938333,1.6890654346122205
62860.54640818352,1.6654882294023992,PPG_2,PPG_1,86558.0,86558.0,-8.690403330430854,18.14900397035191,1.3089823157254865
62860.55650205158,1.6755820974576636,PPG_2,PPG_1,86525.0,86525.0,-41.707612334023,12.546835672650978,0.9045465548666988
62860.566595919634,1.685675965512928,PPG_2,PPG_1,86554.0,86554.0,-12.724821337600588,6.820171653785958,0.4911231094120513
62860.57668978769,1.6957698335681926,PPG_2,PPG_1,86540.0,86540.0,-26.74203034117818,1.1752621278206883,0.08360174307792996
62860.58678365575,1.705863701630733,PPG_2,PPG_1,86533.0,86533.0,-33.75923934477032,-4.202089765661617,-0.3046039103185361
62860.59687752381,1.7159575696859974,PPG_2,PPG_1,86507.0,86507.0,-59.77644834834791,-9.157287659456834,-0.662333118704756
62860.60697139186,1.726051437741262,PPG_2,PPG_1,86548.0,86548.0,-18.793657351940055,-13.574668516409215,-0.9812358529581626
62860.61706525992,1.7361453057965264,PPG_2,PPG_1,86496.0,86496.0,-70.81086635551765,-17.381268343169342,-1.2560446440208062
62860.62715912798,1.7462391738590668,PPG_2,PPG_1,86526.0,86526.0,-40.82807535910979,-20.54617578862796,-1.484527917412824
62860.637252996035,1.7563330419143313,PPG_2,PPG_1,86537.0,86537.0,-29.84528436268738,-23.0761095549268,-1.6671707145089625
62860.64734686409,1.7664269099695955,PPG_2,PPG_1,86493.0,86493.0,-73.86249336627952,-25.008574590029056,-1.8066806194729614
62860.657440732146,1.7765207780248602,PPG_2,PPG_1,86491.0,86491.0,-75.87970236985711,-26.40418968243093,-1.9074338674596736
62860.6675346002,1.7866146460801249,PPG_2,PPG_1,86542.0,86542.0,-24.896911373449257,-27.33803118527143,-1.974850424523446
62860.677628468264,1.796708514142665,PPG_2,PPG_1,86524.0,86524.0,-42.91412037702685,-27.888602747744393,-2.0145976825391227
62860.68772233632,1.8068023821979295,PPG_2,PPG_1,86505.0,86505.0,-61.93132938061899,-28.126066880607997,-2.0317408639195853
62860.697816204374,1.816896250253194,PPG_2,PPG_1,86534.0,86534.0,-32.94853838419658,-28.104221976748665,-2.0301638209169925
62860.70791007243,1.8269901183084585,PPG_2,PPG_1,86491.0,86491.0,-75.96574738778872,-27.858634207789542,-2.0124341721598578
62860.71800394049,1.837083986370999,PPG_2,PPG_1,86516.0,86516.0,-50.982956391366315,-27.409823505986683,-1.980033307348335
62860.72809780855,1.8471778544262631,PPG_2,PPG_1,86512.0,86512.0,-55.00016539495846,-26.7689434009351,-1.9337664301086477
62860.7381916766,1.857271722481528,PPG_2,PPG_1,86503.0,86503.0,-64.01737439853605,-25.94353978376238,-1.8741782988374323
62860.74828554466,1.8673655905367923,PPG_2,PPG_1,86524.0,86524.0,-43.03458340211364,-24.942026694290995,-1.8018763459459737
62860.75837941272,1.8774594585993327,PPG_2,PPG_1,86525.0,86525.0,-42.05179240570578,-23.77673171025955,-1.7177505327880405
62860.768473280776,1.8875533266545972,PPG_2,PPG_1,86519.0,86519.0,-48.06900140928337,-22.466436663648352,-1.6231567708792491
62860.77856714883,1.8976471947098617,PPG_2,PPG_1,86485.0,86485.0,-82.08621041287552,-21.039698094721295,-1.5201566345021618
62860.788661016886,1.907741062765126,PPG_2,PPG_1,86517.0,86517.0,-50.10341941645311,-19.53818576838574,-1.4117583772792248
62860.79875488495,1.9178349308276663,PPG_2,PPG_1,86530.0,86530.0,-37.12062842004525,-18.01647508749288,-1.3019019459245267
62860.80884875301,1.927928798882931,PPG_2,PPG_1,86537.0,86537.0,-30.13783742362284,-16.535875491588914,-1.1950134355699953
62860.81894262106,1.9380226669381957,PPG_2,PPG_1,86523.0,86523.0,-44.155046427214984,-15.154544101065696,-1.095291366857127
62860.829036489115,1.94811653499346,PPG_2,PPG_1,86553.0,86553.0,-14.172255430792575,-13.91865193424679,-1.006068951130711
62860.83913035717,1.9582104030487244,PPG_2,PPG_1,86511.0,86511.0,-56.18946443438472,-12.857922918974143,-0.9294920395565192
62860.84922422523,1.9683042711112648,PPG_2,PPG_1,86520.0,86520.0,-47.20667343796231,-11.986212477960276,-0.8665608927709655
62860.85931809329,1.9783981391665293,PPG_2,PPG_1,86532.0,86532.0,-35.22388244155445,-11.305287159866298,-0.817403042724874
62860.86941196134,1.9884920072217935,PPG_2,PPG_1,86536.0,86536.0,-31.241091445132042,-10.80867926157467,-0.7815515683454836
62860.8795058294,1.9985858752770584,PPG_2,PPG_1,86520.0,86520.0,-47.258300448724185,-10.484008201706672,-0.7581126818021374
62860.88959969746,2.008679743339598,PPG_2,PPG_1,86541.0,86541.0,-26.275509452301776,-10.314423370557225,-0.7458698917659683
62860.89969356552,2.018773611394863,PPG_2,PPG_1,86522.0,86522.0,-45.29271845589392,-10.279990955712996,-0.7433841221218386
62860.90978743357,2.0288674794501276,PPG_2,PPG_1,86528.0,86528.0,-39.30992745947151,-10.358971742696545,-0.7490859598709876
62860.91988130163,2.038961347505392,PPG_2,PPG_1,86538.0,86538.0,-29.3271364630491,-10.528581722355186,-0.7613305654464105
62860.92997516969,2.0490552155679325,PPG_2,PPG_1,86537.0,86537.0,-30.344345466641244,-10.765065223482937,-0.7784029523556725
62860.940069037744,2.059149083623197,PPG_2,PPG_1,86522.0,86522.0,-45.361554470218834,-11.043735187571377,-0.7985208947246748
62860.9501629058,2.0692429516784614,PPG_2,PPG_1,86515.0,86515.0,-52.37876347381098,-11.339783434529247,-0.8198934225829423
62860.960256773855,2.079336819733726,PPG_2,PPG_1,86549.0,86549.0,-18.395972477388568,-11.62914946795845,-0.8407835432786481
62860.97035064191,2.0894306877889903,PPG_2,PPG_1,86528.0,86528.0,-39.41318148098071,-11.888007299765858,-0.8594711939520935
62860.98044450997,2.0995245558515307,PPG_2,PPG_1,86530.0,86530.0,-37.4303904845583,-12.09124523341544,-0.87414349295544
62860.99053837803,2.109618423906795,PPG_2,PPG_1,86541.0,86541.0,-26.447599488150445,-12.21183864662881,-0.8828494593305527
62861.00063224608,2.1197122919620597,PPG_2,PPG_1,86523.0,86523.0,-44.464808491728036,-12.222233027360248,-0.8835998579363035
62861.01072611414,2.129806160017324,PPG_2,PPG_1,86522.0,86522.0,-45.48201749532018,-12.097533639565496,-0.8745974700926371
62861.0208199822,2.139900028079865,PPG_2,PPG_1,86542.0,86542.0,-25.49922649889777,-11.81947477970886,-0.8545236449996286
62861.030913850256,2.149993896135129,PPG_2,PPG_1,86502.0,86502.0,-65.51643550248991,-11.379669718637059,-0.8227729218774553
62861.04100771831,2.1600877641903935,PPG_2,PPG_1,86544.0,86544.0,-23.533644506067503,-10.780771191251498,-0.7795368088710343
62861.05110158637,2.170181632245658,PPG_2,PPG_1,86545.0,86545.0,-22.550853509659646,-10.034739977016935,-0.7256787871694756
62861.06119545443,2.1802755003081984,PPG_2,PPG_1,86527.0,86527.0,-40.56806251323724,-9.158838823780412,-0.6624451014746561
62861.071289322485,2.190369368363463,PPG_2,PPG_1,86543.0,86543.0,-24.58527151682938,-8.171662525385448,-0.5911781605105697
62861.08138319054,2.2004632364187273,PPG_2,PPG_1,86550.0,86550.0,-17.60248052040697,-7.09125867265165,-0.5131808689271518
62861.091477058595,2.210557104473992,PPG_2,PPG_1,86508.0,86508.0,-59.61968952398456,-5.935821574936685,-0.42976672338450606
62861.10157092666,2.220650972536532,PPG_2,PPG_1,86533.0,86533.0,-34.636898527576705,-4.726072744731663,-0.3424316662080222
62861.11166479471,2.2307448405917967,PPG_2,PPG_1,86552.0,86552.0,-15.654107531154295,-3.4868447804709435,-0.2529684301947534
62861.12175866277,2.240838708647061,PPG_2,PPG_1,86542.0,86542.0,-25.67131653474644,-2.245477239606663,-0.1633507323292886
62861.13185253082,2.2509325767023256,PPG_2,PPG_1,86528.0,86528.0,-39.68852553832403,-1.0275797665502944,-0.07542740247043929
62861.14194639888,2.26102644475759,PPG_2,PPG_1,86578.0,86578.0,10.294265458083828,0.14749737411728406,0.00940461117126
62861.15204026694,2.2711203128201305,PPG_2,PPG_1,86525.0,86525.0,-42.72294354549376,1.2699717864161184,0.09043909083316222
62861.162134135,2.281214180875395,PPG_2,PPG_1,86545.0,86545.0,-22.740152549085906,2.340864628282266,0.1677497566830453
62861.17222800305,2.291308048930659,PPG_2,PPG_1,86546.0,86546.0,-21.757361552663497,3.3711602795899154,0.24212960096889324
62861.18232187111,2.301401916985924,PPG_2,PPG_1,86563.0,86563.0,-4.7745705562556395,4.380344537613167,0.3149853563748573
62861.19241573917,2.3114957850484643,PPG_2,PPG_1,86540.0,86540.0,-27.79177955983323,5.395194147382573,0.38825010892661016
62861.202509607225,2.321589653103729,PPG_2,PPG_1,86556.0,86556.0,-11.808988563425373,6.447884658103789,0.46424669900175697
62861.21260347528,2.3316835211589932,PPG_2,PPG_1,86572.0,86572.0,4.173802432997036,7.572470203055198,0.5454335870696987
62861.222697343335,2.3417773892142577,PPG_2,PPG_1,86503.0,86503.0,-64.8434065705951,8.799772900852902,0.6340359056740077
62861.2327912114,2.351871257276798,PPG_2,PPG_1,86579.0,86579.0,11.139384425827302,10.151784251919961,0.7316412810217859
62861.24288507945,2.3619651253320626,PPG_2,PPG_1,86549.0,86549.0,-18.87782457776484,11.638072293786566,0.838940455756384
62861.25297894751,2.372058993387327,PPG_2,PPG_1,86556.0,86556.0,-11.895033581342432,13.25601624784215,0.9557442287444045
62861.26307281557,2.3821528614425915,PPG_2,PPG_1,86586.0,86586.0,18.087757415079977,14.993733529341904,1.0811947638861703
62861.273166683626,2.392246729505132,PPG_2,PPG_1,86556.0,86556.0,-11.929451588512165,16.83292096511005,1.213970705346564
62861.28326055168,2.4023405975603964,PPG_2,PPG_1,86544.0,86544.0,-23.946660592089756,18.749463617989832,1.352331130247375
62861.29335441974,2.412434465615661,PPG_2,PPG_1,86569.0,86569.0,1.0361304043181008,20.711903005353328,1.4940049651968403
62861.30344828779,2.4225283336709253,PPG_2,PPG_1,86572.0,86572.0,4.01892140074051,22.68041277035537,1.6361170372124705
62861.31354215585,2.43262220172619,PPG_2,PPG_1,86566.0,86566.0,-1.998287602851633,24.60851689117086,1.7753121159174419
62861.32363602391,2.4427160697887302,PPG_2,PPG_1,86589.0,86589.0,20.984503393570776,26.4468547672443,1.9080267253536505
62861.333729891965,2.4528099378439947,PPG_2,PPG_1,86577.0,86577.0,8.967294389978633,28.146713384074143,2.0307441405609157
62861.34382376002,2.462903805899259,PPG_2,PPG_1,86557.0,86557.0,-11.049914613598958,29.661506260376203,2.1401011567937402
62861.35391762808,2.4729976739545236,PPG_2,PPG_1,86579.0,86579.0,10.9328763828089,30.946043623251214,2.2328354014823724
62861.36401149614,2.483091542017064,PPG_2,PPG_1,86601.0,86601.0,32.91566737923131,31.955330388660066,2.3056985571752047
62861.37410536419,2.4931854100723285,PPG_2,PPG_1,86568.0,86568.0,-0.10154162436083425,32.644068528733285,2.3554204360818587
62861.38419923225,2.503279278127593,PPG_2,PPG_1,86563.0,86563.0,-5.118750627938425,32.965784804185525,2.3786460087046195
62861.394293100304,2.5133731461828575,PPG_2,PPG_1,86590.0,86590.0,21.864040368469432,32.87106135946141,2.371807665691275
62861.40438696837,2.523467014245398,PPG_2,PPG_1,86552.0,86552.0,-16.15316863510816,32.306943000976936,2.331082427639839
62861.41448083642,2.5335608823006623,PPG_2,PPG_1,86574.0,86574.0,5.829622361299698,31.219966358949318,2.2526106285268805
62861.42457470448,2.543654750355927,PPG_2,PPG_1,86584.0,86584.0,15.812413357722107,29.563904977752774,2.1330550548380387
62861.43466857253,2.5537486184111913,PPG_2,PPG_1,86591.0,86591.0,22.795204354144516,27.311742848307773,1.970465347425421
62861.444762440595,2.5638424864737317,PPG_2,PPG_1,86585.0,86585.0,16.777995350552374,24.46877893468319,1.7652240529122414
62861.45485630865,2.573936354528996,PPG_2,PPG_1,86578.0,86578.0,9.760786346974783,21.081797231198617,1.5207086350470314
62861.464950176705,2.5840302225842606,PPG_2,PPG_1,86545.0,86545.0,-23.25642265661736,17.24062537933706,1.2434039954962115
62861.47504404476,2.594124090639525,PPG_2,PPG_1,86569.0,86569.0,0.7263683398050489,13.07228727195012,0.9424803344434795
62861.485137912816,2.6042179586947896,PPG_2,PPG_1,86577.0,86577.0,8.709159336212906,8.73077582724059,0.6290548193373339
62861.49523178088,2.61431182675733,PPG_2,PPG_1,86541.0,86541.0,-27.308049667364685,4.384576255448569,0.3152908555907953
62861.505325648934,2.6244056948125944,PPG_2,PPG_1,86526.0,86526.0,-42.32525867095683,0.20181527271429672,0.013325967953124043
62861.51541951699,2.634499562867859,PPG_2,PPG_1,86539.0,86539.0,-29.34246767453442,-3.6659303540404706,-0.2658971046573089
62861.52551338504,2.6445934309231234,PPG_2,PPG_1,86534.0,86534.0,-34.35967667812656,-7.09707283109779,-0.5136006088331956
62861.53560725311,2.654687298985664,PPG_2,PPG_1,86534.0,86534.0,-34.37688568170415,-10.007001592655369,-0.7236762777859451
62861.54570112116,2.6647811670409283,PPG_2,PPG_1,86534.0,86534.0,-34.394094685296295,-12.348232058553448,-0.8926960705704373
62861.55579498922,2.6748750350961927,PPG_2,PPG_1,86548.0,86548.0,-20.411303688873886,-14.10549445120308,-1.0195576204263122
62861.56588885727,2.684968903151457,PPG_2,PPG_1,86540.0,86540.0,-28.42851269246603,-15.288236829526342,-1.1049430084149963
62861.575982725335,2.6950627712139976,PPG_2,PPG_1,86526.0,86526.0,-42.44572169604362,-15.923417451116173,-1.1507984244475467
62861.58607659339,2.705156639269262,PPG_2,PPG_1,86541.0,86541.0,-27.462930699635763,-16.050702982869446,-1.1599875130549127
62861.596170461446,2.7152505073245266,PPG_2,PPG_1,86536.0,86536.0,-32.480139703213354,-15.720294887304034,-1.1361344543064384
62861.6062643295,2.725344375379791,PPG_2,PPG_1,86523.0,86523.0,-45.497348706790945,-14.992615758540518,-1.0836013195515777
62861.61635819756,2.735438243442331,PPG_2,PPG_1,86531.0,86531.0,-37.51455771038309,-13.939082121065388,-1.0075438618637316
62861.62645206562,2.745532111497596,PPG_2,PPG_1,86546.0,86546.0,-22.53176671396068,-12.642775668778746,-0.913959974612101
62861.636545933674,2.7556259795528604,PPG_2,PPG_1,86534.0,86534.0,-34.54897571755282,-11.197936631912908,-0.8096531162420799
62861.64663980173,2.765719847608125,PPG_2,PPG_1,86518.0,86518.0,-50.56618472113041,-9.708385637221705,-0.7021183800715992
62861.656733669784,2.7758137156633893,PPG_2,PPG_1,86534.0,86534.0,-34.583393724722555,-8.284812705983835,-0.5993467796861839
62861.66682753785,2.7859075837259297,PPG_2,PPG_1,86539.0,86539.0,-29.600602728300146,-7.039125055337627,-0.509417201349837
62861.6769214059,2.796001451781194,PPG_2,PPG_1,86559.0,86559.0,-9.617811731892289,-6.074253178128399,-0.4397604771934944
62861.68701527396,2.8060953198364587,PPG_2,PPG_1,86559.0,86559.0,-9.63502073546988,-5.471027225691279,-0.3962119556069876
62861.69710914201,2.816189187891723,PPG_2,PPG_1,86532.0,86532.0,-36.65222973906202,-5.2765446396841575,-0.38217172895441553
62861.707203010075,2.8262830559542635,PPG_2,PPG_1,86541.0,86541.0,-27.669438742639613,-5.497631152304141,-0.3981325654012203
62861.71729687813,2.836376924009528,PPG_2,PPG_1,86571.0,86571.0,2.313352253768244,-6.0996069809530775,-0.44159083715256076
62861.727390746186,2.8464707920647925,PPG_2,PPG_1,86531.0,86531.0,-37.70385674980935,-7.00906464280446,-0.5072470584393554
62861.73748461424,2.856564660120057,PPG_2,PPG_1,86546.0,86546.0,-22.72106575340149,-8.120801684091726,-0.5875063780946458
62861.747578482304,2.866658528182598,PPG_2,PPG_1,86538.0,86538.0,-30.73827475697908,-9.309358364593383,-0.673311516365796
62861.75767235036,2.876752396237862,PPG_2,PPG_1,86533.0,86533.0,-35.755483760571224,-10.443722327054033,-0.7552043349797672
62861.767766218414,2.8868462642931263,PPG_2,PPG_1,86519.0,86519.0,-49.772692764148815,-11.402612669321606,-0.8244292358657834
62861.77786008647,2.8969401323483908,PPG_2,PPG_1,86536.0,86536.0,-32.789901767726406,-12.087663622425225,-0.8738849267201981
62861.787953954525,2.9070340004036552,PPG_2,PPG_1,86545.0,86545.0,-23.80711077131855,-12.432073847153573,-0.8987488372426148
62861.79804782259,2.9171278684661957,PPG_2,PPG_1,86526.0,86526.0,-42.82431977489614,-12.403945852199744,-0.8967182008111365
62861.80814169064,2.92722173652146,PPG_2,PPG_1,86549.0,86549.0,-19.841528778488282,-12.005736553374012,-0.8679703888580893
62861.8182355587,2.9373156045767246,PPG_2,PPG_1,86513.0,86513.0,-55.85873778206587,-11.271489531573497,-0.8149631000477804
62861.82832942675,2.947409472631989,PPG_2,PPG_1,86550.0,86550.0,-18.875946785658016,-10.262058989904116,-0.7420895647557942
62861.838423294816,2.9575033406945295,PPG_2,PPG_1,86562.0,86562.0,-6.893155789235607,-9.057814194938606,-0.6551518588478896
62861.84851716287,2.967597208749794,PPG_2,PPG_1,86516.0,86516.0,-52.91036479282775,-7.749669877281963,-0.5607133639098342
62861.858611030926,2.9776910768050584,PPG_2,PPG_1,86549.0,86549.0,-19.92757379640534,-6.4305819421041965,-0.465484819468889
62861.86870489898,2.987784944860323,PPG_2,PPG_1,86552.0,86552.0,-16.944782799997483,-5.188244493275363,-0.3757971013104301
62861.87879876704,2.9978788129228633,PPG_2,PPG_1,86551.0,86551.0,-17.961991803575074,-4.098229576848272,-0.2971059609079658
62861.8888926351,3.007972680978128,PPG_2,PPG_1,86519.0,86519.0,-49.97920080716722,-3.217910423351047,-0.23355332776245213
62861.898986503154,3.018066549033392,PPG_2,PPG_1,86579.0,86579.0,10.003590189255192,-2.5820272921707073,-0.18764719565254565
62861.90908037121,3.0281604170886567,PPG_2,PPG_1,86542.0,86542.0,-27.01361881433695,-2.199668253920506,-0.16004365710490565
62861.91917423927,3.038254285151197,PPG_2,PPG_1,86542.0,86542.0,-27.030827817914542,-2.052966148717507,-0.1494528332694793
62861.92926810733,3.0483481532064616,PPG_2,PPG_1,86571.0,86571.0,1.9519631784933154,-2.0989000371073474,-0.1527689255596327
62861.93936197538,3.058442021261726,PPG_2,PPG_1,86533.0,86533.0,-36.065245825084276,-2.2747956056216836,-0.16546730488411301
62861.94945584344,3.0685358893169905,PPG_2,PPG_1,86543.0,86543.0,-26.082454828661866,-2.5070575066709844,-0.18223492300581998
62861.95954971149,3.078629757372255,PPG_2,PPG_1,86545.0,86545.0,-24.09966383225401,-2.7218942057595767,-0.19774456842149643
62861.96964357955,3.0887236254347954,PPG_2,PPG_1,86530.0,86530.0,-39.1168728358316,-2.855658990478481,-0.20740141191655953
62861.97973744761,3.09881749349006,PPG_2,PPG_1,86534.0,86534.0,-35.13408183942374,-2.8621599879817796,-0.207870736601551
62861.98983131567,3.1089113615453243,PPG_2,PPG_1,86552.0,86552.0,-17.151290843001334,-2.714983226154441,-0.19724564601389408
62861.99992518372,3.119005229600589,PPG_2,PPG_1,86560.0,86560.0,-9.168499846593477,-2.404167494242794,-0.1748070132662567
62862.010019051784,3.129099097663129,PPG_2,PPG_1,86562.0,86562.0,-7.185708850171068,-1.9291874505371482,-0.14051691251229181
62862.02011291984,3.1391929657183937,PPG_2,PPG_1,86560.0,86560.0,-9.20291785376321,-1.2926546868568831,-0.09456388166596325
62862.030206787895,3.149286833773658,PPG_2,PPG_1,86533.0,86533.0,-36.2201268573408,-0.498722409143289,-0.037247751956111186
62862.04030065595,3.1593807018289226,PPG_2,PPG_1,86543.0,86543.0,-26.237335860932944,0.4431886922910116,0.03075137137016495
62862.05039452401,3.169474569891463,PPG_2,PPG_1,86527.0,86527.0,-42.254544864510535,1.5126119218977425,0.10795594191538738
62862.06048839207,3.1795684379467275,PPG_2,PPG_1,86558.0,86558.0,-11.271753868102678,2.67509478227533,0.19187874022101015
62862.07058226012,3.189662306001992,PPG_2,PPG_1,86555.0,86555.0,-14.288962871680269,3.8852119575769515,0.27924038923149214
62862.08067612818,3.1997561740572564,PPG_2,PPG_1,86572.0,86572.0,2.693828124727588,5.094832831529384,0.36656620889820796
62862.09076999624,3.209850042119797,PPG_2,PPG_1,86573.0,86573.0,3.6766191211499972,6.262689751936333,0.4508769752086062
62862.100863864296,3.2199439101750613,PPG_2,PPG_1,86536.0,86536.0,-33.340589882442146,7.360609525944312,0.5301387887719463
62862.11095773235,3.230037778230326,PPG_2,PPG_1,86558.0,86558.0,-11.357798886019737,8.374277772548178,0.6033182555048311
62862.12105160041,3.2401316462855903,PPG_2,PPG_1,86567.0,86567.0,-2.3750078895973274,9.300270420747884,0.6701681824122366
62862.13114546846,3.2502255143408547,PPG_2,PPG_1,86557.0,86557.0,-12.39221689318947,10.142367051159932,0.7309614276949757
62862.141239336524,3.260319382403395,PPG_2,PPG_1,86557.0,86557.0,-12.409425896767061,10.908078538009878,0.7862402217843217
62862.15133320458,3.2704132504586596,PPG_2,PPG_1,86560.0,86560.0,-9.426634900359204,11.604853379541309,0.8365422920198184
62862.161427072635,3.280507118513924,PPG_2,PPG_1,86547.0,86547.0,-22.443843903936795,12.236337116881279,0.8821308199271026
62862.17152094069,3.2906009865691885,PPG_2,PPG_1,86566.0,86566.0,-3.461052907528938,12.80009553300448,0.9228300727608496
62862.18161480875,3.300694854631729,PPG_2,PPG_1,86560.0,86560.0,-9.478261911106529,13.28800138328104,0.9580533226344806
62862.19170867681,3.3107887226869934,PPG_2,PPG_1,86562.0,86562.0,-7.4954709146986715,13.689378384430329,0.9870298196307686
62862.20180254486,3.320882590742258,PPG_2,PPG_1,86577.0,86577.0,7.4873200817237375,13.995794719880132,1.0091508479865323
62862.21189641292,3.3309764587975224,PPG_2,PPG_1,86565.0,86565.0,-4.529888921868405,14.205748603686345,1.024307989691338
62862.22199028098,3.341070326860063,PPG_2,PPG_1,86571.0,86571.0,1.4529020745540038,14.32733867470993,1.0330859075035321
62862.23208414904,3.3511641949153272,PPG_2,PPG_1,86566.0,86566.0,-3.564306929038139,14.377478140575587,1.0367056118659932
62862.24217801709,3.3612580629705917,PPG_2,PPG_1,86569.0,86569.0,-0.58151593261573,14.377324197521332,1.0366944982983588
62862.25227188515,3.371351931025856,PPG_2,PPG_1,86542.0,86542.0,-27.598724936207873,14.344696820596367,1.0343390392492455
62862.26236575321,3.3814457990883966,PPG_2,PPG_1,86557.0,86557.0,-12.615933939785464,14.285427683082192,1.0300602390682823
62862.272459621265,3.391539667143661,PPG_2,PPG_1,86570.0,86570.0,0.36685705663694534,14.186710504569769,1.0229335775544022
62862.28255348932,3.4016335351989255,PPG_2,PPG_1,86565.0,86565.0,-4.6503519469551975,14.014763793548964,1.0105202769887258
62862.292647357375,3.41172740325419,PPG_2,PPG_1,86553.0,86553.0,-16.66756095053279,13.71637993447202,0.9889791349414063
62862.30274122543,3.4218212713094545,PPG_2,PPG_1,86557.0,86557.0,-12.684769954124931,13.222626397708908,0.9533337246813366
62862.31283509349,3.431915139371995,PPG_2,PPG_1,86570.0,86570.0,0.29802104229747783,12.454292593624034,0.8978656183811176
62862.32292896155,3.4420090074272593,PPG_2,PPG_1,86537.0,86537.0,-32.719187961294665,11.32967861022968,0.8166766772646596
62862.3330228296,3.452102875482524,PPG_2,PPG_1,86557.0,86557.0,-12.736396964872256,9.774934581876025,0.7044354787440945
62862.34311669766,3.4621967435377883,PPG_2,PPG_1,86587.0,86587.0,17.2463940315356,7.736874818369383,0.5573024032404974
62862.35321056572,3.4722906116003287,PPG_2,PPG_1,86567.0,86567.0,-2.7708149720419897,5.196878664884098,0.3739331750552618
62862.36330443378,3.482384479655593,PPG_2,PPG_1,86552.0,86552.0,-17.788023975634133,2.1815717038447966,0.15624996737455055
62862.37339830183,3.4924783477108576,PPG_2,PPG_1,86540.0,86540.0,-29.805232979211723,-1.2342225488791885,-0.09034550675721355
62862.38349216989,3.502572215766122,PPG_2,PPG_1,86546.0,86546.0,-23.822441982803866,-4.932517672744498,-0.3573354868537842
62862.39358603795,3.5126660838286625,PPG_2,PPG_1,86558.0,86558.0,-11.839650986381457,-8.76194651249284,-0.6337923664326783
62862.403679906005,3.522759951883927,PPG_2,PPG_1,86530.0,86530.0,-39.8568599899736,-12.55000519331332,-0.9072626217593691
62862.41377377406,3.5328538199391915,PPG_2,PPG_1,86517.0,86517.0,-52.87406899355119,-16.117713821858047,-1.1648252077138295
62862.423867642116,3.542947687994456,PPG_2,PPG_1,86530.0,86530.0,-39.891277997143334,-19.295971827202468,-1.3942722943221553
62862.43396151018,3.5530415560569963,PPG_2,PPG_1,86498.0,86498.0,-71.90848700072092,-21.940453537626393,-1.5851846189432077
62862.44405537823,3.563135424112261,PPG_2,PPG_1,86530.0,86530.0,-39.925696004298516,-23.941300654083253,-1.7296312122807256
62862.45414924629,3.5732292921675253,PPG_2,PPG_1,86552.0,86552.0,-17.94290500789066,-25.225789995064588,-1.822361990138289
62862.464243114344,3.5833231602227897,PPG_2,PPG_1,86540.0,86540.0,-29.96011401146825,-25.755821576975457,-1.8606264111120896
62862.4743369824,3.593417028278054,PPG_2,PPG_1,86494.0,86494.0,-75.97732301506039,-25.525405782472696,-1.8439920684412616
62862.48443085046,3.603510896340594,PPG_2,PPG_1,86528.0,86528.0,-41.99453201863798,-24.56186050546574,-1.7744311151603465
62862.49452471852,3.613604764395859,PPG_2,PPG_1,86528.0,86528.0,-42.011741022230126,-22.92887449990875,-1.6565414155773779
62862.50461858657,3.623698632451123,PPG_2,PPG_1,86522.0,86522.0,-48.02895002580772,-20.72730343469598,-1.497604014641132
62862.51471245463,3.633792500506388,PPG_2,PPG_1,86507.0,86507.0,-63.04615902939986,-18.09208499814367,-1.3073604309463112
62862.52480632269,3.643886368568928,PPG_2,PPG_1,86543.0,86543.0,-27.06336803297745,-15.185149731581443,-1.0975008705361362
62862.534900190745,3.653980236624193,PPG_2,PPG_1,86533.0,86533.0,-37.08057703656959,-12.183579006617247,-0.8808093190844337
62862.5449940588,3.664074104679458,PPG_2,PPG_1,86553.0,86553.0,-17.097786040147184,-9.263381556952009,-0.6699923256181834
62862.555087926856,3.674167972734722,PPG_2,PPG_1,86551.0,86551.0,-19.114995043739327,-6.581848654139138,-0.4764051746819884
62862.56518179492,3.6842618407972623,PPG_2,PPG_1,86554.0,86554.0,-16.132204047316918,-4.262432514907956,-0.30896021744943214
62862.57527566297,3.6943557088525263,PPG_2,PPG_1,86558.0,86558.0,-12.149413050909061,-2.3851942970359836,-0.1734372865746453
62862.58536953103,3.704449576907791,PPG_2,PPG_1,86541.0,86541.0,-29.166622054486652,-0.9843336120936926,-0.0723053450004682
62862.59546339909,3.714543444963056,PPG_2,PPG_1,86567.0,86567.0,-3.1838310580787947,-0.05268423789439458,-0.005047043663370231
62862.60555726714,3.72463731301832,PPG_2,PPG_1,86544.0,86544.0,-26.201040061656386,0.44806444636340076,0.03110336531308814
62862.6156511352,3.734731181080861,PPG_2,PPG_1,86516.0,86516.0,-54.21824906523398,0.5731516097092845,0.040133747728093666
62862.62574500326,3.744825049136125,PPG_2,PPG_1,86549.0,86549.0,-21.23545806882612,0.37952024453873556,0.026154973022054422
62862.63583887131,3.7549189171913895,PPG_2,PPG_1,86530.0,86530.0,-40.25266707240371,-0.08567895608912526,-0.00742902207749312
62862.64593273937,3.765012785246654,PPG_2,PPG_1,86539.0,86539.0,-31.269876075995853,-0.7888401488125315,-0.058192140369060924
62862.65602660743,3.7751066533091944,PPG_2,PPG_1,86569.0,86569.0,-1.287085079573444,-1.7051934276648641,-0.12434617499529316
62862.666120475486,3.785200521364459,PPG_2,PPG_1,86551.0,86551.0,-19.304294083165587,-2.8081481757271933,-0.20397147702494917
62862.67621434354,3.7952943894197233,PPG_2,PPG_1,86574.0,86574.0,3.678496913256822,-4.057520962334631,-0.2941670953456641
62862.6863082116,3.805388257474988,PPG_2,PPG_1,86530.0,86530.0,-40.33871209033532,-5.392088139342735,-0.3905131283400572
62862.69640207966,3.815482125537528,PPG_2,PPG_1,86551.0,86551.0,-19.35592109391291,-6.729549993006045,-0.48706813591237735
62862.706495947714,3.8255759935927927,PPG_2,PPG_1,86539.0,86539.0,-31.373130097505054,-7.973181428824717,-0.5768492705097875
62862.71658981577,3.835669861648057,PPG_2,PPG_1,86542.0,86542.0,-28.390339101082645,-9.02234931492802,-0.652591552736284
62862.726683683824,3.8457637297033216,PPG_2,PPG_1,86544.0,86544.0,-26.407548104674788,-9.784624879362221,-0.7076222982446843
62862.73677755189,3.855857597765862,PPG_2,PPG_1,86519.0,86519.0,-51.42475710825238,-10.18836006566872,-0.7367690390390198
62862.74687141994,3.8659514658211265,PPG_2,PPG_1,86514.0,86514.0,-56.44196611184452,-10.1941982003042,-0.7371905098513596
62862.756965288,3.876045333876391,PPG_2,PPG_1,86540.0,86540.0,-30.459175115422113,-9.8022733400293,-0.7088963886037343
62862.76705915605,3.8861392019316554,PPG_2,PPG_1,86543.0,86543.0,-27.476384119014256,-9.05157457882966,-0.654701403996413
62862.77715302411,3.89623306998692,PPG_2,PPG_1,86544.0,86544.0,-26.493593122591847,-8.011059388394393,-0.579583783395562
62862.78724689217,3.90632693804946,PPG_2,PPG_1,86554.0,86554.0,-16.510802126169438,-6.765937505696716,-0.4896950493856569
62862.797340760226,3.9164208061047248,PPG_2,PPG_1,86544.0,86544.0,-26.52801112976158,-5.403507626273874,-0.39133753214947287
62862.80743462828,3.926514674159989,PPG_2,PPG_1,86541.0,86541.0,-29.54522013333917,-4.001398893414969,-0.29011549060294195
62862.817528496336,3.9366085422152537,PPG_2,PPG_1,86567.0,86567.0,-3.562429136931314,-2.6191730916188245,-0.1903288519085122
62862.8276223644,3.946702410277794,PPG_2,PPG_1,86544.0,86544.0,-26.579638140508905,-1.2933703782525932,-0.09461554937367614
62862.837716232454,3.9567962783330586,PPG_2,PPG_1,86576.0,86576.0,5.403152855898952,-0.03664469345520729,-0.0038891053412114292
62862.84781010051,3.966890146388323,PPG_2,PPG_1,86538.0,86538.0,-32.61405614767864,1.157706124747193,0.08233432748393894
62862.857903968565,3.976984014443587,PPG_2,PPG_1,86529.0,86529.0,-41.63126515127078,2.3055634334347515,0.16520126744839697
62862.86799783663,3.987077882506128,PPG_2,PPG_1,86552.0,86552.0,-18.648474154848373,3.4188166540169442,0.2455700442092501
62862.87809170468,3.997171750561392,PPG_2,PPG_1,86530.0,86530.0,-40.665683158440515,4.494257393995951,0.3232090351889471
62862.88818557274,4.007265618616657,PPG_2,PPG_1,86556.0,86556.0,-14.682892162018106,5.508845429478402,0.3964549039817438
62862.89827944079,4.017359486671921,PPG_2,PPG_1,86549.0,86549.0,-21.70010116561025,6.422714071771672,0.4624295659394266
62862.908373308856,4.027453354734462,PPG_2,PPG_1,86577.0,86577.0,6.28268983081216,7.188694926177644,0.5177278064050116
62862.91846717691,4.037547222789726,PPG_2,PPG_1,86546.0,86546.0,-24.734519172779983,7.765307411459515,0.5593550294395917
62862.928561044966,4.047641090844991,PPG_2,PPG_1,86564.0,86564.0,-6.751728176357574,8.12953208120481,0.5856493986202589
62862.93865491302,4.057734958900255,PPG_2,PPG_1,86594.0,86594.0,23.231062820050283,8.28676512117716,0.5970004792687026
62862.94874878108,4.06782882695552,PPG_2,PPG_1,86556.0,86556.0,-14.786146183527308,8.275978900426214,0.5962217926665899
62862.95884264914,4.07792269501806,PPG_2,PPG_1,86528.0,86528.0,-42.8033551871049,8.167781490105483,0.5884107274431526
62862.968936517194,4.0880165630733245,PPG_2,PPG_1,86568.0,86568.0,-2.8205641906970413,8.055423965068687,0.5802993322276401
62862.97903038525,4.098110431128589,PPG_2,PPG_1,86568.0,86568.0,-2.8377731942746323,8.042860635857707,0.5793923513341087
62862.989124253305,4.108204299183853,PPG_2,PPG_1,86533.0,86533.0,-37.854982197866775,8.233662688294103,0.5931668702613964
62862.99921812137,4.118298167246394,PPG_2,PPG_1,86585.0,86585.0,14.127808798555634,8.72107997968549,0.628354849740789
62863.00931198942,4.128392035301658,PPG_2,PPG_1,86537.0,86537.0,-33.88940020503651,9.578571445545101,0.6902594900507155
62863.01940585748,4.138485903356923,PPG_2,PPG_1,86570.0,86570.0,-0.9066092086140998,10.851061931314398,0.7821240379274503
62863.02949972553,4.148579771412187,PPG_2,PPG_1,86557.0,86557.0,-13.923818212206243,12.547471208787979,0.9045924359483555
62863.0395935936,4.158673639474728,PPG_2,PPG_1,86556.0,86556.0,-14.941027215783834,14.635163018409907,1.0553085838030372
62863.04968746165,4.168767507529992,PPG_2,PPG_1,86562.0,86562.0,-8.958236219375976,17.03714533692218,1.228714218002841
62863.059781329706,4.178861375585257,PPG_2,PPG_1,86565.0,86565.0,-5.975445222953567,19.632952923401557,1.41611262527876
62863.06987519776,4.188955243640521,PPG_2,PPG_1,86567.0,86567.0,-3.99265422654571,22.26398709027676,1.6060541351691942
62863.079969065824,4.1990491117030615,PPG_2,PPG_1,86563.0,86563.0,-8.009863230123301,24.7434369172406,1.7850523594265482
62863.09006293388,4.209142979758326,PPG_2,PPG_1,86576.0,86576.0,4.972927766284556,26.870448922786125,1.938607139130616
62863.100156801935,4.21923684781359,PPG_2,PPG_1,86587.0,86587.0,15.955718762706965,28.44801199240739,2.05249570628181
62863.11025066999,4.229330715868855,PPG_2,PPG_1,86587.0,86587.0,15.938509759114822,29.302973699483154,2.114217716427099
62863.120344538045,4.239424583924119,PPG_2,PPG_1,86604.0,86604.0,32.92130075553723,29.30485172818433,2.114353296425113
62863.13043840611,4.24951845198666,PPG_2,PPG_1,86573.0,86573.0,1.9040917519596405,28.379260005674986,2.0475323134333507
62863.14053227416,4.259612320041924,PPG_2,PPG_1,86565.0,86565.0,-6.113117251632502,26.513095153870026,1.912808798961748
62863.15062614222,4.269706188097189,PPG_2,PPG_1,86565.0,86565.0,-6.130326255210093,23.75206506807663,1.7134825302453796
62863.16072001027,4.279800056152453,PPG_2,PPG_1,86577.0,86577.0,5.852464741197764,20.194267494217915,1.4566354502753602
62863.170813878336,4.289893924214994,PPG_2,PPG_1,86576.0,86576.0,4.835255737620173,15.983098613321147,1.1526197192325627
62863.18090774639,4.299987792270258,PPG_2,PPG_1,86555.0,86555.0,-16.18195326597197,11.299485522222767,0.8144969561510038
62863.19100161445,4.3100816603255225,PPG_2,PPG_1,86560.0,86560.0,-11.19916226954956,6.351575565668889,0.45729388376903485
62863.2010954825,4.320175528380787,PPG_2,PPG_1,86546.0,86546.0,-25.216371273141704,1.3612836369063428,0.09703114158315368
62863.21118935056,4.330269396443327,PPG_2,PPG_1,86563.0,86563.0,-8.233580276719294,-3.451170218135124,-0.2503929865459947
62863.22128321862,4.340363264498592,PPG_2,PPG_1,86529.0,86529.0,-42.25078928031144,-7.883674317169251,-0.570387508763089
62863.231377086675,4.350457132553856,PPG_2,PPG_1,86508.0,86508.0,-63.26799828388903,-11.768926965167308,-0.8508744608360163
62863.24147095473,4.360551000609121,PPG_2,PPG_1,86522.0,86522.0,-49.28520728748117,-14.989037470176925,-1.0833429931857852
62863.25156482279,4.370644868671661,PPG_2,PPG_1,86539.0,86539.0,-32.30241629105876,-17.483453091270732,-1.2634216388111108
62863.26165869085,4.380738736726926,PPG_2,PPG_1,86528.0,86528.0,-43.319625294650905,-19.247247349482738,-1.3907547418010873
62863.2717525589,4.39083260478219,PPG_2,PPG_1,86521.0,86521.0,-50.336834298228496,-20.321370408814474,-1.4682986058322836
62863.28184642696,4.400926472837455,PPG_2,PPG_1,86552.0,86552.0,-19.35404330182064,-20.7787265596328,-1.5013163898420154
62863.291940295014,4.411020340892719,PPG_2,PPG_1,86532.0,86532.0,-39.37125230539823,-20.70926386009033,-1.496301688703477
62863.30203416307,4.4211142089552595,PPG_2,PPG_1,86536.0,86536.0,-35.38846130897582,-20.20691815296141,-1.4600359863038885
62863.31212803113,4.431208077010524,PPG_2,PPG_1,86530.0,86530.0,-41.40567031256796,-19.360996996821193,-1.3989666381105264
62863.32222189919,4.4413019450657885,PPG_2,PPG_1,86533.0,86533.0,-38.422879316145554,-18.252752475796402,-1.3189594529886182
62863.33231576724,4.451395813121053,PPG_2,PPG_1,86510.0,86510.0,-61.4400883197377,-16.955806626626057,-1.2253294059375295
62863.342409635305,4.461489681183593,PPG_2,PPG_1,86537.0,86537.0,-34.45729732331529,-15.537985786289559,-1.122973064633349
62863.35250350336,4.471583549238858,PPG_2,PPG_1,86549.0,86549.0,-22.47450632690743,-14.062057802317165,-1.0164218106455634
62863.362597371415,4.481677417294122,PPG_2,PPG_1,86526.0,86526.0,-45.49171533048502,-12.584629726970606,-0.9097622609829555
62863.37269123947,4.491771285349387,PPG_2,PPG_1,86551.0,86551.0,-20.508924334077165,-11.154862636148458,-0.8065434873761687
62863.38278510753,4.501865153411927,PPG_2,PPG_1,86525.0,86525.0,-46.526133337654755,-9.81477772282301,-0.7097991139951365
62863.39287897559,4.511959021467192,PPG_2,PPG_1,86523.0,86523.0,-48.5433423412469,-8.600964665654699,-0.6221706492241548
62863.40297284364,4.522052889522456,PPG_2,PPG_1,86552.0,86552.0,-19.56055134482449,-7.54573646763005,-0.5459908566029854
62863.4130667117,4.532146757577721,PPG_2,PPG_1,86567.0,86567.0,-4.577760348416632,-6.675924606640073,-0.48319677347130807
62863.42316057976,4.542240625640261,PPG_2,PPG_1,86534.0,86534.0,-37.59496935199422,-6.010372274830611,-0.4351487411019189
62863.43325444782,4.5523344936955255,PPG_2,PPG_1,86514.0,86514.0,-57.612178355586366,-5.559439416980621,-0.4025946720755328
62863.44334831587,4.56242836175079,PPG_2,PPG_1,86571.0,86571.0,-0.6293873591639567,-5.327296712690972,-0.38583565909198303
62863.45344218393,4.572522229806054,PPG_2,PPG_1,86525.0,86525.0,-46.6465963627561,-5.314166138071381,-0.3848877272101496
62863.46353605198,4.582616097861319,PPG_2,PPG_1,86537.0,86537.0,-34.66380536633369,-5.516514160379656,-0.39949578109423284
62863.473629920045,4.592709965923859,PPG_2,PPG_1,86535.0,86535.0,-36.68101436991128,-5.925404144562848,-0.4290146607624022
62863.4837237881,4.602803833979124,PPG_2,PPG_1,86546.0,86546.0,-25.698223373503424,-6.522781213425257,-0.47214093554142145
62863.493817656155,4.612897702034388,PPG_2,PPG_1,86562.0,86562.0,-9.715432377081015,-7.275386157266938,-0.5264735326562938
62863.50391152421,4.622991570089653,PPG_2,PPG_1,86556.0,86556.0,-15.732641380673158,-8.128478065415154,-0.5880605569333031
62863.51400539227,4.633085438152193,PPG_2,PPG_1,86548.0,86548.0,-23.74985038425075,-9.003752514660423,-0.6512489991630807
62863.52409926033,4.643179306207458,PPG_2,PPG_1,86528.0,86528.0,-43.76705938784289,-9.804948756543212,-0.7090895341959261
62863.534193128384,4.653273174262722,PPG_2,PPG_1,86522.0,86522.0,-49.78426839142048,-10.430832719868675,-0.7542737991921651
62863.54428699644,4.6633670423179865,PPG_2,PPG_1,86519.0,86519.0,-52.801477395012625,-10.791133447427443,-0.780284888317782
62863.5543808645,4.673460910380527,PPG_2,PPG_1,86538.0,86538.0,-33.818686398590216,-10.819503893737199,-0.7823330279718332
62863.56447473256,4.683554778435791,PPG_2,PPG_1,86537.0,86537.0,-34.83589540218236,-10.479611372272942,-0.7577952627310026
62863.57456860061,4.693648646491056,PPG_2,PPG_1,86553.0,86553.0,-18.85310440575995,-9.76442901478975,-0.7061643038716983
62863.58466246867,4.70374251454632,PPG_2,PPG_1,86535.0,86535.0,-36.87031340935209,-8.69185646672395,-0.6287323754643953
62863.59475633672,4.713836382601585,PPG_2,PPG_1,86548.0,86548.0,-23.887522412929684,-7.300174653562659,-0.5282630816000519
62863.604850204785,4.723930250664125,PPG_2,PPG_1,86517.0,86517.0,-54.90473141652183,-5.644920055175332,-0.4087657517557274
62863.61494407284,4.73402411871939,PPG_2,PPG_1,86529.0,86529.0,-42.92194042009942,-3.7960067989875426,-0.2752876768762058
62863.625037940896,4.744117986774654,PPG_2,PPG_1,86579.0,86579.0,7.0608505763084395,-1.8322042775227985,-0.1335154335698161
62863.63513180895,4.754211854829919,PPG_2,PPG_1,86567.0,86567.0,-4.956358427269151,0.16808254793642238,0.010890710837235805
62863.64522567701,4.764305722892459,PPG_2,PPG_1,86533.0,86533.0,-38.97356743084674,2.1360295218776635,0.15296215343604289
62863.65531954507,4.7743995909477235,PPG_2,PPG_1,86535.0,86535.0,-36.990776434438885,4.016683437300769,0.2887316728038108
62863.66541341312,4.784493459002988,PPG_2,PPG_1,86563.0,86563.0,-9.007985438016476,5.768495438638279,0.4151997440920743
62863.67550728118,4.794587327058252,PPG_2,PPG_1,86545.0,86545.0,-27.02519444160862,7.362471349611078,0.5302731988844669
62863.68560114924,4.804681195120793,PPG_2,PPG_1,86561.0,86561.0,-11.04240344518621,8.783478334445974,0.6328595566226315
62863.6956950173,4.814775063176057,PPG_2,PPG_1,86579.0,86579.0,6.940387551221647,10.032671661411058,0.7230422192638414
62863.70578888535,4.824868931231322,PPG_2,PPG_1,86549.0,86549.0,-23.076821452355944,11.128621393915745,0.802161810174814
62863.71588275341,4.834962799286586,PPG_2,PPG_1,86560.0,86560.0,-12.094030455948086,12.10499220285459,0.8726486734765727
62863.72597662147,4.845056667349127,PPG_2,PPG_1,86560.0,86560.0,-12.111239459525677,13.004351600396635,0.9375758736072239
62863.736070489525,4.855150535404391,PPG_2,PPG_1,86558.0,86558.0,-14.12844846311782,13.869794113879557,1.0000545216627723
62863.74616435758,4.865244403459656,PPG_2,PPG_1,86538.0,86538.0,-34.14565746669541,14.736555798299225,1.0626284042548706
62863.75625822563,4.87533827151492,PPG_2,PPG_1,86554.0,86554.0,-18.162866470287554,15.625688342279444,1.1268173000216264
62863.76635209369,4.8854321395701845,PPG_2,PPG_1,86596.0,86596.0,23.819924526134855,16.542033556880146,1.1929707524676079
62863.776445961754,4.895526007632725,PPG_2,PPG_1,86557.0,86557.0,-15.197284477457288,17.476733751975335,1.2604493008599005
62863.78653982981,4.905619875687989,PPG_2,PPG_1,86574.0,86574.0,1.7855065189651214,18.410862637964566,1.327886604894531
62863.796633697864,4.915713743743254,PPG_2,PPG_1,86557.0,86557.0,-15.231702484627021,19.316395867015316,1.3932595107075092
62863.80672756592,4.925807611798518,PPG_2,PPG_1,86559.0,86559.0,-13.248911488204612,20.1542365648751,1.4537455086480637
62863.81682143398,4.935901479861059,PPG_2,PPG_1,86543.0,86543.0,-29.266120491782203,20.87198544692769,1.5055617518940252
62863.82691530204,4.945995347916323,PPG_2,PPG_1,86597.0,86597.0,24.716670504625654,21.404621055548805,1.544014164635993
62863.83700917009,4.956089215971588,PPG_2,PPG_1,86568.0,86568.0,-4.300538498951937,21.67936586469253,1.5638487393976341
62863.84710303815,4.966183084026852,PPG_2,PPG_1,86545.0,86545.0,-27.31774750254408,21.62275973897631,1.5597621892786913
62863.85719690621,4.976276952089393,PPG_2,PPG_1,86581.0,86581.0,8.66504349387833,21.167206008462152,1.5268745268912254
62863.867290774266,4.986370820144657,PPG_2,PPG_1,86573.0,86573.0,0.6478344902861863,20.256775284672205,1.4611480576174776
62863.87738464232,4.9964646881999215,PPG_2,PPG_1,86566.0,86566.0,-6.369374513291405,18.852796174412507,1.3597909884411103
62863.887478510376,5.006558556255186,PPG_2,PPG_1,86558.0,86558.0,-14.386583516883547,16.93789755073982,1.221549250478626
62863.89757237844,5.016652424317726,PPG_2,PPG_1,86549.0,86549.0,-23.40379252046114,14.517290870927313,1.0467990729997387
62863.907666246494,5.026746292372991,PPG_2,PPG_1,86542.0,86542.0,-30.42100152405328,11.618583860441774,0.8375335327671226
62863.91776011455,5.036840160428255,PPG_2,PPG_1,86564.0,86564.0,-8.438210527630872,8.292819188691286,0.5974375388626407
62863.927853982605,5.04693402848352,PPG_2,PPG_1,86570.0,86570.0,-2.455419531223015,4.618044026087924,0.3321455287167852
62863.93794785066,5.057027896538784,PPG_2,PPG_1,86537.0,86537.0,-35.472628534800606,0.7034603720892666,0.04954109157410828
62863.94804171872,5.067121764601325,PPG_2,PPG_1,86573.0,86573.0,0.5101624616072513,-3.3098346164428594,-0.2401895851897191
62863.95813558678,5.077215632656589,PPG_2,PPG_1,86537.0,86537.0,-35.50704654197034,-7.254499016337553,-0.5249656331636264
62863.96822945483,5.087309500711854,PPG_2,PPG_1,86511.0,86511.0,-61.52425554556248,-10.949715705934072,-0.7917333727205362
62863.97832332289,5.097403368767118,PPG_2,PPG_1,86509.0,86509.0,-63.54146454914007,-14.219104426873441,-1.0277594334582854
62863.98841719095,5.1074972368296585,PPG_2,PPG_1,86557.0,86557.0,-15.558673552717664,-16.908730602289893,-1.2219308597481162
62863.998511059006,5.117591104884923,PPG_2,PPG_1,86520.0,86520.0,-52.57588255630981,-18.900634733811682,-1.3657318346885488
62864.00860492706,5.127684972940187,PPG_2,PPG_1,86495.0,86495.0,-77.5930915598874,-20.121886398814308,-1.4538973127835386
62864.01869879512,5.137778840995452,PPG_2,PPG_1,86549.0,86549.0,-23.61030056347954,-20.551053025853715,-1.4848800184286213
62864.02879266318,5.147872709057992,PPG_2,PPG_1,86508.0,86508.0,-64.62750956705713,-20.22161585605284,-1.4610970534508891
62864.038886531234,5.157966577113257,PPG_2,PPG_1,86518.0,86518.0,-54.644718570649275,-19.221177979293817,-1.3888727230884768
62864.04898039929,5.168060445168521,PPG_2,PPG_1,86502.0,86502.0,-70.66192757422687,-17.686435526628053,-1.2780754926980777
62864.059074267345,5.178154313223786,PPG_2,PPG_1,86549.0,86549.0,-23.67913657781901,-15.793174099208409,-1.1413958027613627
62864.06916813541,5.188248181286326,PPG_2,PPG_1,86524.0,86524.0,-48.6963455813966,-13.740407647868,-0.9932010114777874
62864.07926200346,5.198342049341591,PPG_2,PPG_1,86538.0,86538.0,-34.71355458498874,-11.730489144272081,-0.8480995300389721
62864.08935587152,5.208435917396855,PPG_2,PPG_1,86557.0,86557.0,-15.730763588566333,-9.94915638397677,-0.7195002748990691
62864.09944973957,5.2185297854521195,PPG_2,PPG_1,86506.0,86506.0,-66.74797259215848,-8.548905626084474,-0.6184123656169305
62864.10954360763,5.228623653507384,PPG_2,PPG_1,86545.0,86545.0,-27.765181595736067,-7.637140021758164,-0.5525895276879244
62864.11963747569,5.238717521569924,PPG_2,PPG_1,86552.0,86552.0,-20.78239059932821,-7.268423610636844,-0.5259708874849568
62864.129731343746,5.248811389625189,PPG_2,PPG_1,86543.0,86543.0,-29.7995996029058,-7.439995447738252,-0.5383571248831664
62864.1398252118,5.258905257680453,PPG_2,PPG_1,86534.0,86534.0,-38.81680860649794,-8.09196273296116,-0.5854244158037867
62864.14991907986,5.268999125735718,PPG_2,PPG_1,86554.0,86554.0,-18.834017610075534,-9.114406298063841,-0.659237396637864
62864.16001294792,5.279092993798258,PPG_2,PPG_1,86523.0,86523.0,-49.851226613653125,-10.361749633046758,-0.7492865033280329
62864.170106815975,5.289186861853523,PPG_2,PPG_1,86506.0,86506.0,-66.86843561724527,-11.672869155631306,-0.8439397863989657
62864.18020068403,5.299280729908787,PPG_2,PPG_1,86527.0,86527.0,-45.88564462082286,-12.893636873380185,-0.9320703270259283
62864.190294552085,5.309374597964052,PPG_2,PPG_1,86515.0,86515.0,-57.902853624415,-13.896855072316633,-1.0044953764056042
62864.20038842015,5.319468466026592,PPG_2,PPG_1,86523.0,86523.0,-49.92006262799259,-14.595440458248037,-1.0549281547639313
62864.2104822882,5.3295623340818565,PPG_2,PPG_1,86537.0,86537.0,-35.937271631584736,-14.947895489425296,-1.080372841736506
62864.22057615626,5.339656202137121,PPG_2,PPG_1,86510.0,86510.0,-62.95448063516233,-14.95750294449184,-1.081066430038976
62864.23067002431,5.3497500701923855,PPG_2,PPG_1,86513.0,86513.0,-59.97168963875447,-14.667028811654243,-1.0600963126342238
62864.240763892376,5.359843938254926,PPG_2,PPG_1,86531.0,86531.0,-41.98889864233206,-14.149345623528248,-1.022723355781167
62864.25085776043,5.36993780631019,PPG_2,PPG_1,86532.0,86532.0,-41.0061076459242,-13.493349876752518,-0.9753652392682713
62864.26095162849,5.380031674365455,PPG_2,PPG_1,86553.0,86553.0,-20.023316649501794,-12.786254284431317,-0.9243180859727017
62864.27104549654,5.390125542420719,PPG_2,PPG_1,86548.0,86548.0,-25.040525653093937,-12.096483805868948,-0.8745216797437444
62864.2811393646,5.400219410475984,PPG_2,PPG_1,86513.0,86513.0,-60.05773465667153,-11.462508306086384,-0.8287532647310044
62864.29123323266,5.410313278538524,PPG_2,PPG_1,86530.0,86530.0,-43.07494366026367,-10.890352542456727,-0.7874477845496494
62864.301327100715,5.420407146593789,PPG_2,PPG_1,86546.0,86546.0,-27.09215266384126,-10.35811787597714,-0.7490243169109794
62864.31142096877,5.430501014649053,PPG_2,PPG_1,86514.0,86514.0,-59.109361667433404,-9.824075322320962,-0.7104703329816596
62864.321514836825,5.440594882704318,PPG_2,PPG_1,86509.0,86509.0,-64.126570671011,-9.236303413478636,-0.6680374808194666
62864.33160870489,5.450688750766858,PPG_2,PPG_1,86541.0,86541.0,-32.143779674588586,-8.542084671484565,-0.6179199423592197
62864.34170257294,5.4607826188221225,PPG_2,PPG_1,86531.0,86531.0,-42.16098867818073,-7.694349439967636,-0.5567196311322161
62864.351796441,5.470876486877387,PPG_2,PPG_1,86545.0,86545.0,-28.17819768175832,-6.6543040869976116,-0.48163592937539795
62864.361890309054,5.480970354932651,PPG_2,PPG_1,86521.0,86521.0,-52.19540668535046,-5.392468066131802,-0.39054055628792345
62864.37198417712,5.491064222995192,PPG_2,PPG_1,86537.0,86537.0,-36.212615688928054,-3.8903570299870274,-0.28209907657605754
62864.38207804517,5.501158091050456,PPG_2,PPG_1,86555.0,86555.0,-18.229824692520197,-2.1428810560845726,-0.155944034897333
62864.39217191323,5.511251959105721,PPG_2,PPG_1,86502.0,86502.0,-71.24703369609779,-0.16070033432726802,-0.01284501934427818
62864.40226578128,5.521345827160985,PPG_2,PPG_1,86568.0,86568.0,-5.26424269968993,2.0278780333831827,0.14515440343409697
62864.41235964934,5.53143969521625,PPG_2,PPG_1,86547.0,86547.0,-26.28145170326752,4.376018588407276,0.3146730543400828
62864.4224535174,5.54153356327879,PPG_2,PPG_1,86519.0,86519.0,-54.298660706859664,6.818534734319822,0.49100493574525467
62864.432547385455,5.551627431334055,PPG_2,PPG_1,86534.0,86534.0,-39.315869710437255,9.27268156969861,0.6681764682450789
62864.44264125351,5.561721299389319,PPG_2,PPG_1,86575.0,86575.0,1.6669212859706022,11.640949360284523,0.8391481590091798
62864.452735121566,5.5718151674445835,PPG_2,PPG_1,86537.0,86537.0,-36.35028771760699,13.817894812151645,0.9963077699646874
62864.46282898963,5.581909035507124,PPG_2,PPG_1,86542.0,86542.0,-31.36749672119913,15.700088455680474,1.1321884464906953
62864.47292285768,5.592002903562388,PPG_2,PPG_1,86578.0,86578.0,4.6152942752232775,17.19679685615313,1.2402398952444422
62864.48301672574,5.602096771617653,PPG_2,PPG_1,86553.0,86553.0,-20.401914728354313,18.240352586750625,1.3155770207063728
62864.493110593794,5.612190639672917,PPG_2,PPG_1,86556.0,86556.0,-17.419123731946456,18.79499900832024,1.3556184538791622
62864.50320446186,5.622284507735458,PPG_2,PPG_1,86572.0,86572.0,-1.4363327355240472,18.86212228791364,1.3604642659310482
62864.51329832991,5.632378375790722,PPG_2,PPG_1,86537.0,86537.0,-36.45354173911619,18.48085309239025,1.3329394060929745
62864.52339219797,5.642472243845987,PPG_2,PPG_1,86561.0,86561.0,-12.470750742693781,17.72455778754841,1.2783403917839673
62864.53348606602,5.652566111901251,PPG_2,PPG_1,86542.0,86542.0,-31.487959746285924,16.694638014535677,1.2039876831741856
62864.543579934085,5.662659979963792,PPG_2,PPG_1,86558.0,86558.0,-15.505168749863515,15.51342957874635,1.1187130346675838
62864.55367380214,5.672753848019056,PPG_2,PPG_1,86559.0,86559.0,-14.522377753455658,14.317184831251526,1.032352873937506
62864.563767670195,5.6828477160743205,PPG_2,PPG_1,86571.0,86571.0,-2.5395867570332484,13.248378211676766,0.9551928181469611
62864.57386153825,5.692941584129585,PPG_2,PPG_1,86532.0,86532.0,-41.55679576062539,12.445214432024663,0.8972102412131114
62864.583955406306,5.703035452184849,PPG_2,PPG_1,86529.0,86529.0,-44.57400476420298,12.027066499003343,0.8670230050473559
62864.59404927437,5.71312932024739,PPG_2,PPG_1,86535.0,86535.0,-38.591213767795125,12.078214844407613,0.8707155431667004
62864.604143142424,5.723223188302654,PPG_2,PPG_1,86535.0,86535.0,-38.608422771372716,12.635357995747372,0.9109372220498269
62864.61423701048,5.733317056357919,PPG_2,PPG_1,86543.0,86543.0,-30.62563177496486,13.683389561236554,0.9865974702017062
62864.624330878534,5.743410924413183,PPG_2,PPG_1,86571.0,86571.0,-2.6428407785424497,15.160197101289805,1.0932122217343485
62864.6344247466,5.753504792475724,PPG_2,PPG_1,86570.0,86570.0,-3.6600497821345925,16.967583654089104,1.2236923709914334
62864.64451861465,5.763598660530988,PPG_2,PPG_1,86534.0,86534.0,-39.67725878571218,18.983151426640983,1.3692016885156866
62864.65461248271,5.773692528586253,PPG_2,PPG_1,86554.0,86554.0,-19.694467789289774,21.069044899786203,1.51978800957071
62864.66470635076,5.783786396641517,PPG_2,PPG_1,86551.0,86551.0,-22.711676792881917,23.077804100602304,1.6648057977898814
62864.674800218825,5.7938802647040575,PPG_2,PPG_1,86565.0,86565.0,-8.728885796459508,24.858415755982236,1.793352994405368
62864.68489408688,5.803974132759322,PPG_2,PPG_1,86546.0,86546.0,-27.74609480005165,26.26423366038174,1.894842811130091
62864.694987954936,5.814068000814586,PPG_2,PPG_1,86586.0,86586.0,12.236696196370758,27.16202567327278,1.9596568575013045
62864.70508182299,5.824161868869851,PPG_2,PPG_1,86541.0,86541.0,-32.780512807221385,27.440589708611512,1.9797671525858611
62864.71517569105,5.834255736932391,PPG_2,PPG_1,86556.0,86556.0,-17.797721810798976,27.01764366152929,1.9492335275207031
62864.72526955911,5.844349604987656,PPG_2,PPG_1,86569.0,86569.0,-4.8149308143911185,25.84484160679343,1.8645657585180289
62864.73536342717,5.85444347304292,PPG_2,PPG_1,86544.0,86544.0,-29.83213981796871,23.91179522107002,1.7250138842720844
62864.74545729522,5.864537341098185,PPG_2,PPG_1,86569.0,86569.0,-4.849348821560852,21.249283944991255,1.532799956286749
62864.755551163275,5.874631209153449,PPG_2,PPG_1,86562.0,86562.0,-11.866557825138443,17.930493218311945,1.2932074304380565
62864.76564503134,5.88472507721599,PPG_2,PPG_1,86549.0,86549.0,-24.883766828730586,14.068452900364507,1.0143962395822959
62864.77573889939,5.894818945271254,PPG_2,PPG_1,86532.0,86532.0,-41.90097583230818,9.80800194642626,0.7068227016961358
62864.78583276745,5.9049128133265185,PPG_2,PPG_1,86532.0,86532.0,-41.91818483590032,5.312442981442208,0.38227607726947876
62864.7959266355,5.915006681381783,PPG_2,PPG_1,86513.0,86513.0,-60.93539383947791,0.7478107361080515,0.05274286493455205
62864.806020503565,5.925100549444323,PPG_2,PPG_1,86511.0,86511.0,-62.95260284307005,-3.731060848863076,-0.2705990521585112
62864.81611437162,5.935194417499588,PPG_2,PPG_1,86544.0,86544.0,-29.969811846647644,-7.9892917434107025,-0.578012317921257
62864.82620823968,5.945288285554852,PPG_2,PPG_1,86514.0,86514.0,-59.987020850225235,-11.91466022881943,-0.8613953413657512
62864.83630210773,5.955382153610117,PPG_2,PPG_1,86527.0,86527.0,-47.00422985381738,-15.416704602056852,-1.1142174461984047
62864.846395975794,5.965476021672657,PPG_2,PPG_1,86489.0,86489.0,-85.02143885739497,-18.42579669813596,-1.3314519858803624
62864.85648984385,5.975569889727922,PPG_2,PPG_1,86509.0,86509.0,-65.03864786098711,-20.89331468511311,-1.50958881816821
62864.866583711904,5.985663757783186,PPG_2,PPG_1,86518.0,86518.0,-56.0558568645647,-22.791206019967472,-1.646602753710655
62864.87667757996,5.995757625838451,PPG_2,PPG_1,86495.0,86495.0,-79.07306586815685,-24.10945077798708,-1.7417704269000818
62864.88677144802,6.005851493900991,PPG_2,PPG_1,86512.0,86512.0,-62.09027487173444,-24.852145291003254,-1.795387563068699
62864.89686531608,6.0159453619562555,PPG_2,PPG_1,86510.0,86510.0,-64.10748387532658,-25.033804006096915,-1.8085019996138643
62864.90695918413,6.02603923001152,PPG_2,PPG_1,86519.0,86519.0,-55.12469287890417,-24.67703467680812,-1.782745851730694
62864.91705305219,6.036133098066784,PPG_2,PPG_1,86488.0,86488.0,-86.14190188249631,-23.812798373226364,-1.720354283247413
62864.92714692024,6.046226966122049,PPG_2,PPG_1,86511.0,86511.0,-63.159110886073904,-22.483957786949304,-1.6244216684076274
62864.937240788306,6.056320834184589,PPG_2,PPG_1,86487.0,86487.0,-87.17631988966605,-20.7507305311291,-1.4992952804273687
62864.94733465636,6.066414702239854,PPG_2,PPG_1,86507.0,86507.0,-67.19352889324364,-18.69505234623232,-1.350890283181796
62864.957428524416,6.076508570295118,PPG_2,PPG_1,86517.0,86517.0,-57.21073789683578,-16.421315735065917,-1.18674305527596
62864.96752239247,6.086602438350383,PPG_2,PPG_1,86493.0,86493.0,-81.22794690041337,-14.052744052542181,-1.0157494257266313
62864.977616260534,6.096696306412923,PPG_2,PPG_1,86525.0,86525.0,-49.245155904005514,-11.724139669053491,-0.8476411441596798
62864.98771012859,6.106790174468188,PPG_2,PPG_1,86508.0,86508.0,-66.2623649075831,-9.571902598056253,-0.6922652983975174
62864.997803996645,6.116884042523452,PPG_2,PPG_1,86519.0,86519.0,-55.279573911160696,-7.721972446161692,-0.5587138110521382
62865.0078978647,6.1269779105787165,PPG_2,PPG_1,86546.0,86546.0,-28.29678291475284,-6.276869294642597,-0.4543878855272108
62865.01799173276,6.137071778641257,PPG_2,PPG_1,86529.0,86529.0,-45.31399191833043,-5.3042080727133945,-0.3841688273974839
62865.02808560082,6.147165646696521,PPG_2,PPG_1,86520.0,86520.0,-54.33120092192257,-4.83013749902453,-0.34994438375674175
62865.03817946887,6.157259514751786,PPG_2,PPG_1,86505.0,86505.0,-69.34840992550016,-4.840093966453534,-0.35066316821056964
62865.04827333693,6.16735338280705,PPG_2,PPG_1,86526.0,86526.0,-48.36561892909231,-5.2855924435664035,-0.3828249145162843
62865.05836720499,6.177447250869591,PPG_2,PPG_1,86521.0,86521.0,-53.3828279326699,-6.093298576607239,-0.44113541629123804
62865.068461073046,6.187541118924855,PPG_2,PPG_1,86516.0,86516.0,-58.40003693626204,-7.173984476308194,-0.5191530696120579
62865.0785549411,6.19763498698012,PPG_2,PPG_1,86498.0,86498.0,-76.41724593983963,-8.431273457432415,-0.6099201795378744
62865.08864880916,6.207728855035384,PPG_2,PPG_1,86530.0,86530.0,-44.434454943431774,-9.769989097083341,-0.7065657013294949
62865.09874267721,6.217822723090649,PPG_2,PPG_1,86487.0,86487.0,-87.45166394700937,-11.102784217333522,-0.8027838047285794
62865.108836545274,6.227916591153189,PPG_2,PPG_1,86525.0,86525.0,-49.46887295060151,-12.353932353971032,-0.8931075903948733
62865.11893041333,6.2380104592084535,PPG_2,PPG_1,86530.0,86530.0,-44.4860819541791,-13.460312113492483,-0.9729801533138511
62865.129024281385,6.248104327263718,PPG_2,PPG_1,86480.0,86480.0,-94.50329095777124,-14.370946483900049,-1.038721324390609
62865.13911814944,6.2581981953189825,PPG_2,PPG_1,86522.0,86522.0,-52.52049996134883,-15.046918212423593,-1.0875215613375506
62865.1492120175,6.268292063381523,PPG_2,PPG_1,86510.0,86510.0,-64.53770896494098,-15.461853149215466,-1.117476842569852
62865.15930588556,6.278385931436787,PPG_2,PPG_1,86507.0,86507.0,-67.55491796851857,-15.60196104273926,-1.127591612335493
62865.16939975361,6.288479799492052,PPG_2,PPG_1,86497.0,86497.0,-77.57212697209616,-15.465694486636913,-1.1177541591623212
62865.17949362167,6.298573667547316,PPG_2,PPG_1,86497.0,86497.0,-77.5893359756883,-15.06330410209634,-1.0887045032637803
62865.18958748973,6.308667535609857,PPG_2,PPG_1,86521.0,86521.0,-53.60654497926589,-14.415054881536463,-1.0419056295400395
62865.199681357786,6.318761403665121,PPG_2,PPG_1,86519.0,86519.0,-55.623753982858034,-13.54705715632201,-0.9792425138023579
62865.20977522584,6.328855271720386,PPG_2,PPG_1,86517.0,86517.0,-57.640962986435625,-12.486282468704808,-0.9026623050174364
62865.2198690939,6.33894913977565,PPG_2,PPG_1,86501.0,86501.0,-73.65817199002777,-11.257939508089795,-0.8139848870120288
62865.22996296195,6.349043007830915,PPG_2,PPG_1,86514.0,86514.0,-60.67538099360536,-9.886694825271146,-0.714991005152585
62865.240056830015,6.359136875893455,PPG_2,PPG_1,86517.0,86517.0,-57.6925899971975,-8.400404669380071,-0.6076916778008128
62865.25015069807,6.3692307439487195,PPG_2,PPG_1,86498.0,86498.0,-76.70979900077509,-6.834260658616859,-0.4946274835552747
62865.260244566125,6.379324612003984,PPG_2,PPG_1,86501.0,86501.0,-73.72700800436724,-5.233882602929408,-0.3790918405294688
62865.27033843418,6.389418480059248,PPG_2,PPG_1,86518.0,86518.0,-56.744217007944826,-3.655592708116958,-0.2651508018915958
62865.28043230224,6.399512348121789,PPG_2,PPG_1,86521.0,86521.0,-53.76142601153697,-2.1619554363261377,-0.1573210662673247
62865.2905261703,6.409606216177053,PPG_2,PPG_1,86517.0,86517.0,-57.77863501511456,-0.8126635101749227,-0.05991201359792601
62865.30062003835,6.419700084232318,PPG_2,PPG_1,86531.0,86531.0,-43.7958440187067,0.34680582393731996,0.023793230053279685
62865.31071390641,6.429793952287582,PPG_2,PPG_1,86551.0,86551.0,-23.813053022284294,1.2957265207350215,0.09229839512686867
62865.32080777447,6.439887820350123,PPG_2,PPG_1,86528.0,86528.0,-46.830262025876436,2.0446029106275057,0.1463618177947747
62865.33090164253,6.449981688405387,PPG_2,PPG_1,86502.0,86502.0,-72.84747102945403,2.634337348096587,0.18893635023435149
62865.34099551058,6.460075556460652,PPG_2,PPG_1,86519.0,86519.0,-55.86468003303162,3.1276425059620214,0.2245493908027236
62865.35108937864,6.470169424515916,PPG_2,PPG_1,86528.0,86528.0,-46.88188903662376,3.5966648557035703,0.2584093894313521
62865.3611832467,6.4802632925784565,PPG_2,PPG_1,86530.0,86530.0,-44.89909804020135,4.111442780225537,0.29557260740586205
62865.371277114755,6.490357160633721,PPG_2,PPG_1,86510.0,86510.0,-64.9163070437935,4.730377014244525,0.3402551525482043
62865.38137098281,6.500451028688985,PPG_2,PPG_1,86490.0,86490.0,-84.93351604737109,5.492114885269261,0.3952470805074683
62865.391464850865,6.51054489674425,PPG_2,PPG_1,86520.0,86520.0,-54.95072505096323,6.410710316889126,0.46156298223806275
62865.40155871892,6.520638764799514,PPG_2,PPG_1,86539.0,86539.0,-35.96793405454082,7.4780988606262575,0.5386206632783558
62865.41165258698,6.530732632862055,PPG_2,PPG_1,86559.0,86559.0,-15.985143058132962,8.674907298752888,0.625021518367733
62865.42174645504,6.540826500917319,PPG_2,PPG_1,86537.0,86537.0,-38.00235206171055,9.984418077376766,0.7195586618382136
62865.431840323094,6.550920368972584,PPG_2,PPG_1,86533.0,86533.0,-42.019561065302696,11.401870361444855,0.8218883960633291
62865.44193419115,6.561014237027848,PPG_2,PPG_1,86525.0,86525.0,-50.03677006888029,12.934894155123935,0.9325615517887058
62865.45202805921,6.571108105090389,PPG_2,PPG_1,86528.0,86528.0,-47.05397907247243,14.596597387767982,1.0525244260728834
62865.46212192727,6.581201973145653,PPG_2,PPG_1,86520.0,86520.0,-55.07118807605002,16.39578002620791,1.1824123124471635
62865.47221579532,6.5912958412009175,PPG_2,PPG_1,86543.0,86543.0,-32.088397079642164,18.328374186537058,1.3219315393123638
62865.48230966338,6.601389709256182,PPG_2,PPG_1,86538.0,86538.0,-37.105606083219755,20.372284200206586,1.4694869602811647
62865.49240353144,6.611483577318722,PPG_2,PPG_1,86537.0,86537.0,-38.1228150868119,22.485573264851297,1.6220510435710034
62865.502497399495,6.621577445373987,PPG_2,PPG_1,86569.0,86569.0,-6.140024090389488,24.606479042123475,1.7751649980541078
62865.51259126755,6.631671313429251,PPG_2,PPG_1,86490.0,86490.0,-85.15723309396708,26.653739078122214,1.922962266243058
62865.522685135606,6.641765181484516,PPG_2,PPG_1,86542.0,86542.0,-33.17444209755922,28.52755131645546,2.0582378663402245
62865.53277900367,6.651859049547056,PPG_2,PPG_1,86558.0,86558.0,-17.191651101136813,30.114402664191047,2.1727969795419133
62865.54287287172,6.661952917602321,PPG_2,PPG_1,86566.0,86566.0,-9.208860104728956,31.298639070149488,2.2582902254476163
62865.55296673978,6.672046785657585,PPG_2,PPG_1,86572.0,86572.0,-3.2260691083065467,31.97817530859905,2.30734779405748
62865.563060607834,6.68214065371285,PPG_2,PPG_1,86551.0,86551.0,-24.24327811189869,32.07735312334349,2.31450771015335
62865.57315447589,6.692234521768114,PPG_2,PPG_1,86539.0,86539.0,-36.26048711547628,31.55172433420603,2.2765611387603886
62865.58324834395,6.7023283898306545,PPG_2,PPG_1,86531.0,86531.0,-44.27769611906842,30.38492784753521,2.1923269280445603
62865.59334221201,6.712422257885919,PPG_2,PPG_1,86520.0,86520.0,-55.294905122646014,28.582338307626166,2.062193088190375
62865.60343608006,6.722516125941183,PPG_2,PPG_1,86533.0,86533.0,-42.31211412623816,26.16756283238924,1.8878638812239614
62865.61352994812,6.732609993996448,PPG_2,PPG_1,86571.0,86571.0,-4.329323129815748,23.18577718170849,1.6726006680774037
62865.62362381618,6.742703862058988,PPG_2,PPG_1,86561.0,86561.0,-14.34653213340789,19.71281069911317,1.4218777752285876
62865.633717684235,6.752797730114253,PPG_2,PPG_1,86546.0,86546.0,-29.36374113698548,15.863346172792395,1.1439744649620298
62865.64381155229,6.762891598169517,PPG_2,PPG_1,86519.0,86519.0,-56.380950140577625,11.790573231278149,0.8499499130608705
62865.653905420346,6.772985466224782,PPG_2,PPG_1,86530.0,86530.0,-45.398159144155215,7.674706115559697,0.5528142755573721
62865.66399928841,6.783079334287322,PPG_2,PPG_1,86499.0,86499.0,-76.41536814774736,3.7038340499929565,0.266146224943923
62865.674093156464,6.793173202342587,PPG_2,PPG_1,86521.0,86521.0,-54.43257715132495,0.05270723760926916,0.0025614534967109788
62865.68418702452,6.803267070397851,PPG_2,PPG_1,86508.0,86508.0,-67.44978615490254,-3.1362078752011255,-0.22765499867464595
62865.694280892574,6.8133609384531155,PPG_2,PPG_1,86488.0,86488.0,-87.46699515849468,-5.767144786905618,-0.4175894874498846
62865.70437476064,6.823454806515656,PPG_2,PPG_1,86507.0,86507.0,-68.48420416207227,-7.799766270718149,-0.5643299587565045
62865.71446862869,6.83354867457092,PPG_2,PPG_1,86499.0,86499.0,-76.50141316566442,-9.250938471844497,-0.6690940254734069
62865.72456249675,6.843642542626185,PPG_2,PPG_1,86501.0,86501.0,-74.51862216924201,-10.188722753944399,-0.7367952224917356
62865.7346563648,6.853736410681449,PPG_2,PPG_1,86506.0,86506.0,-69.53583117283415,-10.719386722211462,-0.7751052971559528
62865.74475023286,6.863830278736714,PPG_2,PPG_1,86527.0,86527.0,-48.55304017641174,-10.969620276483784,-0.793170337786035
62865.75484410092,6.873924146799254,PPG_2,PPG_1,86523.0,86523.0,-52.570249180003884,-11.067322647766861,-0.8002237376069213
62865.764937968976,6.884018014854519,PPG_2,PPG_1,86499.0,86499.0,-76.58745818358148,-11.12554704507862,-0.8044271151521816
62865.77503183703,6.894111882909783,PPG_2,PPG_1,86475.0,86475.0,-100.60466718717362,-11.232988182614596,-0.8121835829870964
62865.785125705086,6.904205750965048,PPG_2,PPG_1,86539.0,86539.0,-36.62187619075121,-11.450026495143717,-0.8278521688628984
62865.79521957315,6.914299619027588,PPG_2,PPG_1,86509.0,86509.0,-66.63908519434335,-11.806879960182771,-0.8536143907346321
62865.8053134412,6.9243934870828525,PPG_2,PPG_1,86513.0,86513.0,-62.65629419792094,-12.30347326570565,-0.889464811622371
62865.81540730926,6.934487355138117,PPG_2,PPG_1,86492.0,86492.0,-83.67350320151309,-12.913997704369457,-0.9335402307730619
62865.825501177314,6.9445812231933814,PPG_2,PPG_1,86491.0,86491.0,-84.69071220509068,-13.59719826447822,-0.9828623367262393
62865.83559504538,6.954675091255922,PPG_2,PPG_1,86493.0,86493.0,-82.70792120868282,-14.30918535947103,-1.034262620898928
62865.84568891343,6.964768959311186,PPG_2,PPG_1,86495.0,86495.0,-80.72513021226041,-15.014189862354293,-1.0851588127626173
62865.85578278149,6.974862827366451,PPG_2,PPG_1,86500.0,86500.0,-75.742339215838,-15.690453828625127,-1.1339801471470858
62865.86587664954,6.984956695421715,PPG_2,PPG_1,86489.0,86489.0,-86.75954821943014,-16.330911489342583,-1.1802165269817302
62865.875970517605,6.995050563484256,PPG_2,PPG_1,86501.0,86501.0,-74.77675722300773,-16.939593541135686,-1.2241589392150538
62865.88606438566,7.00514443153952,PPG_2,PPG_1,86517.0,86517.0,-58.79396622659988,-17.524911896676954,-1.2664146626936035
62865.89615825371,7.015238299594785,PPG_2,PPG_1,86500.0,86500.0,-75.81117523017747,-18.09169916409139,-1.307332576537053
62865.90625212177,7.025332167650049,PPG_2,PPG_1,86509.0,86509.0,-66.82838423376961,-18.635035642449438,-1.3465575141593753
62865.91634598983,7.0354260357053136,PPG_2,PPG_1,86479.0,86479.0,-96.8455932373472,-19.138371804679153,-1.3828947202055875
62865.92643985789,7.045519903767854,PPG_2,PPG_1,86505.0,86505.0,-70.86280224093935,-19.575851737666387,-1.4144775860096646
62865.936533725944,7.055613771823118,PPG_2,PPG_1,86500.0,86500.0,-75.88001124451694,-19.916655784781618,-1.4390811567655393
62865.946627594,7.065707639878383,PPG_2,PPG_1,86488.0,86488.0,-87.89722024810908,-20.129597764166252,-1.4544540172143308
62865.956721462055,7.075801507933647,PPG_2,PPG_1,86485.0,86485.0,-90.91442925168667,-20.18757050824672,-1.458639227228617
62865.96681533012,7.085895375996188,PPG_2,PPG_1,86499.0,86499.0,-76.93163825527881,-20.07119366681833,-1.4502376666348826
62865.97690919817,7.095989244051452,PPG_2,PPG_1,86495.0,86495.0,-80.9488472588564,-19.77020580898861,-1.4285085348377218
62865.98700306623,7.106083112106717,PPG_2,PPG_1,86511.0,86511.0,-64.96605626244855,-19.282168538065743,-1.3932757973503211
62865.99709693428,7.116176980161981,PPG_2,PPG_1,86499.0,86499.0,-76.98326526602614,-18.61007530478081,-1.3447555595196965
62866.007190802346,7.126270848224522,PPG_2,PPG_1,86495.0,86495.0,-81.00047426961828,-17.761132890942363,-1.2834680985187565
62866.0172846704,7.136364716279786,PPG_2,PPG_1,86495.0,86495.0,-81.01768327319587,-16.747684357173927,-1.2103044934528273
62866.027378538456,7.1464585843350505,PPG_2,PPG_1,86503.0,86503.0,-73.03489227677346,-15.589254066102106,-1.1266742611437104
62866.03747240651,7.156552452390315,PPG_2,PPG_1,86494.0,86494.0,-82.0521012803656,-14.313933022062013,-1.034605367569547
62866.04756627457,7.1666463204455795,PPG_2,PPG_1,86513.0,86513.0,-63.069310283943196,-12.958124234879818,-0.936725844983963
62866.05766014263,7.17674018850812,PPG_2,PPG_1,86505.0,86505.0,-71.08651928753534,-11.564784123284442,-0.8361368340470005
62866.067754010684,7.186834056563384,PPG_2,PPG_1,86487.0,86487.0,-89.10372829111293,-10.180839127369541,-0.7362260820549091
62866.07784787874,7.196927924618649,PPG_2,PPG_1,86505.0,86505.0,-71.12093729470507,-8.853819432398081,-0.6404249223092028
62866.087941746795,7.207021792673913,PPG_2,PPG_1,86528.0,86528.0,-48.13814629828266,-7.626513678407917,-0.5518223830700507
62866.09803561486,7.217115660736454,PPG_2,PPG_1,86506.0,86506.0,-70.1553553018748,-6.529194699458205,-0.4726039425354378
62866.10812948291,7.227209528791718,PPG_2,PPG_1,86518.0,86518.0,-58.1725643054524,-5.5715660535480085,-0.40347012693982204
62866.11822335097,7.237303396846983,PPG_2,PPG_1,86533.0,86533.0,-43.18977330904454,-4.737409262796787,-0.34325008026942044
62866.12831721902,7.247397264902247,PPG_2,PPG_1,86525.0,86525.0,-51.20698231262213,-3.983836322540546,-0.28884760086154515
62866.138411087086,7.2574911329647875,PPG_2,PPG_1,86508.0,86508.0,-68.22419131621427,-3.2466026636377165,-0.23562469859860583
62866.14850495514,7.267585001020052,PPG_2,PPG_1,86499.0,86499.0,-77.24140031979186,-2.451906511384214,-0.1782534227088585
62866.1585988232,7.2776788690753165,PPG_2,PPG_1,86497.0,86497.0,-79.25860932338401,-1.531817353308506,-0.1118296848042006
62866.16869269125,7.287772737130581,PPG_2,PPG_1,86515.0,86515.0,-61.2758183269616,-0.4377140107295971,-0.032843389802024614
62866.178786559314,7.297866605193121,PPG_2,PPG_1,86526.0,86526.0,-50.29302733055374,0.8528563953596869,0.06032639667917729
62866.18888042737,7.307960473248386,PPG_2,PPG_1,86546.0,86546.0,-30.310236334131332,2.3362219191300886,0.16741458688652602
62866.198974295425,7.31805434130365,PPG_2,PPG_1,86515.0,86515.0,-61.32744533770892,3.98567439402023,0.28649304566049294
62866.20906816348,7.328148209358915,PPG_2,PPG_1,86491.0,86491.0,-85.34465434130107,5.753294277663471,0.4141023309516468
62866.219162031535,7.338242077414179,PPG_2,PPG_1,86522.0,86522.0,-54.36186334487866,7.570510477491953,0.5452921091530909
62866.2292558996,7.34833594547672,PPG_2,PPG_1,86552.0,86552.0,-24.3790723484708,9.351746524676082,0.6738843823105494
62866.23934976765,7.358429813531984,PPG_2,PPG_1,86517.0,86517.0,-59.39628135204839,11.003857926314078,0.7931547962356632
62866.24944363571,7.368523681587249,PPG_2,PPG_1,86546.0,86546.0,-30.413490355640533,12.438774356410477,0.8967453146449323
62866.25953750376,7.378617549642513,PPG_2,PPG_1,86531.0,86531.0,-45.430699359218124,13.585140045026984,0.979504570500972
62866.269631371826,7.388711417705053,PPG_2,PPG_1,86545.0,86545.0,-31.447908362810267,14.396957169891301,1.0381118559528275
62866.27972523988,7.398805285760318,PPG_2,PPG_1,86544.0,86544.0,-32.46511736638786,14.858576105696324,1.071437382000616
62866.28981910794,7.408899153815582,PPG_2,PPG_1,86524.0,86524.0,-52.48232636998,14.9852817480504,1.0805846068156226
62866.29991297599,7.418993021870847,PPG_2,PPG_1,86532.0,86532.0,-44.49953537355759,14.819410646193065,1.068609920994119
62866.310006844054,7.429086889933387,PPG_2,PPG_1,86527.0,86527.0,-49.516744377149735,14.423695881287037,1.0400421962269952
62866.32010071211,7.439180757988652,PPG_2,PPG_1,86538.0,86538.0,-38.533953380727326,13.874522499307416,1.0003958766625738
62866.330194580165,7.449274626043916,PPG_2,PPG_1,86535.0,86535.0,-41.55116238431947,13.256712444474216,0.9557944890721267
62866.34028844822,7.459368494099181,PPG_2,PPG_1,86527.0,86527.0,-49.56837138789706,12.659625080885743,0.9126891289044977
62866.35038231628,7.469462362161721,PPG_2,PPG_1,86542.0,86542.0,-34.5855803914892,12.17368634094429,0.8776078900742332
62866.36047618434,7.479556230216986,PPG_2,PPG_1,86561.0,86561.0,-15.602789395066793,11.886594379982657,0.8568819408528203
62866.37057005239,7.48965009827225,PPG_2,PPG_1,86510.0,86510.0,-66.61999839864438,11.877846829486364,0.856250431399227
62866.38066392045,7.499743966327515,PPG_2,PPG_1,86517.0,86517.0,-59.63720740223653,12.210268803562201,0.8802488775127997
62866.390757788504,7.509837834382779,PPG_2,PPG_1,86537.0,86537.0,-39.65441640581412,12.920229818371622,0.9315028934484441
62866.40085165657,7.519931702445319,PPG_2,PPG_1,86534.0,86534.0,-42.67162540940626,14.010968391466387,1.0102462765932607
62866.41094552462,7.530025570500584,PPG_2,PPG_1,86547.0,86547.0,-29.68883441298385,15.451447260147177,1.1142383625673657
62866.42103939268,7.540119438555848,PPG_2,PPG_1,86532.0,86532.0,-44.706043416575994,17.179225806854785,1.2389713934225708
62866.43113326073,7.550213306611113,PPG_2,PPG_1,86548.0,86548.0,-28.723252420153585,19.10481812822196,1.3779851384961657
62866.441227128795,7.560307174673653,PPG_2,PPG_1,86543.0,86543.0,-33.74046142374573,21.11640723469259,1.5232072252986228
62866.45132099685,7.570401042728918,PPG_2,PPG_1,86519.0,86519.0,-57.75767042732332,23.085050283867155,1.6653289194610468
62866.461414864905,7.580494910784182,PPG_2,PPG_1,86581.0,86581.0,4.225120569084538,24.871228143891095,1.7942779555234525
62866.47150873296,7.590588778839447,PPG_2,PPG_1,86549.0,86549.0,-27.792088434493053,26.33331290181663,1.8998298293852784
62866.48160260102,7.600682646901987,PPG_2,PPG_1,86554.0,86554.0,-22.809297438085196,27.336410882096438,1.9722461998532752
62866.49169646908,7.6107765149572515,PPG_2,PPG_1,86529.0,86529.0,-47.82650644166279,27.758845526484453,2.002742905367512
62866.50179033713,7.620870383012516,PPG_2,PPG_1,86536.0,86536.0,-40.84371544525493,27.496300388917568,1.9837890580660638
62866.51188420519,7.63096425106778,PPG_2,PPG_1,86563.0,86563.0,-13.86092444883252,26.467134566460334,1.9094907791967608
62866.52197807325,7.641058119130321,PPG_2,PPG_1,86551.0,86551.0,-25.878133452424663,24.62164181653329,1.7762596399640413
62866.53207194131,7.651151987185585,PPG_2,PPG_1,86549.0,86549.0,-27.895342456002254,21.95392153728923,1.5836696598777118
62866.54216580936,7.66124585524085,PPG_2,PPG_1,86569.0,86569.0,-7.912551459579845,18.51236016637209,1.3352139874266893
62866.55225967742,7.671339723296114,PPG_2,PPG_1,86553.0,86553.0,-23.929760463171988,14.40494590196028,1.0386885842410405
62866.56235354547,7.681433591351379,PPG_2,PPG_1,86530.0,86530.0,-46.94696946674958,9.796553145655432,0.705996181640933
62866.572447413535,7.691527459413919,PPG_2,PPG_1,86529.0,86529.0,-47.96417847034172,4.896950847146824,0.3522805704344633
62866.58254128159,7.701621327469184,PPG_2,PPG_1,86522.0,86522.0,-54.98138747391931,-0.05851326482178859,-0.0054678569655008434
62866.592635149646,7.711715195524448,PPG_2,PPG_1,86519.0,86519.0,-57.998596477511455,-4.831367815540974,-0.35003320365110824
62866.6027290177,7.721809063579712,PPG_2,PPG_1,86507.0,86507.0,-70.01580548108905,-9.20200417579943,-0.6655613255969685
62866.61282288576,7.731902931642253,PPG_2,PPG_1,86514.0,86514.0,-63.03301448468119,-12.98902853046512,-0.9389569101063686
62866.62291675382,7.741996799697517,PPG_2,PPG_1,86483.0,86483.0,-94.05022348825878,-16.064344992695794,-1.1609723668348368
62866.633010621874,7.752090667752782,PPG_2,PPG_1,86519.0,86519.0,-58.06743249185092,-18.362243391540137,-1.3268638998853874
62866.64310448993,7.762184535808046,PPG_2,PPG_1,86478.0,86478.0,-99.08464149542851,-19.880908864051047,-1.436500489367532
62866.65319835799,7.772278403870587,PPG_2,PPG_1,86528.0,86528.0,-49.10185049902066,-20.675730255019218,-1.4938808065805962
62866.66329222605,7.782372271925851,PPG_2,PPG_1,86516.0,86516.0,-61.11905950259825,-20.84557995878556,-1.5061427184911276
62866.6733860941,7.792466139981116,PPG_2,PPG_1,86507.0,86507.0,-70.13626850619039,-20.515390893177806,-1.482305472110806
62866.68347996216,7.80256000803638,PPG_2,PPG_1,86536.0,86536.0,-41.15347750976798,-19.819499820891043,-1.4320672035799167
62866.69357383022,7.812653876098921,PPG_2,PPG_1,86498.0,86498.0,-79.17068651334557,-18.889245605664637,-1.3649096225622979
62866.703667698275,7.822747744154185,PPG_2,PPG_1,86504.0,86504.0,-73.18789551693772,-17.846105835746393,-1.2896025264327364
62866.71376156633,7.8328416122094495,PPG_2,PPG_1,86503.0,86503.0,-74.2051045205153,-16.7991512690162,-1.214020029749465
62866.723855434386,7.842935480264714,PPG_2,PPG_1,86504.0,86504.0,-73.22231352410745,-15.843510483614233,-1.1450297232086304
62866.73394930244,7.853029348319979,PPG_2,PPG_1,86534.0,86534.0,-43.23952252768504,-15.056795306451958,-1.0882346156097822
62866.7440431705,7.863123216382519,PPG_2,PPG_1,86516.0,86516.0,-61.25673153127718,-14.493316622974861,-1.0475555574363082
62866.75413703856,7.873217084437783,PPG_2,PPG_1,86518.0,86518.0,-59.27394053485477,-14.17875097486337,-1.0248462080427494
62866.764230906614,7.883310952493048,PPG_2,PPG_1,86506.0,86506.0,-71.29114953844692,-14.107989036192802,-1.019737711299119
62866.77432477467,7.893404820548312,PPG_2,PPG_1,86533.0,86533.0,-44.30835854202451,-14.246524425604054,-1.0297389577174751
62866.78441864273,7.903498688610853,PPG_2,PPG_1,86532.0,86532.0,-45.32556754561665,-14.534392572507143,-1.0505209419123338
62866.79451251079,7.913592556666117,PPG_2,PPG_1,86517.0,86517.0,-60.34277654919424,-14.893120812945067,-1.0764185089173426
62866.80460637884,7.923686424721382,PPG_2,PPG_1,86487.0,86487.0,-90.35998555278638,-15.237190716185518,-1.1012578507062654
62866.8147002469,7.933780292776646,PPG_2,PPG_1,86502.0,86502.0,-75.37719455636397,-15.488754263921068,-1.119418907180509
62866.82479411496,7.943874160839187,PPG_2,PPG_1,86515.0,86515.0,-62.39440355995612,-15.59034918898048,-1.1267533210417735
62866.834887983016,7.953968028894451,PPG_2,PPG_1,86515.0,86515.0,-62.41161256353371,-15.510558771701279,-1.1209930338803191
62866.84498185107,7.9640618969497154,PPG_2,PPG_1,86511.0,86511.0,-66.42882156712585,-15.241881584233534,-1.101596497224412
62866.855075719126,7.97415576500498,PPG_2,PPG_1,86530.0,86530.0,-47.44603057070344,-14.793383522444998,-1.0692182027455444
62866.86516958718,7.984249633060244,PPG_2,PPG_1,86546.0,86546.0,-31.463239574281033,-14.181245893175188,-1.0250263229789849
62866.87526345525,7.994343501122785,PPG_2,PPG_1,86526.0,86526.0,-51.480448577873176,-13.420759368519096,-0.9701247331162948
62866.8853573233,8.00443736917805,PPG_2,PPG_1,86504.0,86504.0,-73.49765758145077,-12.523620409896662,-0.9053578325082876
62866.895451191354,8.014531237233314,PPG_2,PPG_1,86519.0,86519.0,-58.51486658504291,-11.501627644546435,-0.8315773961339963
62866.90554505941,8.024625105288578,PPG_2,PPG_1,86513.0,86513.0,-64.5320755886205,-10.373363763722839,-0.7501249589986029
62866.91563892747,8.034718973351119,PPG_2,PPG_1,86522.0,86522.0,-55.54928459221264,-9.169039754808043,-0.6631815344203285
62866.92573279553,8.044812841406383,PPG_2,PPG_1,86515.0,86515.0,-62.566493595790234,-7.930912189038549,-0.5737977391659581
62866.93582666358,8.054906709461648,PPG_2,PPG_1,86543.0,86543.0,-34.58370259938238,-6.709088686364509,-0.48559097855472877
62866.94592053164,8.065000577516912,PPG_2,PPG_1,86532.0,86532.0,-45.60091160295997,-5.553956766874349,-0.40219886465786514
62866.9560143997,8.075094445579452,PPG_2,PPG_1,86541.0,86541.0,-36.61812060655211,-4.507765098548216,-0.3266714436845883
62866.96610826776,8.085188313634717,PPG_2,PPG_1,86530.0,86530.0,-47.6353296101297,-3.598332367881886,-0.26101702224782675
62866.97620213581,8.095282181689981,PPG_2,PPG_1,86547.0,86547.0,-30.652538613721845,-2.8366488233579754,-0.20602901626636289
62866.986296003866,8.105376049745246,PPG_2,PPG_1,86508.0,86508.0,-69.66974761729944,-2.2183998453924096,-0.1613959416216247
62866.99638987193,8.115469917807786,PPG_2,PPG_1,86534.0,86534.0,-43.68695662089158,-1.7279763697139872,-0.12599093752519078
62867.006483739984,8.12556378586305,PPG_2,PPG_1,86546.0,86546.0,-31.70416562446917,-1.3424012669770895,-0.09815522253826353
62867.01657760804,8.135657653918315,PPG_2,PPG_1,86530.0,86530.0,-47.72137462806131,-1.0332501810806571,-0.07583676511238512
62867.026671476095,8.14575152197358,PPG_2,PPG_1,86551.0,86551.0,-26.738583631638903,-0.7671927816610616,-0.056629358078481185
62867.03676534415,8.155845390028844,PPG_2,PPG_1,86547.0,86547.0,-30.755792635216494,-0.5073693191182236,-0.03787199589684129
62867.04685921221,8.165939258091385,PPG_2,PPG_1,86513.0,86513.0,-64.77300163880864,-0.21727693493617137,-0.016929437965449545
62867.05695308027,8.176033126146649,PPG_2,PPG_1,86522.0,86522.0,-55.79021064238623,0.13314076495509444,0.008368168522393978
62867.06704694832,8.186126994201913,PPG_2,PPG_1,86554.0,86554.0,-23.80741964597837,0.5622417525535299,0.03934613547776926
62867.07714081638,8.196220862257178,PPG_2,PPG_1,86532.0,86532.0,-45.82462864955596,1.075742570015071,0.07641715562132627
62867.08723468444,8.206314730319718,PPG_2,PPG_1,86532.0,86532.0,-45.841837653148104,1.6703497775643341,0.1193434665813158
62867.097328552496,8.216408598374983,PPG_2,PPG_1,86577.0,86577.0,-0.8590466567256954,2.339662585266738,0.16766297792958126
62867.10742242055,8.226502466430247,PPG_2,PPG_1,86524.0,86524.0,-53.87625566031784,3.0800058037182696,0.22111036775076318
62867.11751628861,8.236596334485512,PPG_2,PPG_1,86548.0,86548.0,-29.89346466389543,3.894124048031859,0.2798837772720571
62867.12761015667,8.246690202548052,PPG_2,PPG_1,86531.0,86531.0,-46.91067366748757,4.791890948205744,0.3446960106879415
62867.13770402472,8.256784070603317,PPG_2,PPG_1,86584.0,86584.0,6.072117328934837,5.789405061794567,0.4167092666378276
62867.14779789278,8.266877938658581,PPG_2,PPG_1,86531.0,86531.0,-46.945091674657306,6.907437561154639,0.4974230725277915
62867.157891760835,8.276971806713846,PPG_2,PPG_1,86539.0,86539.0,-38.9623006782349,8.16792594963104,0.5884211563690661
62867.1679856289,8.287065674776386,PPG_2,PPG_1,86562.0,86562.0,-15.97950968182704,9.587903102211714,0.6909331677168404
62867.17807949695,8.29715954283165,PPG_2,PPG_1,86526.0,86526.0,-51.99671868540463,11.173047560961125,0.8053690559618446
62867.18817336501,8.307253410886915,PPG_2,PPG_1,86564.0,86564.0,-14.013927688996773,12.913551078829101,0.9310207370823874
62867.19826723306,8.31734727894218,PPG_2,PPG_1,86559.0,86559.0,-19.031136692574364,14.783506392790759,1.0660178953227752
62867.20836110112,8.327441146997444,PPG_2,PPG_1,86581.0,86581.0,2.951654303848045,16.743292691004758,1.2075001965531904
62867.21845496918,8.337535015059984,PPG_2,PPG_1,86547.0,86547.0,-31.065554699744098,18.7425352412196,1.3518309518911242
62867.22854883723,8.347628883115249,PPG_2,PPG_1,86578.0,86578.0,-0.08276370332168881,20.720869557318718,1.4946522849619197
62867.23864270529,8.357722751170513,PPG_2,PPG_1,86558.0,86558.0,-20.09997270691383,22.60587697274188,1.6307360953311991
62867.24873657335,8.367816619225778,PPG_2,PPG_1,86544.0,86544.0,-34.11718171049142,24.309731299698214,1.753741971716227
62867.25883044141,8.377910487288318,PPG_2,PPG_1,86547.0,86547.0,-31.134390714083565,25.72734460175231,1.856083330267536
62867.268924309465,8.388004355343583,PPG_2,PPG_1,86579.0,86579.0,0.8484002823388437,26.739843702830488,1.9291783932061917
62867.27901817752,8.398098223398847,PPG_2,PPG_1,86584.0,86584.0,5.831191278746701,27.226004296851137,1.964275648285621
62867.289112045575,8.408192091454112,PPG_2,PPG_1,86579.0,86579.0,0.8139822751691099,27.0796690522884,1.9537113091172535
62867.29920591364,8.418285959516652,PPG_2,PPG_1,86589.0,86589.0,10.796773271576967,26.22733909651142,1.8921792922535572
62867.30929978169,8.428379827571916,PPG_2,PPG_1,86558.0,86558.0,-20.220435732000624,24.640674658452575,1.7776336725696111
62867.31939364975,8.43847369562718,PPG_2,PPG_1,86578.0,86578.0,-0.23764473559276666,22.34194447527472,1.6116820907465284
62867.3294875178,8.448567563682445,PPG_2,PPG_1,86579.0,86579.0,0.7451462608296424,19.40319026744624,1.3995254344554569
62867.339581385866,8.458661431744986,PPG_2,PPG_1,86542.0,86542.0,-36.2720627427625,15.940402815118397,1.1495373934768924
62867.34967525392,8.46875529980025,PPG_2,PPG_1,86560.0,86560.0,-18.28927174634009,12.103626584533059,0.8725500857770319
62867.35976912198,8.478849167855515,PPG_2,PPG_1,86562.0,86562.0,-16.306480749932234,8.064655242676745,0.5809657632566125
62867.36986299003,8.48894303591078,PPG_2,PPG_1,86547.0,86547.0,-31.323689753509825,4.004400267520406,0.2878449173812867
62867.37995685809,8.499036903966044,PPG_2,PPG_1,86544.0,86544.0,-34.340898757087416,0.10060083782847747,0.006019022711986302
62867.39005072615,8.509130772028584,PPG_2,PPG_1,86544.0,86544.0,-34.35810776067956,-3.4842846442445516,-0.25278360699994723
62867.400144594205,8.519224640083848,PPG_2,PPG_1,86515.0,86515.0,-63.37531676425715,-6.614138055668643,-0.47873623436839935
62867.41023846226,8.529318508139113,PPG_2,PPG_1,86542.0,86542.0,-36.39252576784929,-9.187151968570483,-0.664489104376207
62867.420332330315,8.539412376194377,PPG_2,PPG_1,86556.0,86556.0,-22.409734771426884,-11.13874349098037,-0.8053798024609683
62867.43042619838,8.549506244256918,PPG_2,PPG_1,86543.0,86543.0,-35.426943775019026,-12.439707825017281,-0.8992999548602264
62867.44052006643,8.559600112312182,PPG_2,PPG_1,86528.0,86528.0,-50.44415277859662,-13.092983255598215,-0.9464616843508916
62867.45061393449,8.569693980367447,PPG_2,PPG_1,86521.0,86521.0,-57.46136178218876,-13.132105695633083,-0.9492860396650024
62867.460707802544,8.579787848422711,PPG_2,PPG_1,86554.0,86554.0,-24.47857078576635,-12.620683780685958,-0.9123651011461823
62867.470801670606,8.589881716485252,PPG_2,PPG_1,86516.0,86516.0,-62.495779789358494,-11.650210983162719,-0.8423040313243166
62867.48089553866,8.599975584540516,PPG_2,PPG_1,86546.0,86546.0,-32.512988792936085,-10.334996620906663,-0.7473551306442483
62867.49098940672,8.61006945259578,PPG_2,PPG_1,86541.0,86541.0,-37.53019779652823,-8.804503474735018,-0.6368646692428809
62867.50108327477,8.620163320651045,PPG_2,PPG_1,86541.0,86541.0,-37.54740680010582,-7.19362169848175,-0.5205707340714021
62867.511177142835,8.630257188713585,PPG_2,PPG_1,86549.0,86549.0,-29.56461580369796,-5.631821245663154,-0.40782011308336263
62867.52127101089,8.64035105676885,PPG_2,PPG_1,86559.0,86559.0,-19.581824807275552,-4.232588158228526,-0.306805672198455
62867.531364878945,8.650444924824114,PPG_2,PPG_1,86547.0,86547.0,-31.599033810867695,-3.0846880738496822,-0.22393564414054248
62867.541458747,8.660538792879379,PPG_2,PPG_1,86552.0,86552.0,-26.616242814445286,-2.2468039114990015,-0.16344650838021657
62867.551552615056,8.670632660934643,PPG_2,PPG_1,86560.0,86560.0,-18.633451818022877,-1.7463900024650434,-0.1273202677373702
62867.56164648312,8.680726528997184,PPG_2,PPG_1,86536.0,86536.0,-42.65066082161502,-1.5824789341672514,-0.11548708206756456
62867.57174035117,8.690820397052448,PPG_2,PPG_1,86547.0,86547.0,-31.66786982519261,-1.7314197315999347,-0.12623952318171716
62867.58183421923,8.700914265107713,PPG_2,PPG_1,86541.0,86541.0,-37.685078828784754,-2.1536662450257786,-0.15672264701029515
62867.59192808728,8.711008133162977,PPG_2,PPG_1,86562.0,86562.0,-16.702287832362344,-2.7993074927837367,-0.20333324408678208
62867.60202195535,8.721102001225518,PPG_2,PPG_1,86550.0,86550.0,-28.719496835954487,-3.611430586930109,-0.2619626182929932
62867.6121158234,8.731195869280782,PPG_2,PPG_1,86554.0,86554.0,-24.73670583953208,-4.52862491284019,-0.328177370393004
62867.62220969146,8.741289737336047,PPG_2,PPG_1,86549.0,86549.0,-29.75391484312422,-5.488601559484396,-0.39748069454546653
62867.63230355951,8.751383605391311,PPG_2,PPG_1,86538.0,86538.0,-40.77112384670181,-6.433681140457579,-0.46570855902427094
62867.642397427575,8.761477473453851,PPG_2,PPG_1,86540.0,86540.0,-38.788332850293955,-7.317194600940067,-0.529491797875888
62867.65249129563,8.771571341509116,PPG_2,PPG_1,86542.0,86542.0,-36.805541853871546,-8.10872270181622,-0.5866343635232523
62867.662585163685,8.78166520956438,PPG_2,PPG_1,86549.0,86549.0,-29.82275085746369,-8.796220430142835,-0.6362666937334266
62867.67267903174,8.791759077619645,PPG_2,PPG_1,86533.0,86533.0,-45.83995986104128,-9.384432563279784,-0.6787313268843517
62867.68277289979,8.80185294567491,PPG_2,PPG_1,86565.0,86565.0,-13.857168864633422,-9.890348406444552,-0.7152547671110274
62867.69286676786,8.81194681373745,PPG_2,PPG_1,86528.0,86528.0,-50.87437786821101,-10.336952453632314,-0.7474963275263262
62867.702960635914,8.822040681792714,PPG_2,PPG_1,86554.0,86554.0,-24.891586871803156,-10.74653682529488,-0.7770653369145661
62867.71305450397,8.832134549847979,PPG_2,PPG_1,86556.0,86556.0,-22.908795875380747,-11.13449954825881,-0.8050734206972608
62867.723148372024,8.842228417903243,PPG_2,PPG_1,86545.0,86545.0,-33.92600487895834,-11.504447477987794,-0.8317809675768284
62867.73324224009,8.852322285965784,PPG_2,PPG_1,86533.0,86533.0,-45.94321388255048,-11.845779292490366,-0.8564226392953148
62867.74333610814,8.862416154021048,PPG_2,PPG_1,86547.0,86547.0,-31.96042288612807,-12.13410600733817,-0.8772377287568794
62867.7534299762,8.872510022076312,PPG_2,PPG_1,86556.0,86556.0,-22.977631889720215,-12.333160573461287,-0.8916080190845472
62867.76352384425,8.882603890131577,PPG_2,PPG_1,86537.0,86537.0,-41.994840893297805,-12.397073645316688,-0.8962220775117583
62867.773617712315,8.892697758194117,PPG_2,PPG_1,86548.0,86548.0,-31.01204989688995,-12.273525363440074,-0.8873027911340051
62867.78371158037,8.902791626249382,PPG_2,PPG_1,86570.0,86570.0,-9.02925890046754,-11.908560750985103,-0.8609550034773341
62867.793805448426,8.912885494304646,PPG_2,PPG_1,86518.0,86518.0,-61.04646790405968,-11.253354217320487,-0.8136538624046807
62867.80389931648,8.92297936235991,PPG_2,PPG_1,86562.0,86562.0,-17.063676907637273,-10.272928161293866,-0.7428742397900524
62867.81399318454,8.933073230422451,PPG_2,PPG_1,86553.0,86553.0,-26.080885911229416,-8.955782968287371,-0.6477859471884733
62867.8240870526,8.943167098477716,PPG_2,PPG_1,86511.0,86511.0,-68.098094914807,-7.322515743189484,-0.5298759456022539
62867.834180920654,8.95326096653298,PPG_2,PPG_1,86525.0,86525.0,-54.11530391839915,-5.431090265373217,-0.3933287978590757
62867.84427478871,8.963354834588245,PPG_2,PPG_1,86595.0,86595.0,15.86748707802326,-3.375032167368488,-0.24489637365331407
62867.854368656765,8.973448702643509,PPG_2,PPG_1,86561.0,86561.0,-18.149721925568883,-1.2720850176697318,-0.09307890132152533
62867.86446252483,8.98354257070605,PPG_2,PPG_1,86552.0,86552.0,-27.166930929146474,0.7530743852287007,0.053122862075637066
62867.87455639288,8.993636438761314,PPG_2,PPG_1,86580.0,86580.0,0.8158600672613829,2.5852642737178755,0.1853936315726899
62867.88465026094,9.003730306816578,PPG_2,PPG_1,86555.0,86555.0,-24.201348936316208,4.1311145302981265,0.2969927645281136
62867.89474412899,9.013824174871845,PPG_2,PPG_1,86566.0,86566.0,-13.218557939893799,5.327687198241443,0.3833765987269339
62867.904837997055,9.023918042934383,PPG_2,PPG_1,86563.0,86563.0,-16.23576694348594,6.148315692307397,0.44262000087823483
62867.91493186511,9.034011910989648,PPG_2,PPG_1,86579.0,86579.0,-0.25297594706353266,6.606415568913642,0.4756914764746743
62867.925025733166,9.044105779044912,PPG_2,PPG_1,86590.0,86590.0,10.729815049344325,6.757287567611853,0.4865833362588294
62867.93511960122,9.054199647100177,PPG_2,PPG_1,86566.0,86566.0,-13.287393954233266,6.69605550647178,0.4821628272844203
62867.94521346928,9.064293515162715,PPG_2,PPG_1,86599.0,86599.0,19.69539704217459,6.548948084194249,0.47154274250738765
62867.95530733734,9.074387383217982,PPG_2,PPG_1,86526.0,86526.0,-53.321811961403,6.456662123959075,0.4648803681264513
62867.965401205394,9.084481251273246,PPG_2,PPG_1,86548.0,86548.0,-31.339020964995143,6.552049502974935,0.47176664236145366
62867.97549507345,9.09457511932851,PPG_2,PPG_1,86554.0,86554.0,-25.356229968572734,6.9384504236838875,0.4996619753930576
62867.98558894151,9.104668987391053,PPG_2,PPG_1,86584.0,86584.0,4.626561027835123,7.676111357817638,0.5529157238166138
62867.99568280957,9.114762855446315,PPG_2,PPG_1,86577.0,86577.0,-2.3906479757424677,8.779512708285386,0.6325732672881613
62868.00577667762,9.12485672350158,PPG_2,PPG_1,86569.0,86569.0,-10.40785697933461,10.222143440944556,0.7367207021734581
62868.01587054568,9.134950591556844,PPG_2,PPG_1,86571.0,86571.0,-8.425065982912201,11.943703654421098,0.8610048146460055
62868.02596441373,9.145044459612109,PPG_2,PPG_1,86586.0,86586.0,6.557725013495656,13.85765334545425,0.9991780465812373
62868.03605828179,9.15513832767465,PPG_2,PPG_1,86570.0,86570.0,-9.459483990081935,15.85942440704933,1.1436913420303505
62868.04615214985,9.165232195729914,PPG_2,PPG_1,86600.0,86600.0,20.523307006325922,17.8353826872774,1.286341142611533
62868.056246017906,9.175326063785178,PPG_2,PPG_1,86590.0,86590.0,10.506098002748331,19.67149072725319,1.4188947741172655
62868.06633988596,9.185419931840444,PPG_2,PPG_1,86589.0,86589.0,9.48888899917074,21.25987805048574,1.533564773566165
62868.076433754024,9.195513799902985,PPG_2,PPG_1,86589.0,86589.0,9.471679995578597,22.501654863303116,1.6232120178866725
62868.08652762208,9.205607667958247,PPG_2,PPG_1,86559.0,86559.0,-20.545529007998994,23.30596075262621,1.6812770468228944
62868.096621490135,9.215701536013512,PPG_2,PPG_1,86586.0,86586.0,6.4372619884088635,23.58781067051372,1.7016245587024645
62868.10671535819,9.225795404068776,PPG_2,PPG_1,86585.0,86585.0,5.420052984831273,23.26871313019795,1.67858803968915
62868.11680922625,9.235889272131317,PPG_2,PPG_1,86578.0,86578.0,-1.5971560187608702,22.282653318352132,1.6074017009246044
62868.12690309431,9.24598314018658,PPG_2,PPG_1,86606.0,86606.0,26.38563497766154,20.586917039532036,1.484981888506276
62868.13699696236,9.256077008241846,PPG_2,PPG_1,86605.0,86605.0,25.368425974069396,18.174774369325668,1.3108427508932168
62868.14709083042,9.26617087629711,PPG_2,PPG_1,86582.0,86582.0,2.351216970491805,15.085650027557705,1.087830465799417
62868.15718469848,9.27626474435965,PPG_2,PPG_1,86568.0,86568.0,-11.665992033100338,11.4086507786524,0.8223778928164699
62868.167278566536,9.286358612414915,PPG_2,PPG_1,86602.0,86602.0,22.31679896332207,7.2783322034081,0.5241989651584692
62868.17737243459,9.29645248047018,PPG_2,PPG_1,86553.0,86553.0,-26.70041004027007,2.8645439346294426,0.20555558961302717
62868.18746630265,9.306546348525444,PPG_2,PPG_1,86565.0,86565.0,-14.717619043847662,-1.6417676013999032,-0.11976729215200302
62868.1975601707,9.316640216580709,PPG_2,PPG_1,86560.0,86560.0,-19.734828047439805,-6.04529611385688,-0.43766998799385815
62868.20765403877,9.326734084643247,PPG_2,PPG_1,86541.0,86541.0,-38.752037051017396,-10.163215036969035,-0.734953751051662
62868.21774790682,9.336827952698512,PPG_2,PPG_1,86560.0,86560.0,-19.76924605460954,-13.839477216957457,-1.0003531130255203
62868.227841774875,9.346921820753778,PPG_2,PPG_1,86550.0,86550.0,-29.78645505818713,-16.955019336989533,-1.2252725693581474
62868.23793564293,9.357015688809042,PPG_2,PPG_1,86533.0,86533.0,-46.80366406176472,-19.433583871480057,-1.4042068819448763
62868.24802951099,9.367109556871585,PPG_2,PPG_1,86534.0,86534.0,-45.820873065356864,-21.24329515700915,-1.5348548599783214
62868.25812337905,9.377203424926847,PPG_2,PPG_1,86559.0,86559.0,-20.838082068934455,-22.393291503659608,-1.6178762229090415
62868.2682172471,9.387297292982112,PPG_2,PPG_1,86558.0,86558.0,-21.855291072526597,-22.92485580881224,-1.6562512953409076
62868.27831111516,9.397391161037376,PPG_2,PPG_1,86551.0,86551.0,-28.87250007610419,-22.899198539616222,-1.6543990273194153
62868.28840498322,9.407485029099917,PPG_2,PPG_1,86551.0,86551.0,-28.88970907969633,-22.38614110542881,-1.6173600162199095
62868.29849885128,9.41757889715518,PPG_2,PPG_1,86553.0,86553.0,-26.906918083273922,-21.45660967581501,-1.5502546150608096
62868.30859271933,9.427672765210446,PPG_2,PPG_1,86561.0,86561.0,-18.924127086866065,-20.179325441865245,-1.458043993469451
62868.31868658739,9.43776663326571,PPG_2,PPG_1,86532.0,86532.0,-47.941336090443656,-18.621089101397292,-1.3455506754422863
62868.32878045545,9.44786050132825,PPG_2,PPG_1,86553.0,86553.0,-26.9585450940358,-16.849622890735244,-1.217663713346064
62868.338874323505,9.457954369383517,PPG_2,PPG_1,86556.0,86556.0,-23.97575409761339,-14.936824908545765,-1.0795736264035787
62868.34896819156,9.46804823743878,PPG_2,PPG_1,86566.0,86566.0,-13.992963101205532,-12.960268774768865,-0.9368806651492327
62868.359062059615,9.478142105494044,PPG_2,PPG_1,86552.0,86552.0,-28.010172104783123,-11.002798219962228,-0.7955655437315509
62868.36915592767,9.488235973549308,PPG_2,PPG_1,86542.0,86542.0,-38.027381108375266,-9.151320219719445,-0.6619023130055484
62868.37924979573,9.498329841611849,PPG_2,PPG_1,86561.0,86561.0,-19.044590111952857,-7.49437704228859,-0.5422830800490807
62868.38934366379,9.508423709667111,PPG_2,PPG_1,86565.0,86565.0,-15.061799115545,-6.116274477806906,-0.4427941090668401
62868.39943753184,9.518517577722378,PPG_2,PPG_1,86604.0,86604.0,23.92099188087741,-5.086898336516309,-0.36848064670913167
62868.4095313999,9.528611445777642,PPG_2,PPG_1,86552.0,86552.0,-28.096217122700182,-4.450214894867341,-0.3225167380105719
62868.41962526796,9.538705313840182,PPG_2,PPG_1,86583.0,86583.0,2.8865738737076754,-4.216431093106545,-0.30563924973868434
62868.42971913602,9.548799181895449,PPG_2,PPG_1,86567.0,86567.0,-13.130635129869916,-4.360491144787177,-0.31603933654698735
62868.43981300407,9.558893049950711,PPG_2,PPG_1,86556.0,86556.0,-24.14784413346206,-4.826040476346962,-0.34964860855046354
62868.44990687213,9.568986918005976,PPG_2,PPG_1,86560.0,86560.0,-20.16505313703965,-5.532419686203094,-0.40064404424814437
62868.46000074019,9.579080786068516,PPG_2,PPG_1,86591.0,86591.0,10.817737859368208,-6.382184884632411,-0.46199090430572604
62868.470094608245,9.58917465412378,PPG_2,PPG_1,86560.0,86560.0,-20.199471144209383,-7.267938019989497,-0.5259358313758773
62868.4801884763,9.599268522179043,PPG_2,PPG_1,86571.0,86571.0,-9.216680147801526,-8.07965026539708,-0.5845355452945997
62868.490282344355,9.60936239023431,PPG_2,PPG_1,86554.0,86554.0,-26.233889151379117,-8.714090336052896,-0.6303374989417778
62868.50037621241,9.619456258289574,PPG_2,PPG_1,86550.0,86550.0,-30.25109815497126,-9.085533750286412,-0.6571530089137236
62868.51047008047,9.629550126352116,PPG_2,PPG_1,86563.0,86563.0,-17.26830715854885,-9.134710285342852,-0.6607031966830043
62868.52056394853,9.63964399440738,PPG_2,PPG_1,86582.0,86582.0,1.7144838378590066,-8.833184211821377,-0.6389352096317288
62868.530657816584,9.649737862462644,PPG_2,PPG_1,86559.0,86559.0,-21.302725165718584,-8.18292047287031,-0.5919909023481572
62868.54075168464,9.659831730517908,PPG_2,PPG_1,86545.0,86545.0,-35.31993416931073,-7.213124081019915,-0.5219786640908588
62868.5508455527,9.669925598580448,PPG_2,PPG_1,86589.0,86589.0,8.662856827111682,-5.975562769655313,-0.4326357482815377
62868.56093942076,9.680019466635713,PPG_2,PPG_1,86578.0,86578.0,-2.354352176480461,-4.537634188379467,-0.3288277744890411
62868.57103328881,9.690113334690976,PPG_2,PPG_1,86545.0,86545.0,-35.37156118005805,-2.97344118118522,-0.21590442849563013
62868.58112715687,9.700207202746242,PPG_2,PPG_1,86604.0,86604.0,23.611229816364357,-1.3547150009513074,-0.09904418447304142
62868.59122102493,9.710301070808782,PPG_2,PPG_1,86573.0,86573.0,-7.405979187227786,0.257437224978649,0.017341467914757897
62868.601314892985,9.720394938864048,PPG_2,PPG_1,86582.0,86582.0,1.5768118091946235,1.8193465439269587,0.13009994824469193
62868.61140876104,9.730488806919311,PPG_2,PPG_1,86583.0,86583.0,2.5596028056024807,3.308592718812224,0.23761267864462307
62868.621502629096,9.740582674974576,PPG_2,PPG_1,86611.0,86611.0,30.54239380202489,4.7236512222711555,0.3397695993392363
62868.63159649716,9.750676543037116,PPG_2,PPG_1,86566.0,86566.0,-14.474815201567253,6.078866139080658,0.43760624880797194
62868.64169036521,9.76077041109238,PPG_2,PPG_1,86570.0,86570.0,-10.492024205144844,7.394387956453426,0.5325773455088396
62868.65178423327,9.770864279147643,PPG_2,PPG_1,86559.0,86559.0,-21.509233208736987,8.683125473168838,0.6256148107227928
62868.66187810133,9.78095814720291,PPG_2,PPG_1,86591.0,86591.0,10.473557787685422,9.940200689117932,0.7163664883594216
62868.67197196938,9.791052015258174,PPG_2,PPG_1,86591.0,86591.0,10.45634878409328,11.139877477293135,0.802974417437415
62868.68206583744,9.801145883320714,PPG_2,PPG_1,86588.0,86588.0,7.4391397805156885,12.240316644480009,0.8824181128441881
62868.6921597055,9.81123975137598,PPG_2,PPG_1,86604.0,86604.0,23.421930776923546,13.192724303271236,0.9511750111846117
62868.70225357355,9.821333619431243,PPG_2,PPG_1,86576.0,86576.0,-4.595278226654045,13.951276364532022,1.0059369468752817
62868.71234744161,9.831427487486508,PPG_2,PPG_1,86597.0,86597.0,16.387512769753812,14.482104008368452,1.0442588377238604
62868.72244130967,9.841521355549048,PPG_2,PPG_1,86600.0,86600.0,19.37030376617622,14.771338260506552,1.065139444769868
62868.732535177725,9.851615223604313,PPG_2,PPG_1,86611.0,86611.0,30.353094762584078,14.832236556859245,1.0695358583568204
62868.74262904578,9.861709091659575,PPG_2,PPG_1,86600.0,86600.0,19.335885759006487,14.709677310694472,1.0606879731561434
62868.75272291384,9.871802959714842,PPG_2,PPG_1,86601.0,86601.0,20.318676755428896,14.47916137636027,1.0440464011186188
62868.7628167819,9.881896827777382,PPG_2,PPG_1,86582.0,86582.0,1.3014677518367535,14.23884510625148,1.0266973161958968
