timestamp,PPG_1,PPG_2,PPG_3,time_from_segment_start_sec
62858.8778719006,171316.0,151313.0,18768.0,0.0
62858.887971702345,171315.0,151329.0,18781.0,0.010099801744217984
62858.89807150408,171313.0,151351.0,18791.0,0.02019960348116001
62858.908171305826,171309.0,151324.0,18776.0,0.030299405225377996
62858.91827110757,171309.0,151318.0,18777.0,0.04039920696959598
62858.928370909314,171335.0,151326.0,18775.0,0.050499008713813964
62858.93847071106,171322.0,151322.0,18768.0,0.06059881045803195
62858.948570512795,171302.0,151321.0,18774.0,0.07069861219497398
62858.95867031454,171336.0,151353.0,18810.0,0.08079841393919196
62858.968770116284,171323.0,151327.0,18788.0,0.09089821568340994
62858.97886991803,171323.0,151342.0,18779.0,0.10099801742762793
62858.988969719765,171332.0,151365.0,18824.0,0.11109781916456996
62858.99906952151,171321.0,151358.0,18782.0,0.12119762090878794
62859.00916932325,171371.0,151359.0,18809.0,0.13129742265300592
62859.019269125,171374.0,151379.0,18774.0,0.1413972243972239
62859.02936892674,171376.0,151376.0,18833.0,0.1514970261414419
62859.03946872848,171363.0,151355.0,18793.0,0.16159682787838392
62859.04956853022,171378.0,151368.0,18805.0,0.1716966296226019
62859.05966833197,171384.0,151373.0,18815.0,0.1817964313668199
62859.06976813371,171352.0,151353.0,18800.0,0.19189623311103787
62859.079867935456,171370.0,151364.0,18798.0,0.20199603485525586
62859.08996773719,171360.0,151348.0,18800.0,0.21209583659219788
62859.10006753894,171341.0,151347.0,18809.0,0.22219563833641587
62859.11016734068,171319.0,151320.0,18794.0,0.23229544008063385
62859.120267142425,171318.0,151355.0,18815.0,0.24239524182485184
62859.13036694416,171353.0,151323.0,18806.0,0.25249504356179386
62859.14046674591,171355.0,151333.0,18777.0,0.26259484530601185
62859.15056654765,171332.0,151330.0,18794.0,0.27269464705022983
62859.160666349395,171373.0,151374.0,18784.0,0.2827944487944478
62859.17076615114,171362.0,151367.0,18806.0,0.2928942505386658
62859.180865952876,171366.0,151350.0,18804.0,0.30299405227560783
62859.19096575462,171394.0,151370.0,18828.0,0.3130938540198258
62859.201065556364,171352.0,151325.0,18789.0,0.3231936557640438
62859.21116535811,171369.0,151345.0,18806.0,0.3332934575082618
62859.22126515985,171357.0,151366.0,18786.0,0.34339325925247977
62859.23136496159,171320.0,151315.0,18784.0,0.3534930609894218
62859.241464763334,171342.0,151337.0,18784.0,0.3635928627336398
62859.25156456508,171338.0,151338.0,18805.0,0.37369266447785776
62859.26166436682,171345.0,151326.0,18808.0,0.38379246622207575
62859.27176416856,171329.0,151320.0,18784.0,0.39389226795901777
62859.281863970304,171385.0,151389.0,18789.0,0.40399206970323576
62859.29196377205,171359.0,151347.0,18789.0,0.41409187144745374
62859.30206357379,171356.0,151359.0,18816.0,0.4241916731916717
62859.312163375536,171375.0,151379.0,18809.0,0.4342914749358897
62859.32226317727,171382.0,151365.0,18833.0,0.44439127667283174
62859.33236297902,171378.0,151368.0,18786.0,0.4544910784170497
62859.34246278076,171393.0,151359.0,18818.0,0.4645908801612677
62859.352562582506,171375.0,151366.0,18806.0,0.4746906819054857
62859.36266238425,171397.0,151360.0,18799.0,0.4847904836497037
62859.37276218599,171372.0,151359.0,18809.0,0.4948902853866457
62859.38286198773,171397.0,151363.0,18827.0,0.5049900871308637
62859.392961789476,171412.0,151354.0,18823.0,0.5150898888750817
62859.40306159122,171372.0,151373.0,18812.0,0.5251896906192997
62859.41316139296,171429.0,151402.0,18815.0,0.5352894923562417
62859.4232611947,171419.0,151384.0,18825.0,0.5453892941004597
62859.433360996445,171409.0,151345.0,18850.0,0.5554890958446776
62859.44346079819,171434.0,151401.0,18827.0,0.5655888975888956
62859.45356059993,171429.0,151390.0,18851.0,0.5756886993331136
62859.46366040167,171433.0,151389.0,18830.0,0.5857885010700556
62859.473760203415,171376.0,151371.0,18813.0,0.5958883028142736
62859.48386000516,171457.0,151415.0,18829.0,0.6059881045584916
62859.4939598069,171445.0,151373.0,18823.0,0.6160879063027096
62859.50405960865,171421.0,151390.0,18828.0,0.6261877080469276
62859.514159410384,171428.0,151379.0,18843.0,0.6362875097838696
62859.52425921213,171445.0,151374.0,18848.0,0.6463873115280876
62859.53435901387,171446.0,151369.0,18825.0,0.6564871132723056
62859.54445881562,171450.0,151386.0,18835.0,0.6665869150165236
62859.554558617354,171452.0,151434.0,18857.0,0.6766867167534656
62859.5646584191,171419.0,151360.0,18823.0,0.6867865184976836
62859.57475822084,171417.0,151395.0,18824.0,0.6968863202419016
62859.58485802259,171411.0,151382.0,18821.0,0.7069861219861195
62859.59495782433,171420.0,151368.0,18804.0,0.7170859237303375
62859.60505762607,171391.0,151358.0,18805.0,0.7271857254672796
62859.61515742781,171363.0,151347.0,18819.0,0.7372855272114975
62859.625257229556,171374.0,151360.0,18798.0,0.7473853289557155
62859.6353570313,171340.0,151321.0,18781.0,0.7574851306999335
62859.645456833045,171393.0,151378.0,18802.0,0.7675849324441515
62859.65555663478,171364.0,151334.0,18793.0,0.7776847341810935
62859.665656436526,171380.0,151365.0,18783.0,0.7877845359253115
62859.67575623827,171379.0,151346.0,18779.0,0.7978843376695295
62859.685856040014,171421.0,151385.0,18799.0,0.8079841394137475
62859.69595584175,171382.0,151341.0,18779.0,0.8180839411506895
62859.706055643495,171390.0,151370.0,18793.0,0.8281837428949075
62859.71615544524,171412.0,151363.0,18814.0,0.8382835446391255
62859.726255246984,171413.0,151366.0,18821.0,0.8483833463833435
62859.73635504873,171437.0,151359.0,18826.0,0.8584831481275614
62859.746454850465,171422.0,151395.0,18812.0,0.8685829498645035
62859.75655465221,171452.0,151431.0,18827.0,0.8786827516087214
62859.76665445395,171430.0,151399.0,18791.0,0.8887825533529394
62859.7767542557,171460.0,151419.0,18833.0,0.8988823550971574
62859.78685405744,171449.0,151401.0,18819.0,0.9089821568413754
62859.79695385918,171445.0,151370.0,18798.0,0.9190819585783174
62859.80705366092,171441.0,151383.0,18816.0,0.9291817603225354
62859.81715346267,171475.0,151403.0,18829.0,0.9392815620667534
62859.82725326441,171447.0,151396.0,18801.0,0.9493813638109714
62859.83735306615,171428.0,151347.0,18827.0,0.9594811655479134
62859.84745286789,171434.0,151390.0,18820.0,0.9695809672921314
62859.85755266964,171397.0,151360.0,18804.0,0.9796807690363494
62859.86765247138,171428.0,151365.0,18815.0,0.9897805707805674
62859.877752273125,171410.0,151361.0,18814.0,0.9998803725247853
62859.88785207486,171439.0,151394.0,18828.0,1.0099801742617274
62859.89795187661,171406.0,151369.0,18797.0,1.0200799760059454
62859.90805167835,171441.0,151370.0,18833.0,1.0301797777501633
62859.918151480095,171415.0,151400.0,18815.0,1.0402795794943813
62859.92825128184,171407.0,151345.0,18810.0,1.0503793812385993
62859.938351083576,171445.0,151393.0,18841.0,1.0604791829755413
62859.94845088532,171387.0,151347.0,18813.0,1.0705789847197593
62859.958550687064,171391.0,151372.0,18808.0,1.0806787864639773
62859.96865048881,171390.0,151355.0,18814.0,1.0907785882081953
62859.978750290546,171420.0,151392.0,18813.0,1.1008783899451373
62859.98885009229,171398.0,151336.0,18809.0,1.1109781916893553
62859.998949894034,171406.0,151347.0,18812.0,1.1210779934335733
62860.00904969578,171405.0,151348.0,18809.0,1.1311777951777913
62860.01914949752,171420.0,151371.0,18827.0,1.1412775969220093
62860.02924929926,171377.0,151360.0,18797.0,1.1513773986589513
62860.039349101,171427.0,151379.0,18830.0,1.1614772004031693
62860.04944890275,171432.0,151380.0,18839.0,1.1715770021473872
62860.05954870449,171394.0,151347.0,18810.0,1.1816768038916052
62860.069648506236,171442.0,151385.0,18813.0,1.1917766056358232
62860.07974830797,171427.0,151381.0,18829.0,1.2018764073727652
62860.08984810972,171433.0,151391.0,18846.0,1.2119762091169832
62860.09994791146,171397.0,151356.0,18797.0,1.2220760108612012
62860.110047713206,171418.0,151386.0,18839.0,1.2321758126054192
62860.12014751494,171404.0,151363.0,18818.0,1.2422756143423612
62860.13024731669,171399.0,151338.0,18814.0,1.2523754160865792
62860.14034711843,171423.0,151356.0,18819.0,1.2624752178307972
62860.150446920175,171396.0,151334.0,18818.0,1.2725750195750152
62860.16054672192,171413.0,151362.0,18825.0,1.2826748213192332
62860.17064652366,171383.0,151378.0,18815.0,1.2927746230561752
62860.1807463254,171427.0,151389.0,18851.0,1.3028744248003932
62860.190846127145,171399.0,151333.0,18834.0,1.3129742265446112
62860.20094592889,171406.0,151356.0,18830.0,1.3230740282888291
62860.21104573063,171406.0,151333.0,18823.0,1.3331738300330471
62860.22114553237,171401.0,151356.0,18850.0,1.3432736317699892
62860.231245334115,171388.0,151365.0,18810.0,1.3533734335142071
62860.24134513586,171421.0,151360.0,18833.0,1.3634732352584251
62860.2514449376,171407.0,151355.0,18818.0,1.373573037002643
62860.26154473934,171414.0,151326.0,18820.0,1.3836728387395851
62860.271644541084,171399.0,151356.0,18838.0,1.3937726404838031
62860.28174434283,171383.0,151343.0,18822.0,1.403872442228021
62860.29184414457,171348.0,151320.0,18825.0,1.413972243972239
62860.30194394632,171341.0,151324.0,18806.0,1.424072045716457
62860.312043748054,171355.0,151309.0,18833.0,1.434171847453399
62860.3221435498,171336.0,151291.0,18793.0,1.444271649197617
62860.33224335154,171285.0,151254.0,18785.0,1.454371450941835
62860.34234315329,171329.0,151286.0,18784.0,1.464471252686053
62860.35244295503,171289.0,151267.0,18773.0,1.474571054430271
62860.36254275677,171309.0,151288.0,18768.0,1.484670856167213
62860.37264255851,171302.0,151330.0,18775.0,1.494770657911431
62860.382742360256,171278.0,151299.0,18789.0,1.504870459655649
62860.392842162,171285.0,151283.0,18765.0,1.514970261399867
62860.40294196374,171305.0,151297.0,18779.0,1.525070063136809
62860.41304176548,171297.0,151289.0,18778.0,1.535169864881027
62860.423141567226,171287.0,151294.0,18779.0,1.545269666625245
62860.43324136897,171300.0,151300.0,18787.0,1.555369468369463
62860.443341170714,171347.0,151305.0,18834.0,1.565469270113681
62860.45344097245,171310.0,151325.0,18790.0,1.575569071850623
62860.463540774195,171324.0,151302.0,18777.0,1.585668873594841
62860.47364057594,171348.0,151328.0,18828.0,1.595768675339059
62860.483740377684,171313.0,151314.0,18808.0,1.605868477083277
62860.49384017943,171332.0,151313.0,18799.0,1.615968278827495
62860.503939981165,171301.0,151313.0,18785.0,1.626068080564437
62860.51403978291,171347.0,151332.0,18823.0,1.636167882308655
62860.52413958465,171305.0,151278.0,18790.0,1.646267684052873
62860.5342393864,171323.0,151289.0,18796.0,1.656367485797091
62860.544339188134,171322.0,151309.0,18794.0,1.666467287534033
62860.55443898988,171300.0,151273.0,18784.0,1.676567089278251
62860.56453879162,171276.0,151294.0,18806.0,1.686666891022469
62860.57463859337,171325.0,151304.0,18823.0,1.696766692766687
62860.58473839511,171301.0,151288.0,18771.0,1.7068664945109049
62860.59483819685,171273.0,151270.0,18802.0,1.716966296247847
62860.60493799859,171314.0,151291.0,18797.0,1.727066097992065
62860.61503780034,171296.0,151277.0,18782.0,1.7371658997362829
62860.62513760208,171274.0,151265.0,18792.0,1.7472657014805009
62860.635237403825,171247.0,151288.0,18771.0,1.7573655032247189
62860.64533720556,171295.0,151273.0,18819.0,1.7674653049616609
62860.655437007306,171275.0,151282.0,18798.0,1.7775651067058789
62860.66553680905,171293.0,151290.0,18770.0,1.7876649084500968
62860.675636610795,171278.0,151284.0,18810.0,1.7977647101943148
62860.68573641253,171278.0,151261.0,18785.0,1.8078645119312569
62860.695836214276,171289.0,151288.0,18792.0,1.8179643136754748
62860.70593601602,171284.0,151325.0,18802.0,1.8280641154196928
62860.716035817764,171311.0,151273.0,18801.0,1.8381639171639108
62860.72613561951,171281.0,151273.0,18791.0,1.8482637189081288
62860.736235421246,171291.0,151276.0,18785.0,1.8583635206450708
62860.74633522299,171310.0,151309.0,18810.0,1.8684633223892888
62860.756435024734,171281.0,151276.0,18791.0,1.8785631241335068
62860.76653482648,171273.0,151291.0,18807.0,1.8886629258777248
62860.77663462822,171289.0,151281.0,18805.0,1.8987627276219428
62860.78673442996,171296.0,151267.0,18786.0,1.9088625293588848
62860.7968342317,171280.0,151270.0,18791.0,1.9189623311031028
62860.80693403345,171303.0,151298.0,18837.0,1.9290621328473208
62860.81703383519,171282.0,151286.0,18805.0,1.9391619345915387
62860.82713363693,171274.0,151267.0,18784.0,1.9492617363284808
62860.83723343867,171267.0,151322.0,18814.0,1.9593615380726987
62860.84733324042,171309.0,151266.0,18829.0,1.9694613398169167
62860.85743304216,171286.0,151286.0,18805.0,1.9795611415611347
62860.867532843906,171319.0,151285.0,18788.0,1.9896609433053527
62860.87763264564,171306.0,151269.0,18807.0,1.9997607450422947
62860.88773244739,171282.0,151250.0,18781.0,2.0098605467865127
62860.89783224913,171297.0,151285.0,18795.0,2.0199603485307307
62860.907932050875,171276.0,151307.0,18794.0,2.0300601502749487
62860.91803185262,171306.0,151274.0,18796.0,2.0401599520191667
62860.92813165436,171302.0,151268.0,18802.0,2.0502597537561087
62860.9382314561,171281.0,151264.0,18820.0,2.0603595555003267
62860.948331257845,171277.0,151264.0,18799.0,2.0704593572445447
62860.95843105959,171250.0,151225.0,18779.0,2.0805591589887626
62860.968530861326,171236.0,151260.0,18799.0,2.0906589607257047
62860.97863066307,171185.0,151227.0,18772.0,2.1007587624699227
62860.988730464815,171200.0,151190.0,18775.0,2.1108585642141406
62860.99883026656,171177.0,151202.0,18760.0,2.1209583659583586
62861.0089300683,171200.0,151215.0,18778.0,2.1310581677025766
62861.01902987004,171148.0,151179.0,18740.0,2.1411579694395186
62861.029129671784,171166.0,151206.0,18753.0,2.1512577711837366
62861.03922947353,171168.0,151228.0,18755.0,2.1613575729279546
62861.04932927527,171171.0,151207.0,18749.0,2.1714573746721726
62861.05942907701,171206.0,151223.0,18770.0,2.1815571764091146
62861.069528878754,171176.0,151214.0,18762.0,2.1916569781533326
62861.0796286805,171166.0,151230.0,18768.0,2.2017567798975506
62861.08972848224,171210.0,151243.0,18794.0,2.2118565816417686
62861.09982828399,171165.0,151246.0,18759.0,2.2219563833859866
62861.10992808572,171202.0,151239.0,18769.0,2.2320561851229286
62861.12002788747,171184.0,151210.0,18744.0,2.2421559868671466
62861.13012768921,171182.0,151216.0,18742.0,2.2522557886113646
62861.140227490956,171195.0,151228.0,18785.0,2.2623555903555825
62861.1503272927,171194.0,151236.0,18772.0,2.2724553920998005
62861.16042709444,171182.0,151243.0,18747.0,2.2825551938367425
62861.17052689618,171220.0,151263.0,18800.0,2.2926549955809605
62861.180626697926,171174.0,151210.0,18768.0,2.3027547973251785
62861.19072649967,171176.0,151216.0,18765.0,2.3128545990693965
62861.20082630141,171186.0,151214.0,18758.0,2.3229544008063385
62861.21092610315,171193.0,151233.0,18789.0,2.3330542025505565
62861.221025904895,171153.0,151197.0,18759.0,2.3431540042947745
62861.23112570664,171185.0,151221.0,18763.0,2.3532538060389925
62861.241225508384,171175.0,151255.0,18796.0,2.3633536077832105
62861.25132531012,171127.0,151200.0,18749.0,2.3734534095201525
62861.261425111865,171194.0,151241.0,18751.0,2.3835532112643705
62861.27152491361,171184.0,151207.0,18773.0,2.3936530130085885
62861.28162471535,171158.0,151199.0,18809.0,2.4037528147528064
62861.2917245171,171206.0,151234.0,18785.0,2.4138526164970244
62861.301824318834,171183.0,151222.0,18791.0,2.4239524182339665
62861.31192412058,171167.0,151189.0,18758.0,2.4340522199781844
62861.32202392232,171171.0,151220.0,18768.0,2.4441520217224024
62861.33212372407,171149.0,151196.0,18740.0,2.4542518234666204
62861.342223525804,171142.0,151179.0,18761.0,2.4643516252035624
62861.35232332755,171164.0,151205.0,18758.0,2.4744514269477804
62861.36242312929,171129.0,151213.0,18784.0,2.4845512286919984
62861.37252293104,171182.0,151209.0,18771.0,2.4946510304362164
62861.38262273278,171150.0,151191.0,18761.0,2.5047508321804344
62861.39272253452,171176.0,151218.0,18776.0,2.5148506339173764
62861.40282233626,171171.0,151250.0,18783.0,2.5249504356615944
62861.412922138006,171179.0,151204.0,18771.0,2.5350502374058124
62861.42302193975,171208.0,151236.0,18782.0,2.5451500391500304
62861.433121741495,171180.0,151225.0,18749.0,2.5552498408942483
62861.44322154323,171181.0,151209.0,18805.0,2.5653496426311904
62861.453321344976,171223.0,151241.0,18793.0,2.5754494443754083
62861.46342114672,171194.0,151215.0,18783.0,2.5855492461196263
62861.473520948464,171209.0,151240.0,18773.0,2.5956490478638443
62861.4836207502,171214.0,151197.0,18788.0,2.6057488496007863
62861.493720551945,171229.0,151256.0,18801.0,2.6158486513450043
62861.50382035369,171216.0,151220.0,18792.0,2.6259484530892223
62861.513920155434,171176.0,151240.0,18773.0,2.6360482548334403
62861.52401995718,171197.0,151205.0,18790.0,2.6461480565776583
62861.534119758915,171219.0,151253.0,18794.0,2.6562478583146003
62861.54421956066,171194.0,151219.0,18766.0,2.6663476600588183
62861.5543193624,171178.0,151198.0,18771.0,2.6764474618030363
62861.56441916415,171194.0,151233.0,18792.0,2.6865472635472543
62861.57451896589,171180.0,151224.0,18780.0,2.6966470652914722
62861.58461876763,171226.0,151237.0,18813.0,2.7067468670284143
62861.59471856937,171212.0,151237.0,18778.0,2.7168466687726323
62861.60481837112,171184.0,151204.0,18771.0,2.7269464705168502
62861.61491817286,171138.0,151188.0,18779.0,2.7370462722610682
62861.6250179746,171131.0,151198.0,18768.0,2.7471460739980103
62861.63511777634,171131.0,151195.0,18778.0,2.7572458757422282
62861.64521757809,171098.0,151141.0,18745.0,2.767345677486446
62861.65531737983,171077.0,151135.0,18722.0,2.777445479230664
62861.665417181575,171076.0,151148.0,18746.0,2.787545280974882
62861.67551698331,171134.0,151171.0,18777.0,2.797645082711824
62861.68561678506,171114.0,151167.0,18736.0,2.807744884456042
62861.6957165868,171100.0,151162.0,18731.0,2.81784468620026
62861.705816388545,171132.0,151172.0,18754.0,2.827944487944478
62861.71591619029,171110.0,151199.0,18760.0,2.838044289688696
62861.726015992026,171127.0,151176.0,18737.0,2.848144091425638
62861.73611579377,171138.0,151229.0,18758.0,2.858243893169856
62861.746215595515,171135.0,151170.0,18763.0,2.868343694914074
62861.75631539726,171112.0,151164.0,18743.0,2.878443496658292
62861.766415198996,171128.0,151182.0,18746.0,2.888543298395234
62861.77651500074,171139.0,151209.0,18760.0,2.898643100139452
62861.786614802484,171119.0,151188.0,18745.0,2.90874290188367
62861.79671460423,171125.0,151174.0,18747.0,2.918842703627888
62861.80681440597,171165.0,151208.0,18764.0,2.928942505372106
62861.81691420771,171156.0,151218.0,18746.0,2.939042307109048
62861.827014009454,171164.0,151198.0,18770.0,2.949142108853266
62861.8371138112,171198.0,151258.0,18791.0,2.959241910597484
62861.84721361294,171192.0,151220.0,18766.0,2.969341712341702
62861.857313414686,171224.0,151215.0,18780.0,2.97944151408592
62861.86741321642,171179.0,151206.0,18762.0,2.989541315822862
62861.87751301817,171198.0,151235.0,18785.0,2.99964111756708
62861.88761281991,171172.0,151211.0,18768.0,3.009740919311298
62861.897712621656,171148.0,151191.0,18759.0,3.019840721055516
62861.90781242339,171149.0,151174.0,18760.0,3.029940522792458
62861.91791222514,171133.0,151229.0,18778.0,3.040040324536676
62861.92801202688,171171.0,151206.0,18763.0,3.050140126280894
62861.938111828626,171199.0,151256.0,18777.0,3.060239928025112
62861.94821163037,171202.0,151204.0,18781.0,3.07033972976933
62861.95831143211,171202.0,151238.0,18780.0,3.080439531506272
62861.96841123385,171193.0,151229.0,18756.0,3.09053933325049
62861.978511035595,171168.0,151227.0,18773.0,3.100639134994708
62861.98861083734,171190.0,151200.0,18782.0,3.110738936738926
62861.99871063908,171184.0,151206.0,18747.0,3.120838738483144
62862.00881044082,171188.0,151231.0,18745.0,3.130938540220086
62862.018910242565,171176.0,151233.0,18767.0,3.141038341964304
62862.02901004431,171159.0,151199.0,18766.0,3.151138143708522
62862.03910984605,171189.0,151196.0,18767.0,3.16123794545274
62862.04920964779,171148.0,151199.0,18739.0,3.171337747189682
62862.059309449534,171196.0,151210.0,18775.0,3.1814375489339
62862.06940925128,171180.0,151214.0,18744.0,3.191537350678118
62862.07950905302,171201.0,151235.0,18786.0,3.201637152422336
62862.08960885477,171154.0,151186.0,18771.0,3.211736954166554
62862.099708656504,171194.0,151218.0,18766.0,3.221836755903496
62862.10980845825,171180.0,151206.0,18762.0,3.231936557647714
62862.11990825999,171213.0,151202.0,18771.0,3.242036359391932
62862.13000806174,171179.0,151209.0,18758.0,3.25213616113615
62862.14010786348,171206.0,151227.0,18775.0,3.262235962880368
62862.15020766522,171210.0,151249.0,18794.0,3.27233576461731
62862.16030746696,171170.0,151224.0,18764.0,3.282435566361528
62862.170407268706,171198.0,151247.0,18789.0,3.292535368105746
62862.18050707045,171170.0,151196.0,18766.0,3.302635169849964
62862.19060687219,171197.0,151236.0,18773.0,3.312734971586906
62862.20070667393,171197.0,151244.0,18771.0,3.322834773331124
62862.210806475676,171216.0,151248.0,18801.0,3.332934575075342
62862.22090627742,171207.0,151222.0,18782.0,3.34303437681956
62862.231006079164,171200.0,151225.0,18759.0,3.353134178563778
62862.2411058809,171175.0,151186.0,18765.0,3.36323398030072
62862.251205682645,171161.0,151199.0,18760.0,3.373333782044938
62862.26130548439,171178.0,151191.0,18776.0,3.383433583789156
62862.271405286134,171145.0,151192.0,18750.0,3.393533385533374
62862.28150508788,171153.0,151179.0,18749.0,3.403633187277592
62862.291604889615,171106.0,151146.0,18737.0,3.413732989014534
62862.30170469136,171088.0,151156.0,18747.0,3.423832790758752
62862.3118044931,171076.0,151124.0,18724.0,3.43393259250297
62862.32190429485,171074.0,151151.0,18747.0,3.4440323942471878
62862.332004096585,171080.0,151142.0,18711.0,3.45413219598413
62862.34210389833,171088.0,151143.0,18722.0,3.464231997728348
62862.35220370007,171079.0,151159.0,18724.0,3.4743317994725658
62862.36230350182,171117.0,151188.0,18749.0,3.4844316012167837
62862.37240330356,171138.0,151177.0,18746.0,3.4945314029610017
62862.3825031053,171113.0,151180.0,18725.0,3.5046312046979438
62862.39260290704,171105.0,151165.0,18717.0,3.5147310064421617
62862.40270270879,171109.0,151197.0,18713.0,3.5248308081863797
62862.41280251053,171105.0,151168.0,18713.0,3.5349306099305977
62862.422902312275,171125.0,151183.0,18733.0,3.5450304116748157
62862.43300211401,171135.0,151191.0,18733.0,3.5551302134117577
62862.44310191576,171111.0,151158.0,18709.0,3.5652300151559757
62862.4532017175,171109.0,151161.0,18712.0,3.5753298169001937
62862.463301519245,171129.0,151171.0,18741.0,3.5854296186444117
62862.47340132098,171163.0,151201.0,18726.0,3.5955294203813537
62862.483501122726,171180.0,151213.0,18727.0,3.6056292221255717
62862.49360092447,171151.0,151188.0,18740.0,3.6157290238697897
62862.503700726214,171155.0,151195.0,18747.0,3.6258288256140077
62862.51380052796,171147.0,151206.0,18766.0,3.6359286273582256
62862.523900329696,171157.0,151173.0,18747.0,3.6460284290951677
62862.53400013144,171165.0,151187.0,18731.0,3.6561282308393857
62862.544099933184,171147.0,151174.0,18726.0,3.6662280325836036
62862.55419973493,171123.0,151161.0,18766.0,3.6763278343278216
62862.56429953667,171113.0,151188.0,18742.0,3.6864276360720396
62862.57439933841,171148.0,151164.0,18748.0,3.6965274378089816
62862.584499140154,171084.0,151153.0,18698.0,3.7066272395531996
62862.5945989419,171167.0,151176.0,18749.0,3.7167270412974176
62862.60469874364,171152.0,151217.0,18752.0,3.7268268430416356
62862.61479854538,171130.0,151171.0,18740.0,3.7369266447785776
62862.62489834712,171132.0,151196.0,18745.0,3.7470264465227956
62862.63499814887,171151.0,151198.0,18756.0,3.7571262482670136
62862.64509795061,171176.0,151225.0,18767.0,3.7672260500112316
62862.655197752356,171137.0,151167.0,18741.0,3.7773258517554495
62862.66529755409,171176.0,151228.0,18725.0,3.7874256534923916
62862.67539735584,171146.0,151189.0,18749.0,3.7975254552366096
62862.68549715758,171134.0,151177.0,18766.0,3.8076252569808275
62862.695596959325,171161.0,151223.0,18753.0,3.8177250587250455
62862.70569676107,171188.0,151166.0,18780.0,3.8278248604692635
62862.71579656281,171174.0,151215.0,18750.0,3.8379246622062055
62862.72589636455,171145.0,151169.0,18780.0,3.8480244639504235
62862.735996166295,171208.0,151218.0,18768.0,3.8581242656946415
62862.74609596804,171168.0,151183.0,18756.0,3.8682240674388595
62862.756195769776,171187.0,151217.0,18766.0,3.8783238691758015
62862.76629557152,171190.0,151219.0,18770.0,3.8884236709200195
62862.776395373265,171222.0,151201.0,18759.0,3.8985234726642375
62862.78649517501,171191.0,151194.0,18751.0,3.9086232744084555
62862.79659497675,171196.0,151226.0,18768.0,3.9187230761526735
62862.80669477849,171213.0,151246.0,18768.0,3.9288228778896155
62862.816794580234,171182.0,151191.0,18756.0,3.9389226796338335
62862.82689438198,171187.0,151218.0,18763.0,3.9490224813780515
62862.83699418372,171203.0,151222.0,18766.0,3.9591222831222694
62862.84709398547,171183.0,151162.0,18768.0,3.9692220848664874
62862.857193787204,171216.0,151222.0,18796.0,3.9793218866034294
62862.86729358895,171221.0,151232.0,18789.0,3.9894216883476474
62862.87739339069,171218.0,151225.0,18779.0,3.9995214900918654
62862.88749319244,171203.0,151226.0,18779.0,4.009621291836083
62862.89759299417,171203.0,151245.0,18786.0,4.019721093573025
62862.90769279592,171225.0,151255.0,18795.0,4.029820895317243
62862.91779259766,171202.0,151224.0,18781.0,4.039920697061461
62862.927892399406,171203.0,151196.0,18768.0,4.050020498805679
62862.93799220115,171220.0,151238.0,18796.0,4.060120300549897
62862.94809200289,171190.0,151204.0,18755.0,4.070220102286839
62862.95819180463,171165.0,151180.0,18753.0,4.080319904031057
62862.968291606376,171185.0,151174.0,18774.0,4.090419705775275
62862.97839140812,171105.0,151119.0,18722.0,4.100519507519493
62862.988491209864,171109.0,151121.0,18732.0,4.110619309263711
62862.9985910116,171118.0,151140.0,18717.0,4.120719111000653
62863.008690813345,171112.0,151171.0,18734.0,4.130818912744871
62863.01879061509,171090.0,151139.0,18691.0,4.140918714489089
62863.028890416834,171137.0,151187.0,18748.0,4.151018516233307
62863.03899021857,171127.0,151173.0,18727.0,4.161118317970249
62863.049090020315,171120.0,151145.0,18723.0,4.171218119714467
62863.05918982206,171173.0,151178.0,18736.0,4.181317921458685
62863.0692896238,171168.0,151207.0,18739.0,4.191417723202903
62863.07938942555,171152.0,151186.0,18709.0,4.201517524947121
62863.089489227285,171130.0,151164.0,18762.0,4.211617326684063
62863.09958902903,171170.0,151216.0,18764.0,4.221717128428281
62863.10968883077,171166.0,151163.0,18750.0,4.231816930172499
62863.11978863252,171136.0,151170.0,18721.0,4.241916731916717
62863.12988843426,171138.0,151177.0,18738.0,4.252016533660935
62863.139988236,171135.0,151167.0,18738.0,4.262116335397877
62863.15008803774,171161.0,151194.0,18729.0,4.272216137142095
62863.16018783949,171193.0,151190.0,18764.0,4.282315938886313
62863.17028764123,171167.0,151217.0,18750.0,4.292415740630531
62863.18038744297,171167.0,151196.0,18761.0,4.302515542367473
62863.19048724471,171191.0,151188.0,18741.0,4.312615344111691
62863.200587046456,171210.0,151228.0,18765.0,4.322715145855909
62863.2106868482,171188.0,151214.0,18749.0,4.332814947600127
62863.220786649945,171176.0,151205.0,18750.0,4.342914749344345
62863.23088645168,171180.0,151239.0,18756.0,4.353014551081287
62863.240986253426,171161.0,151175.0,18739.0,4.363114352825505
62863.25108605517,171134.0,151153.0,18733.0,4.373214154569723
62863.261185856914,171131.0,151176.0,18751.0,4.383313956313941
62863.27128565866,171170.0,151184.0,18764.0,4.393413758058159
62863.281385460396,171150.0,151184.0,18708.0,4.403513559795101
62863.29148526214,171166.0,151199.0,18741.0,4.413613361539319
62863.301585063884,171194.0,151175.0,18755.0,4.423713163283537
62863.31168486563,171163.0,151182.0,18742.0,4.433812965027755
62863.321784667365,171207.0,151214.0,18773.0,4.443912766764697
62863.33188446911,171181.0,151203.0,18756.0,4.454012568508915
62863.34198427085,171159.0,151206.0,18740.0,4.464112370253133
62863.3520840726,171175.0,151217.0,18731.0,4.474212171997351
62863.36218387434,171178.0,151206.0,18717.0,4.484311973741569
62863.37228367608,171184.0,151216.0,18755.0,4.494411775478511
62863.38238347782,171160.0,151190.0,18719.0,4.504511577222729
62863.39248327957,171185.0,151170.0,18745.0,4.514611378966947
62863.40258308131,171215.0,151223.0,18757.0,4.524711180711165
62863.412682883056,171190.0,151199.0,18755.0,4.534810982455383
62863.42278268479,171173.0,151197.0,18736.0,4.544910784192325
62863.43288248654,171205.0,151227.0,18774.0,4.555010585936543
62863.44298228828,171155.0,151194.0,18751.0,4.565110387680761
62863.453082090025,171193.0,151203.0,18761.0,4.575210189424979
62863.46318189176,171194.0,151219.0,18788.0,4.585309991161921
62863.47328169351,171200.0,151226.0,18784.0,4.595409792906139
62863.48338149525,171175.0,151195.0,18751.0,4.605509594650357
62863.493481296995,171190.0,151198.0,18767.0,4.615609396394575
62863.50358109874,171217.0,151197.0,18778.0,4.625709198138793
62863.513680900476,171157.0,151163.0,18746.0,4.635808999875735
62863.52378070222,171212.0,151214.0,18772.0,4.645908801619953
62863.533880503965,171184.0,151205.0,18764.0,4.656008603364171
62863.54398030571,171204.0,151232.0,18788.0,4.666108405108389
62863.55408010745,171166.0,151205.0,18765.0,4.676208206852607
62863.56417990919,171214.0,151216.0,18791.0,4.686308008589549
62863.574279710934,171194.0,151214.0,18767.0,4.696407810333767
62863.58437951268,171178.0,151166.0,18766.0,4.706507612077985
62863.59447931442,171180.0,151175.0,18762.0,4.716607413822203
62863.60457911616,171198.0,151221.0,18778.0,4.726707215559145
62863.614678917904,171189.0,151199.0,18732.0,4.736807017303363
62863.62477871965,171159.0,151204.0,18761.0,4.746906819047581
62863.63487852139,171171.0,151220.0,18758.0,4.757006620791799
62863.64497832314,171169.0,151186.0,18768.0,4.767106422536017
62863.65507812487,171182.0,151176.0,18772.0,4.777206224272959
62863.66517792662,171166.0,151195.0,18757.0,4.787306026017177
62863.67527772836,171118.0,151140.0,18734.0,4.797405827761395
62863.685377530106,171094.0,151141.0,18715.0,4.807505629505613
62863.69547733185,171121.0,151134.0,18738.0,4.817605431249831
62863.70557713359,171074.0,151139.0,18719.0,4.827705232986773
62863.71567693533,171036.0,151104.0,18714.0,4.837805034730991
62863.725776737076,171061.0,151127.0,18738.0,4.847904836475209
62863.73587653882,171047.0,151096.0,18712.0,4.858004638219427
62863.74597634056,171057.0,151119.0,18703.0,4.868104439956369
62863.7560761423,171056.0,151133.0,18706.0,4.878204241700587
62863.766175944045,171061.0,151137.0,18721.0,4.888304043444805
62863.77627574579,171077.0,151130.0,18692.0,4.898403845189023
62863.786375547534,171083.0,151121.0,18703.0,4.908503646933241
62863.79647534927,171085.0,151129.0,18707.0,4.918603448670183
62863.806575151015,171077.0,151174.0,18722.0,4.928703250414401
62863.81667495276,171080.0,151141.0,18696.0,4.938803052158619
62863.8267747545,171091.0,151130.0,18718.0,4.948902853902837
62863.83687455625,171105.0,151145.0,18746.0,4.959002655647055
62863.846974357984,171081.0,151119.0,18706.0,4.969102457383997
62863.85707415973,171101.0,151154.0,18742.0,4.979202259128215
62863.86717396147,171079.0,151145.0,18722.0,4.989302060872433
62863.87727376322,171064.0,151126.0,18704.0,4.999401862616651
62863.887373564954,171052.0,151136.0,18693.0,5.009501664353593
62863.8974733667,171104.0,151160.0,18745.0,5.019601466097811
62863.90757316844,171091.0,151143.0,18733.0,5.029701267842029
62863.91767297019,171071.0,151122.0,18717.0,5.039801069586247
62863.92777277193,171114.0,151163.0,18754.0,5.049900871330465
62863.93787257367,171070.0,151128.0,18739.0,5.060000673067407
62863.94797237541,171078.0,151130.0,18723.0,5.070100474811625
62863.958072177156,171094.0,151145.0,18738.0,5.080200276555843
62863.9681719789,171030.0,151109.0,18700.0,5.090300078300061
62863.978271780645,171046.0,151116.0,18699.0,5.100399880044279
62863.98837158238,171058.0,151124.0,18716.0,5.110499681781221
62863.998471384126,171071.0,151131.0,18733.0,5.120599483525439
62864.00857118587,171041.0,151121.0,18732.0,5.130699285269657
62864.018670987614,171047.0,151112.0,18709.0,5.140799087013875
62864.02877078935,171056.0,151113.0,18727.0,5.150898888750817
62864.038870591095,171095.0,151111.0,18741.0,5.160998690495035
62864.04897039284,171078.0,151110.0,18728.0,5.171098492239253
62864.059070194584,171091.0,151142.0,18746.0,5.181198293983471
62864.06916999633,171065.0,151132.0,18729.0,5.191298095727689
62864.079269798065,171058.0,151123.0,18749.0,5.201397897464631
62864.08936959981,171066.0,151141.0,18733.0,5.211497699208849
62864.09946940155,171088.0,151137.0,18753.0,5.221597500953067
62864.1095692033,171071.0,151117.0,18729.0,5.231697302697285
62864.11966900504,171045.0,151092.0,18735.0,5.241797104441503
62864.12976880678,171074.0,151128.0,18737.0,5.251896906178445
62864.13986860852,171045.0,151111.0,18744.0,5.261996707922663
62864.14996841027,171056.0,151123.0,18737.0,5.272096509666881
62864.16006821201,171087.0,151150.0,18751.0,5.282196311411099
62864.17016801375,171092.0,151126.0,18759.0,5.292296113148041
62864.18026781549,171085.0,151126.0,18720.0,5.302395914892259
62864.19036761724,171049.0,151123.0,18748.0,5.312495716636477
62864.20046741898,171033.0,151130.0,18738.0,5.322595518380695
62864.210567220725,171045.0,151099.0,18752.0,5.3326953201249125
62864.22066702246,171047.0,151122.0,18721.0,5.342795121861855
62864.23076682421,171085.0,151117.0,18748.0,5.3528949236060726
62864.24086662595,171061.0,151114.0,18740.0,5.3629947253502905
62864.250966427695,171037.0,151082.0,18751.0,5.3730945270945085
62864.26106622944,171028.0,151108.0,18763.0,5.3831943288387265
62864.271166031176,171055.0,151107.0,18754.0,5.3932941305756685
62864.28126583292,171065.0,151120.0,18730.0,5.4033939323198865
62864.291365634665,171032.0,151124.0,18716.0,5.4134937340641045
62864.30146543641,171051.0,151106.0,18720.0,5.4235935358083225
62864.311565238146,171043.0,151107.0,18724.0,5.4336933375452645
62864.32166503989,171052.0,151113.0,18747.0,5.4437931392894825
62864.331764841634,171055.0,151107.0,18739.0,5.4538929410337005
62864.34186464338,171017.0,151085.0,18731.0,5.4639927427779185
62864.35196444512,171027.0,151111.0,18751.0,5.4740925445221364
62864.36206424686,171038.0,151102.0,18739.0,5.4841923462590785
62864.372164048604,171046.0,151091.0,18729.0,5.4942921480032965
62864.38226385035,171060.0,151115.0,18758.0,5.5043919497475144
62864.39236365209,171039.0,151096.0,18775.0,5.514491751491732
62864.40246345384,171050.0,151106.0,18742.0,5.52459155323595
62864.41256325557,171022.0,151119.0,18767.0,5.534691354972892
62864.42266305732,171023.0,151085.0,18734.0,5.54479115671711
62864.43276285906,171054.0,151105.0,18768.0,5.554890958461328
62864.442862660806,171017.0,151065.0,18735.0,5.564990760205546
62864.45296246254,171007.0,151079.0,18720.0,5.575090561942488
62864.46306226429,170978.0,151030.0,18718.0,5.585190363686706
62864.47316206603,170940.0,150997.0,18706.0,5.595290165430924
62864.483261867776,170965.0,151015.0,18708.0,5.605389967175142
62864.49336166952,170969.0,151040.0,18711.0,5.61548976891936
62864.50346147126,170953.0,151024.0,18715.0,5.625589570656302
62864.513561273,170945.0,150995.0,18676.0,5.63568937240052
62864.523661074745,170961.0,151027.0,18692.0,5.645789174144738
62864.53376087649,170952.0,151038.0,18703.0,5.655888975888956
62864.54386067823,170924.0,151002.0,18684.0,5.665988777633174
62864.55396047997,170927.0,151024.0,18701.0,5.676088579370116
62864.564060281715,170953.0,151019.0,18697.0,5.686188381114334
62864.57416008346,170942.0,151011.0,18680.0,5.696288182858552
62864.5842598852,170959.0,151023.0,18696.0,5.70638798460277
62864.59435968694,170951.0,151060.0,18720.0,5.716487786339712
62864.604459488684,170942.0,151032.0,18708.0,5.72658758808393
62864.61455929043,170923.0,151025.0,18696.0,5.736687389828148
62864.62465909217,170949.0,151025.0,18686.0,5.746787191572366
62864.63475889392,170946.0,151022.0,18699.0,5.756886993316584
62864.644858695654,170965.0,151017.0,18709.0,5.766986795053526
62864.6549584974,170969.0,151032.0,18684.0,5.777086596797744
62864.66505829914,170970.0,151053.0,18732.0,5.787186398541962
62864.67515810089,170978.0,151052.0,18702.0,5.79728620028618
62864.68525790263,170962.0,151042.0,18717.0,5.807386002030398
62864.69535770437,170994.0,151077.0,18712.0,5.81748580376734
62864.70545750611,170994.0,151066.0,18732.0,5.827585605511558
62864.715557307856,170971.0,151040.0,18707.0,5.837685407255776
62864.7256571096,170963.0,151048.0,18734.0,5.847785208999994
62864.73575691134,170940.0,151060.0,18710.0,5.857885010736936
62864.74585671308,170926.0,151001.0,18706.0,5.867984812481154
62864.755956514826,170934.0,151050.0,18709.0,5.878084614225372
62864.76605631657,170915.0,151039.0,18700.0,5.88818441596959
62864.776156118314,170966.0,151004.0,18716.0,5.898284217713808
62864.78625592005,170948.0,151019.0,18703.0,5.90838401945075
62864.796355721795,170943.0,151032.0,18713.0,5.918483821194968
62864.80645552354,170985.0,151052.0,18705.0,5.928583622939186
62864.816555325284,170941.0,151021.0,18708.0,5.938683424683404
62864.82665512703,170945.0,151020.0,18714.0,5.948783226427622
62864.836754928765,170985.0,151037.0,18745.0,5.958883028164564
62864.84685473051,170968.0,151019.0,18734.0,5.968982829908782
62864.85695453225,170947.0,151049.0,18727.0,5.979082631653
62864.867054334,170948.0,151009.0,18733.0,5.989182433397218
62864.877154135735,170938.0,151005.0,18710.0,5.99928223513416
62864.88725393748,170977.0,151046.0,18740.0,6.009382036878378
62864.89735373922,170961.0,151032.0,18721.0,6.019481838622596
62864.90745354097,170997.0,151062.0,18753.0,6.029581640366814
62864.91755334271,170947.0,151029.0,18731.0,6.039681442111032
62864.92765314445,170962.0,151033.0,18720.0,6.049781243847974
62864.93775294619,170983.0,151046.0,18728.0,6.059881045592192
62864.94785274794,170937.0,151020.0,18697.0,6.06998084733641
62864.95795254968,170954.0,151029.0,18700.0,6.080080649080628
62864.968052351425,170939.0,151025.0,18710.0,6.090180450824846
62864.97815215316,170978.0,151032.0,18731.0,6.100280252561788
62864.98825195491,170975.0,151062.0,18707.0,6.110380054306006
62864.99835175665,170955.0,151026.0,18741.0,6.120479856050224
62865.008451558395,170997.0,151054.0,18739.0,6.130579657794442
62865.01855136013,170972.0,151037.0,18725.0,6.140679459531384
62865.028651161876,170940.0,151027.0,18717.0,6.150779261275602
62865.03875096362,170998.0,151043.0,18760.0,6.16087906301982
62865.048850765364,170966.0,151040.0,18709.0,6.170978864764038
62865.05895056711,170973.0,151042.0,18737.0,6.181078666508256
62865.069050368846,170978.0,151008.0,18718.0,6.191178468245198
62865.07915017059,170973.0,151057.0,18718.0,6.201278269989416
62865.089249972334,170978.0,151065.0,18755.0,6.211378071733634
62865.09934977408,170964.0,151040.0,18720.0,6.221477873477852
62865.10944957582,171001.0,151036.0,18746.0,6.23157767522207
62865.11954937756,170968.0,151033.0,18718.0,6.241677476959012
62865.129649179304,170987.0,151041.0,18758.0,6.25177727870323
62865.13974898105,170973.0,151036.0,18731.0,6.261877080447448
62865.14984878279,170939.0,151020.0,18720.0,6.271976882191666
62865.15994858453,170958.0,151012.0,18712.0,6.282076683928608
62865.17004838627,170950.0,151023.0,18707.0,6.292176485672826
62865.18014818802,170967.0,151025.0,18732.0,6.302276287417044
62865.19024798976,170962.0,151024.0,18737.0,6.312376089161262
62865.200347791506,170946.0,151010.0,18732.0,6.32247589090548
62865.21044759324,170977.0,151037.0,18735.0,6.332575692642422
62865.22054739499,170981.0,151037.0,18737.0,6.34267549438664
62865.23064719673,170970.0,151033.0,18756.0,6.352775296130858
62865.240746998476,170980.0,151059.0,18736.0,6.362875097875076
62865.25084680022,170960.0,151015.0,18743.0,6.372974899619294
62865.26094660196,170994.0,151065.0,18765.0,6.383074701356236
62865.2710464037,170978.0,151044.0,18741.0,6.393174503100454
62865.281146205445,170949.0,151038.0,18727.0,6.403274304844672
62865.29124600719,170932.0,151003.0,18709.0,6.41337410658889
62865.301345808926,170909.0,150997.0,18687.0,6.423473908325832
62865.31144561067,170912.0,150985.0,18707.0,6.43357371007005
62865.321545412415,170879.0,150948.0,18702.0,6.443673511814268
62865.33164521416,170896.0,150938.0,18678.0,6.453773313558486
62865.3417450159,170865.0,150944.0,18670.0,6.463873115302704
62865.35184481764,170884.0,150975.0,18686.0,6.473972917039646
62865.361944619384,170869.0,150983.0,18671.0,6.484072718783864
62865.37204442113,170931.0,151009.0,18702.0,6.494172520528082
62865.38214422287,170892.0,150969.0,18696.0,6.5042723222723
62865.39224402462,170932.0,150979.0,18711.0,6.514372124016518
62865.402343826354,170915.0,151020.0,18700.0,6.52447192575346
62865.4124436281,170898.0,151027.0,18695.0,6.534571727497678
62865.42254342984,170891.0,151013.0,18698.0,6.544671529241896
62865.43264323159,170918.0,151015.0,18700.0,6.554771330986114
62865.44274303332,170957.0,151001.0,18717.0,6.564871132723056
62865.45284283507,170907.0,150981.0,18695.0,6.574970934467274
62865.46294263681,170946.0,151013.0,18731.0,6.585070736211492
62865.473042438556,170915.0,151005.0,18693.0,6.59517053795571
62865.4831422403,170928.0,151014.0,18725.0,6.605270339699928
62865.49324204204,170924.0,150996.0,18697.0,6.61537014143687
62865.50334184378,170904.0,150988.0,18687.0,6.625469943181088
62865.513441645526,170922.0,151013.0,18698.0,6.635569744925306
62865.52354144727,170932.0,150971.0,18724.0,6.645669546669524
62865.53364124901,170930.0,150979.0,18722.0,6.655769348406466
62865.54374105075,170888.0,150992.0,18691.0,6.665869150150684
62865.553840852495,170931.0,151010.0,18705.0,6.675968951894902
62865.56394065424,170899.0,151011.0,18691.0,6.68606875363912
62865.574040455984,170933.0,151002.0,18728.0,6.696168555383338
62865.58414025772,170909.0,151012.0,18696.0,6.70626835712028
62865.594240059465,170912.0,150992.0,18704.0,6.716368158864498
62865.60433986121,170876.0,151000.0,18678.0,6.726467960608716
62865.61443966295,170893.0,150972.0,18689.0,6.736567762352934
62865.6245394647,170900.0,151037.0,18714.0,6.746667564097152
62865.634639266435,170918.0,151001.0,18712.0,6.756767365834094
62865.64473906818,170905.0,151001.0,18683.0,6.766867167578312
62865.65483886992,170967.0,151010.0,18738.0,6.77696696932253
62865.66493867167,170940.0,151019.0,18732.0,6.787066771066748
62865.675038473404,170919.0,151010.0,18709.0,6.79716657280369
62865.68513827515,170948.0,151006.0,18740.0,6.807266374547908
62865.69523807689,170924.0,151023.0,18712.0,6.817366176292126
62865.70533787864,170925.0,151000.0,18691.0,6.827465978036344
62865.71543768038,170936.0,151026.0,18708.0,6.837565779780562
62865.72553748212,170941.0,151018.0,18697.0,6.847665581517504
62865.73563728386,170954.0,151044.0,18749.0,6.857765383261722
62865.74573708561,170938.0,151017.0,18703.0,6.86786518500594
62865.75583688735,170949.0,151025.0,18710.0,6.8779649867501575
62865.765936689095,170948.0,151045.0,18734.0,6.8880647884943755
62865.77603649083,170916.0,151012.0,18692.0,6.898164590231318
62865.786136292576,170927.0,151013.0,18731.0,6.9082643919755355
62865.79623609432,170962.0,151016.0,18727.0,6.9183641937197535
62865.806335896064,170956.0,151018.0,18755.0,6.9284639954639715
62865.8164356978,170968.0,151025.0,18718.0,6.9385637972009135
62865.826535499546,170992.0,151091.0,18741.0,6.9486635989451315
62865.83663530129,170979.0,151055.0,18696.0,6.9587634006893495
62865.846735103034,171007.0,151046.0,18739.0,6.9688632024335675
62865.85683490478,171016.0,151074.0,18721.0,6.9789630041777855
62865.866934706515,171032.0,151062.0,18717.0,6.9890628059147275
62865.87703450826,171018.0,151058.0,18718.0,6.9991626076589455
62865.88713431,171021.0,151074.0,18733.0,7.0092624094031635
62865.89723411175,171031.0,151072.0,18732.0,7.0193622111473815
62865.90733391349,171034.0,151061.0,18731.0,7.029462012891599
62865.91743371523,171047.0,151098.0,18732.0,7.0395618146285415
62865.92753351697,171065.0,151066.0,18765.0,7.0496616163727595
62865.93763331872,171016.0,151079.0,18742.0,7.059761418116977
62865.94773312046,171030.0,151093.0,18743.0,7.069861219861195
62865.9578329222,171035.0,151049.0,18743.0,7.0799610215981374
62865.96793272394,171034.0,151083.0,18746.0,7.090060823342355
62865.97803252569,171052.0,151076.0,18735.0,7.100160625086573
62865.98813232743,171050.0,151062.0,18754.0,7.110260426830791
62865.998232129175,171018.0,151053.0,18734.0,7.120360228575009
62866.00833193091,171026.0,151083.0,18737.0,7.130460030311951
62866.01843173266,171058.0,151086.0,18771.0,7.140559832056169
62866.0285315344,171041.0,151046.0,18759.0,7.150659633800387
62866.038631336145,171012.0,151043.0,18731.0,7.160759435544605
62866.04873113789,171030.0,151075.0,18745.0,7.170859237288823
62866.058830939626,171048.0,151064.0,18752.0,7.180959039025765
62866.06893074137,171020.0,151047.0,18727.0,7.191058840769983
62866.079030543115,171040.0,151109.0,18767.0,7.201158642514201
62866.08913034486,171025.0,151065.0,18750.0,7.211258444258419
62866.099230146596,171026.0,151051.0,18742.0,7.221358245995361
62866.10932994834,171034.0,151076.0,18761.0,7.231458047739579
62866.119429750084,171030.0,151073.0,18751.0,7.241557849483797
62866.12952955183,170992.0,151047.0,18721.0,7.251657651228015
62866.13962935357,170973.0,151013.0,18723.0,7.261757452972233
62866.14972915531,170970.0,151031.0,18708.0,7.271857254709175
62866.159828957054,170936.0,150968.0,18695.0,7.281957056453393
62866.1699287588,170945.0,150994.0,18696.0,7.292056858197611
62866.18002856054,170933.0,150993.0,18677.0,7.302156659941829
62866.19012836229,170933.0,151027.0,18676.0,7.312256461686047
62866.20022816402,170936.0,151008.0,18667.0,7.322356263422989
62866.21032796577,170955.0,151031.0,18689.0,7.332456065167207
62866.22042776751,170994.0,151052.0,18715.0,7.342555866911425
62866.230527569256,170982.0,151047.0,18714.0,7.352655668655643
62866.24062737099,170982.0,151018.0,18692.0,7.362755470392585
62866.25072717274,170992.0,151048.0,18700.0,7.372855272136803
62866.26082697448,171008.0,151067.0,18708.0,7.382955073881021
62866.270926776226,170978.0,151034.0,18691.0,7.393054875625239
62866.28102657797,171016.0,151072.0,18730.0,7.403154677369457
62866.29112637971,170995.0,151059.0,18703.0,7.413254479106399
62866.30122618145,170995.0,151021.0,18716.0,7.423354280850617
62866.311325983195,170986.0,151020.0,18715.0,7.433454082594835
62866.32142578494,171021.0,151074.0,18726.0,7.443553884339053
62866.331525586684,170984.0,151028.0,18671.0,7.453653686083271
62866.34162538842,171016.0,151034.0,18732.0,7.463753487820213
62866.351725190165,170994.0,151034.0,18703.0,7.473853289564431
62866.36182499191,171003.0,151047.0,18726.0,7.483953091308649
62866.37192479365,171011.0,151064.0,18720.0,7.494052893052867
62866.38202459539,170989.0,151033.0,18711.0,7.504152694789809
62866.392124397134,170980.0,151025.0,18736.0,7.514252496534027
62866.40222419888,170976.0,151049.0,18708.0,7.524352298278245
62866.41232400062,171022.0,151034.0,18735.0,7.534452100022463
62866.42242380237,170977.0,151068.0,18706.0,7.544551901766681
62866.432523604104,170983.0,151017.0,18709.0,7.554651703503623
62866.44262340585,170989.0,151034.0,18704.0,7.564751505247841
62866.45272320759,171019.0,151061.0,18728.0,7.574851306992059
62866.46282300934,170967.0,151030.0,18739.0,7.584951108736277
62866.47292281108,170973.0,151035.0,18702.0,7.595050910480495
62866.48302261282,171015.0,151048.0,18737.0,7.605150712217437
62866.49312241456,171004.0,151034.0,18708.0,7.615250513961655
62866.503222216306,171008.0,151055.0,18723.0,7.625350315705873
62866.51332201805,170970.0,151032.0,18707.0,7.635450117450091
62866.52342181979,170972.0,151036.0,18716.0,7.645549919187033
62866.53352162153,170967.0,151033.0,18699.0,7.655649720931251
62866.543621423276,170989.0,151057.0,18723.0,7.665749522675469
62866.55372122502,170982.0,151041.0,18725.0,7.675849324419687
62866.563821026764,171010.0,151019.0,18731.0,7.685949126163905
62866.5739208285,170973.0,151043.0,18699.0,7.696048927900847
62866.584020630246,171022.0,151048.0,18717.0,7.706148729645065
62866.59412043199,171049.0,151060.0,18732.0,7.716248531389283
62866.604220233734,170994.0,151031.0,18704.0,7.726348333133501
62866.61432003548,171003.0,151052.0,18727.0,7.736448134877719
62866.624419837215,171030.0,151052.0,18722.0,7.746547936614661
62866.63451963896,171012.0,151048.0,18745.0,7.756647738358879
62866.6446194407,171053.0,151075.0,18743.0,7.766747540103097
62866.65471924245,171033.0,151084.0,18746.0,7.776847341847315
62866.664819044185,171016.0,151051.0,18722.0,7.786947143584257
62866.67491884593,171035.0,151036.0,18735.0,7.797046945328475
62866.68501864767,171046.0,151082.0,18758.0,7.807146747072693
62866.69511844942,171019.0,151037.0,18731.0,7.817246548816911
62866.70521825116,171018.0,151059.0,18736.0,7.827346350561129
62866.7153180529,171019.0,151046.0,18738.0,7.837446152298071
62866.72541785464,170987.0,151076.0,18732.0,7.847545954042289
62866.73551765639,171001.0,151066.0,18728.0,7.857645755786507
62866.74561745813,171032.0,151059.0,18738.0,7.867745557530725
62866.755717259875,171054.0,151059.0,18758.0,7.877845359274943
62866.76581706161,171039.0,151064.0,18717.0,7.887945161011885
62866.77591686336,171006.0,151052.0,18727.0,7.898044962756103
62866.7860166651,171037.0,151062.0,18738.0,7.908144764500321
62866.796116466845,171029.0,151096.0,18746.0,7.918244566244539
62866.80621626858,171008.0,151055.0,18723.0,7.928344367981481
62866.816316070326,171060.0,151091.0,18766.0,7.938444169725699
62866.82641587207,171052.0,151069.0,18744.0,7.948543971469917
62866.836515673815,171023.0,151045.0,18751.0,7.958643773214135
62866.84661547556,171071.0,151074.0,18766.0,7.968743574958353
62866.856715277296,171023.0,151048.0,18746.0,7.978843376695295
62866.86681507904,171066.0,151095.0,18728.0,7.988943178439513
62866.876914880784,171012.0,151057.0,18752.0,7.999042980183731
62866.88701468253,171062.0,151082.0,18772.0,8.009142781927949
62866.89711448427,171031.0,151039.0,18751.0,8.019242583672167
62866.90721428601,171034.0,151072.0,18748.0,8.029342385409109
62866.917314087754,171040.0,151058.0,18755.0,8.039442187153327
62866.9274138895,171019.0,151047.0,18761.0,8.049541988897545
62866.93751369124,171000.0,151048.0,18720.0,8.059641790641763
62866.94761349298,171026.0,151035.0,18756.0,8.069741592378705
62866.95771329472,170993.0,151026.0,18735.0,8.079841394122923
62866.96781309647,170992.0,151057.0,18732.0,8.08994119586714
62866.97791289821,171003.0,151015.0,18728.0,8.100040997611359
62866.988012699956,170952.0,150999.0,18713.0,8.110140799355577
62866.99811250169,170915.0,151000.0,18689.0,8.120240601092519
62867.00821230344,170924.0,151010.0,18680.0,8.130340402836737
62867.01831210518,170991.0,151028.0,18719.0,8.140440204580955
62867.028411906926,170957.0,151005.0,18697.0,8.150540006325173
62867.03851170867,170987.0,151030.0,18703.0,8.16063980806939
62867.04861151041,171005.0,151054.0,18728.0,8.170739609806333
62867.05871131215,170980.0,151016.0,18704.0,8.18083941155055
62867.068811113895,170967.0,151040.0,18718.0,8.190939213294769
62867.07891091564,170993.0,151024.0,18698.0,8.201039015038987
62867.08901071738,171012.0,151029.0,18735.0,8.211138816775929
62867.09911051912,170963.0,151013.0,18704.0,8.221238618520147
62867.109210320865,171000.0,151026.0,18718.0,8.231338420264365
62867.11931012261,171002.0,151048.0,18712.0,8.241438222008583
62867.12940992435,170946.0,151053.0,18712.0,8.2515380237528
62867.13950972609,170977.0,151034.0,18698.0,8.261637825489743
62867.149609527834,171003.0,151062.0,18695.0,8.27173762723396
62867.15970932958,171023.0,151050.0,18720.0,8.281837428978179
62867.16980913132,171008.0,151061.0,18701.0,8.291937230722397
62867.17990893307,171030.0,151072.0,18721.0,8.302037032466615
62867.190008734804,171011.0,151067.0,18736.0,8.312136834203557
62867.20010853655,171014.0,151048.0,18722.0,8.322236635947775
62867.21020833829,170992.0,151061.0,18720.0,8.332336437691993
62867.22030814004,171038.0,151050.0,18740.0,8.34243623943621
62867.23040794177,170996.0,151036.0,18719.0,8.352536041173153
62867.24050774352,171015.0,151049.0,18723.0,8.36263584291737
62867.25060754526,170963.0,151020.0,18749.0,8.372735644661589
62867.260707347006,170975.0,151035.0,18701.0,8.382835446405807
62867.27080714875,171022.0,151075.0,18750.0,8.392935248150025
62867.28090695049,171016.0,151060.0,18721.0,8.403035049886967
62867.29100675223,171047.0,151056.0,18743.0,8.413134851631185
62867.301106553976,171010.0,151043.0,18701.0,8.423234653375403
62867.31120635572,171032.0,151064.0,18736.0,8.43333445511962
62867.321306157464,171023.0,151048.0,18728.0,8.443434256863839
62867.3314059592,171016.0,151031.0,18719.0,8.45353405860078
62867.341505760945,171018.0,151074.0,18720.0,8.463633860344999
62867.35160556269,171041.0,151067.0,18705.0,8.473733662089217
62867.361705364434,171079.0,151074.0,18726.0,8.483833463833435
62867.37180516617,171045.0,151064.0,18723.0,8.493933265570377
62867.381904967915,171084.0,151082.0,18756.0,8.504033067314595
62867.39200476966,171056.0,151036.0,18747.0,8.514132869058813
62867.4021045714,171083.0,151104.0,18730.0,8.52423267080303
62867.41220437315,171066.0,151085.0,18742.0,8.534332472547248
62867.422304174885,171086.0,151081.0,18756.0,8.54443227428419
62867.43240397663,171076.0,151061.0,18715.0,8.554532076028408
62867.44250377837,171092.0,151078.0,18768.0,8.564631877772626
62867.45260358012,171090.0,151099.0,18738.0,8.574731679516844
62867.46270338186,171066.0,151061.0,18747.0,8.584831481261062
62867.4728031836,171108.0,151108.0,18767.0,8.594931282998004
62867.48290298534,171124.0,151090.0,18757.0,8.605031084742222
62867.49300278709,171118.0,151104.0,18755.0,8.61513088648644
62867.50310258883,171115.0,151075.0,18735.0,8.625230688230658
62867.51320239057,171144.0,151097.0,18747.0,8.6353304899676
62867.52330219231,171105.0,151066.0,18730.0,8.645430291711818
62867.53340199406,171100.0,151094.0,18739.0,8.655530093456036
62867.5435017958,171099.0,151113.0,18747.0,8.665629895200254
62867.553601597545,171111.0,151073.0,18743.0,8.675729696944472
62867.56370139928,171128.0,151085.0,18754.0,8.685829498681414
62867.573801201026,171138.0,151102.0,18756.0,8.695929300425632
62867.58390100277,171125.0,151113.0,18787.0,8.70602910216985
62867.594000804515,171137.0,151105.0,18767.0,8.716128903914068
62867.60410060626,171122.0,151134.0,18766.0,8.726228705658286
62867.614200407996,171153.0,151106.0,18761.0,8.736328507395228
62867.62430020974,171198.0,151117.0,18802.0,8.746428309139446
62867.634400011484,171125.0,151091.0,18761.0,8.756528110883664
62867.64449981323,171163.0,151132.0,18791.0,8.766627912627882
62867.654599614965,171182.0,151128.0,18780.0,8.776727714364824
62867.66469941671,171123.0,151124.0,18736.0,8.786827516109042
62867.674799218454,171203.0,151148.0,18796.0,8.79692731785326
62867.6848990202,171217.0,151138.0,18800.0,8.807027119597478
62867.69499882194,171189.0,151146.0,18779.0,8.817126921341696
62867.70509862368,171185.0,151118.0,18758.0,8.827226723078638
62867.71519842542,171209.0,151125.0,18775.0,8.837326524822856
62867.72529822717,171158.0,151099.0,18778.0,8.847426326567074
62867.73539802891,171171.0,151128.0,18778.0,8.857526128311292
62867.745497830656,171145.0,151109.0,18759.0,8.86762593005551
62867.75559763239,171133.0,151109.0,18751.0,8.877725731792452
62867.76569743414,171150.0,151105.0,18740.0,8.88782553353667
62867.77579723588,171140.0,151085.0,18749.0,8.897925335280888
62867.785897037626,171113.0,151058.0,18754.0,8.908025137025106
62867.79599683936,171064.0,151047.0,18735.0,8.918124938762048
62867.80609664111,171071.0,151101.0,18733.0,8.928224740506266
62867.81619644285,171114.0,151094.0,18730.0,8.938324542250484
62867.826296244595,171140.0,151083.0,18744.0,8.948424343994702
62867.83639604634,171099.0,151087.0,18740.0,8.95852414573892
62867.846495848076,171162.0,151111.0,18757.0,8.968623947475862
62867.85659564982,171158.0,151105.0,18751.0,8.97872374922008
62867.866695451565,171141.0,151089.0,18744.0,8.988823550964298
62867.87679525331,171141.0,151141.0,18745.0,8.998923352708516
62867.88689505505,171158.0,151116.0,18742.0,9.009023154452734
62867.89699485679,171173.0,151125.0,18754.0,9.019122956189676
62867.907094658534,171132.0,151095.0,18733.0,9.029222757933894
62867.91719446028,171187.0,151121.0,18765.0,9.039322559678112
62867.92729426202,171172.0,151118.0,18757.0,9.04942236142233
62867.93739406376,171152.0,151112.0,18742.0,9.059522163159272
62867.947493865504,171148.0,151156.0,18756.0,9.06962196490349
62867.95759366725,171201.0,151134.0,18782.0,9.079721766647708
62867.96769346899,171171.0,151119.0,18751.0,9.089821568391926
62867.97779327074,171181.0,151118.0,18761.0,9.099921370136144
62867.98789307247,171169.0,151101.0,18790.0,9.110021171873086
62867.99799287422,171168.0,151112.0,18768.0,9.120120973617304
62868.00809267596,171155.0,151118.0,18765.0,9.130220775361522
62868.018192477706,171195.0,151127.0,18782.0,9.14032057710574
62868.02829227945,171194.0,151137.0,18762.0,9.150420378849958
62868.03839208119,171153.0,151111.0,18753.0,9.1605201805869
62868.04849188293,171224.0,151134.0,18786.0,9.170619982331118
62868.058591684676,171201.0,151141.0,18767.0,9.180719784075336
62868.06869148642,171168.0,151155.0,18741.0,9.190819585819554
62868.07879128816,171167.0,151142.0,18753.0,9.200919387556496
62868.0888910899,171182.0,151135.0,18756.0,9.211019189300714
62868.098990891645,171194.0,151120.0,18766.0,9.221118991044932
62868.10909069339,171200.0,151130.0,18760.0,9.23121879278915
62868.119190495134,171205.0,151119.0,18740.0,9.241318594533368
62868.12929029687,171191.0,151132.0,18760.0,9.25141839627031
62868.139390098615,171216.0,151163.0,18770.0,9.261518198014528
62868.14948990036,171198.0,151139.0,18772.0,9.271617999758746
62868.1595897021,171216.0,151136.0,18765.0,9.281717801502964
62868.16968950385,171235.0,151139.0,18741.0,9.291817603247182
62868.179789305585,171222.0,151130.0,18794.0,9.301917404984124
62868.18988910733,171226.0,151144.0,18781.0,9.312017206728342
62868.19998890907,171143.0,151144.0,18752.0,9.32211700847256
62868.21008871082,171199.0,151179.0,18783.0,9.332216810216778
62868.220188512554,171227.0,151164.0,18785.0,9.34231661195372
62868.2302883143,171226.0,151151.0,18789.0,9.352416413697938
62868.24038811604,171250.0,151141.0,18782.0,9.362516215442156
62868.25048791779,171245.0,151148.0,18802.0,9.372616017186374
62868.26058771953,171221.0,151144.0,18764.0,9.382715818930592
62868.27068752127,171240.0,151157.0,18789.0,9.392815620667534
62868.28078732301,171231.0,151178.0,18792.0,9.402915422411752
62868.29088712476,171229.0,151163.0,18779.0,9.41301522415597
62868.3009869265,171259.0,151153.0,18795.0,9.423115025900188
62868.311086728245,171248.0,151165.0,18791.0,9.433214827644406
62868.32118652998,171256.0,151172.0,18805.0,9.443314629381348
62868.331286331726,171231.0,151163.0,18785.0,9.453414431125566
62868.34138613347,171270.0,151183.0,18817.0,9.463514232869784
62868.351485935214,171265.0,151162.0,18792.0,9.473614034614002
62868.36158573695,171272.0,151169.0,18807.0,9.483713836350944
62868.371685538696,171298.0,151180.0,18790.0,9.493813638095162
62868.38178534044,171290.0,151141.0,18809.0,9.50391343983938
62868.391885142184,171284.0,151194.0,18794.0,9.514013241583598
62868.40198494393,171282.0,151166.0,18784.0,9.524113043327816
62868.412084745665,171297.0,151196.0,18825.0,9.534212845064758
62868.42218454741,171291.0,151193.0,18795.0,9.544312646808976
62868.43228434915,171292.0,151177.0,18800.0,9.554412448553194
62868.4423841509,171293.0,151158.0,18807.0,9.564512250297412
62868.45248395264,171312.0,151213.0,18801.0,9.57461205204163
62868.46258375438,171265.0,151159.0,18816.0,9.584711853778572
62868.47268355612,171293.0,151204.0,18770.0,9.59481165552279
62868.48278335787,171251.0,151145.0,18829.0,9.604911457267008
62868.49288315961,171248.0,151166.0,18794.0,9.615011259011226
62868.50298296135,171248.0,151124.0,18765.0,9.625111060748168
62868.51308276309,171226.0,151145.0,18767.0,9.635210862492386
62868.52318256484,171254.0,151124.0,18784.0,9.645310664236604
62868.53328236658,171237.0,151152.0,18781.0,9.655410465980822
62868.543382168325,171201.0,151098.0,18774.0,9.66551026772504
62868.55348197006,171207.0,151131.0,18746.0,9.675610069461982
62868.56358177181,171212.0,151117.0,18763.0,9.6857098712062
62868.57368157355,171224.0,151140.0,18749.0,9.695809672950418
62868.583781375295,171205.0,151118.0,18760.0,9.705909474694636
62868.59388117704,171209.0,151111.0,18732.0,9.716009276438854
62868.603980978776,171194.0,151149.0,18752.0,9.726109078175796
62868.61408078052,171203.0,151157.0,18772.0,9.736208879920014
62868.624180582265,171212.0,151163.0,18766.0,9.746308681664232
62868.63428038401,171238.0,151131.0,18789.0,9.75640848340845
62868.644380185746,171219.0,151145.0,18768.0,9.766508285145392
62868.65447998749,171224.0,151169.0,18773.0,9.77660808688961
62868.664579789234,171245.0,151160.0,18782.0,9.786707888633828
62868.67467959098,171247.0,151137.0,18799.0,9.796807690378046
62868.68477939272,171248.0,151156.0,18779.0,9.806907492122264
62868.69487919446,171220.0,151149.0,18778.0,9.817007293859206
62868.704978996204,171263.0,151145.0,18789.0,9.827107095603424
62868.71507879795,171246.0,151152.0,18776.0,9.837206897347642
62868.72517859969,171256.0,151163.0,18782.0,9.84730669909186
62868.73527840144,171243.0,151162.0,18766.0,9.857406500836078
62868.74537820317,171233.0,151134.0,18761.0,9.86750630257302
62868.75547800492,171252.0,151186.0,18792.0,9.877606104317238
62868.76557780666,171245.0,151135.0,18779.0,9.887705906061456
62868.775677608406,171240.0,151137.0,18794.0,9.897805707805674
62868.78577741014,171251.0,151147.0,18806.0,9.907905509542616
62868.79587721189,171250.0,151137.0,18780.0,9.918005311286834
62868.80597701363,171243.0,151145.0,18794.0,9.928105113031052
62868.816076815376,171222.0,151161.0,18761.0,9.93820491477527
62868.82617661712,171251.0,151163.0,18802.0,9.948304716519488
62868.83627641886,171243.0,151123.0,18793.0,9.95840451825643
62868.8463762206,171237.0,151144.0,18782.0,9.968504320000648
62868.856476022345,171223.0,151129.0,18802.0,9.978604121744866
62868.86657582409,171227.0,151168.0,18775.0,9.988703923489084
62868.876675625834,171242.0,151140.0,18792.0,9.998803725233302
62868.88677542757,171217.0,151141.0,18784.0,10.008903526970244
62868.896875229315,171225.0,151141.0,18784.0,10.019003328714462
62868.90697503106,171226.0,151138.0,18769.0,10.02910313045868
62868.9170748328,171229.0,151108.0,18770.0,10.039202932202898
62868.92717463454,171231.0,151154.0,18786.0,10.04930273393984
62868.937274436284,171262.0,151114.0,18808.0,10.059402535684058
62868.94737423803,171206.0,151131.0,18777.0,10.069502337428275
62868.95747403977,171230.0,151125.0,18790.0,10.079602139172493
62868.96757384152,171247.0,151150.0,18795.0,10.089701940916711
62868.977673643254,171222.0,151123.0,18797.0,10.099801742653653
62868.987773445,171240.0,151124.0,18795.0,10.109901544397871
62868.99787324674,171271.0,151171.0,18797.0,10.12000134614209
62869.00797304849,171232.0,151172.0,18785.0,10.130101147886307
62869.01807285023,171230.0,151168.0,18774.0,10.140200949630525
62869.02817265197,171251.0,151165.0,18818.0,10.150300751367467
62869.03827245371,171243.0,151127.0,18806.0,10.160400553111685
62869.048372255456,171249.0,151158.0,18801.0,10.170500354855903
62869.0584720572,171244.0,151135.0,18796.0,10.180600156600121
62869.06857185894,171262.0,151184.0,18823.0,10.190699958337063
62869.07867166068,171253.0,151123.0,18779.0,10.200799760081281
62869.088771462426,171266.0,151154.0,18821.0,10.2108995618255
62869.09887126417,171258.0,151181.0,18800.0,10.220999363569717
62869.108971065914,171252.0,151147.0,18788.0,10.231099165313935
62869.11907086765,171247.0,151124.0,18801.0,10.241198967050877
62869.129170669396,171270.0,151139.0,18833.0,10.251298768795095
62869.13927047114,171221.0,151145.0,18779.0,10.261398570539313
62869.149370272884,171223.0,151152.0,18804.0,10.271498372283531
62869.15947007463,171276.0,151172.0,18828.0,10.28159817402775
62869.169569876365,171243.0,151119.0,18809.0,10.291697975764691
62869.17966967811,171249.0,151140.0,18805.0,10.30179777750891
62869.18976947985,171235.0,151110.0,18825.0,10.311897579253127
62869.1998692816,171212.0,151125.0,18806.0,10.321997380997345
62869.209969083335,171195.0,151133.0,18790.0,10.332097182734287
62869.22006888508,171213.0,151112.0,18785.0,10.342196984478505
62869.23016868682,171219.0,151087.0,18790.0,10.352296786222723
62869.24026848857,171173.0,151073.0,18754.0,10.362396587966941
62869.25036829031,171186.0,151075.0,18776.0,10.37249638971116
62869.26046809205,171188.0,151111.0,18770.0,10.382596191448101
62869.27056789379,171146.0,151107.0,18759.0,10.39269599319232
62869.28066769554,171176.0,151112.0,18761.0,10.402795794936537
62869.29076749728,171175.0,151139.0,18776.0,10.412895596680755
62869.300867299025,171198.0,151117.0,18769.0,10.422995398424973
62869.31096710076,171192.0,151116.0,18765.0,10.433095200161915
62869.32106690251,171205.0,151099.0,18780.0,10.443195001906133
62869.33116670425,171220.0,151094.0,18796.0,10.453294803650351
62869.341266505995,171195.0,151131.0,18779.0,10.46339460539457
62869.35136630773,171197.0,151132.0,18761.0,10.473494407131511
62869.361466109476,171243.0,151149.0,18795.0,10.48359420887573
62869.37156591122,171205.0,151118.0,18775.0,10.493694010619947
62869.381665712965,171228.0,151154.0,18787.0,10.503793812364165
62869.39176551471,171239.0,151158.0,18800.0,10.513893614108383
62869.401865316446,171211.0,151146.0,18788.0,10.523993415845325
62869.41196511819,171238.0,151183.0,18795.0,10.534093217589543
62869.422064919934,171243.0,151147.0,18785.0,10.544193019333761
62869.43216472168,171291.0,151153.0,18817.0,10.55429282107798
62869.44226452342,171227.0,151134.0,18792.0,10.564392622822197
62869.45236432516,171266.0,151151.0,18796.0,10.57449242455914
62869.462464126904,171244.0,151149.0,18795.0,10.584592226303357
62869.47256392865,171223.0,151138.0,18788.0,10.594692028047575
62869.48266373039,171213.0,151148.0,18780.0,10.604791829791793
62869.49276353213,171229.0,151153.0,18822.0,10.614891631528735
62869.50286333387,171238.0,151139.0,18786.0,10.624991433272953
62869.51296313562,171206.0,151112.0,18786.0,10.635091235017171
62869.52306293736,171248.0,151119.0,18810.0,10.64519103676139
62869.533162739106,171228.0,151141.0,18794.0,10.655290838505607
62869.54326254084,171213.0,151131.0,18770.0,10.66539064024255
62869.55336234259,171228.0,151169.0,18791.0,10.675490441986767
62869.56346214433,171254.0,151173.0,18808.0,10.685590243730985
62869.573561946076,171240.0,151129.0,18783.0,10.695690045475203
62869.58366174782,171245.0,151150.0,18811.0,10.705789847219421
62869.59376154956,171249.0,151163.0,18793.0,10.715889648956363
62869.6038613513,171221.0,151131.0,18779.0,10.725989450700581
62869.613961153045,171262.0,151182.0,18817.0,10.736089252444799
62869.62406095479,171264.0,151152.0,18808.0,10.746189054189017
62869.63416075653,171258.0,151151.0,18795.0,10.756288855925959
62869.64426055827,171243.0,151129.0,18766.0,10.766388657670177
62869.654360360015,171280.0,151169.0,18814.0,10.776488459414395
62869.66446016176,171232.0,151135.0,18794.0,10.786588261158613
62869.6745599635,171233.0,151160.0,18787.0,10.796688062902831
62869.68465976524,171246.0,151163.0,18788.0,10.806787864639773
62869.694759566984,171224.0,151138.0,18814.0,10.816887666383991
62869.70485936873,171239.0,151142.0,18797.0,10.826987468128209
62869.71495917047,171251.0,151145.0,18802.0,10.837087269872427
62869.72505897222,171256.0,151132.0,18823.0,10.847187071616645
62869.735158773954,171235.0,151139.0,18796.0,10.857286873353587
62869.7452585757,171229.0,151175.0,18814.0,10.867386675097805
62869.75535837744,171255.0,151147.0,18810.0,10.877486476842023
62869.76545817919,171290.0,151153.0,18841.0,10.887586278586241
62869.77555798092,171237.0,151136.0,18798.0,10.897686080323183
62869.78565778267,171271.0,151147.0,18818.0,10.907785882067401
62869.79575758441,171248.0,151155.0,18802.0,10.917885683811619
62869.805857386156,171198.0,151134.0,18815.0,10.927985485555837
62869.8159571879,171269.0,151155.0,18828.0,10.938085287300055
62869.82605698964,171254.0,151140.0,18827.0,10.948185089036997
62869.83615679138,171244.0,151147.0,18805.0,10.958284890781215
62869.846256593126,171227.0,151121.0,18802.0,10.968384692525433
62869.85635639487,171262.0,151125.0,18809.0,10.978484494269651
62869.866456196614,171200.0,151096.0,18794.0,10.988584296013869
62869.87655599835,171207.0,151124.0,18791.0,10.998684097750811
62869.886655800095,171175.0,151123.0,18772.0,11.008783899495029
62869.89675560184,171162.0,151100.0,18763.0,11.018883701239247
62869.906855403584,171164.0,151071.0,18758.0,11.028983502983465
62869.91695520532,171161.0,151080.0,18775.0,11.039083304720407
62869.927055007065,171136.0,151077.0,18791.0,11.049183106464625
62869.93715480881,171081.0,151060.0,18736.0,11.059282908208843
62869.94725461055,171124.0,151087.0,18778.0,11.06938270995306
62869.9573544123,171146.0,151076.0,18754.0,11.079482511697279
62869.967454214035,171163.0,151070.0,18777.0,11.08958231343422
62869.97755401578,171138.0,151069.0,18759.0,11.099682115178439
62869.98765381752,171154.0,151089.0,18787.0,11.109781916922657
62869.99775361927,171160.0,151102.0,18758.0,11.119881718666875
62870.007853421004,171145.0,151102.0,18767.0,11.129981520403817
62870.01795322275,171161.0,151079.0,18786.0,11.140081322148035
62870.02805302449,171165.0,151094.0,18760.0,11.150181123892253
62870.03815282624,171171.0,151101.0,18786.0,11.16028092563647
62870.04825262798,171161.0,151074.0,18773.0,11.170380727380689
62870.05835242972,171199.0,151128.0,18794.0,11.18048052911763
62870.06845223146,171180.0,151077.0,18768.0,11.190580330861849
62870.07855203321,171184.0,151110.0,18785.0,11.200680132606067
62870.08865183495,171162.0,151115.0,18789.0,11.210779934350285
62870.098751636695,171203.0,151085.0,18809.0,11.220879736094503
62870.10885143843,171182.0,151094.0,18758.0,11.230979537831445
62870.118951240176,171185.0,151106.0,18818.0,11.241079339575663
62870.12905104192,171175.0,151111.0,18785.0,11.25117914131988
62870.139150843665,171166.0,151057.0,18768.0,11.261278943064099
62870.1492506454,171177.0,151088.0,18806.0,11.27137874480104
62870.159350447146,171179.0,151084.0,18797.0,11.281478546545259
62870.16945024889,171161.0,151097.0,18779.0,11.291578348289477
62870.179550050634,171156.0,151087.0,18761.0,11.301678150033695
62870.18964985238,171186.0,151104.0,18792.0,11.311777951777913
62870.199749654115,171153.0,151085.0,18768.0,11.321877753514855
62870.20984945586,171142.0,151102.0,18776.0,11.331977555259073
62870.219949257604,171142.0,151091.0,18780.0,11.34207735700329
62870.23004905935,171125.0,151059.0,18768.0,11.352177158747509
62870.24014886109,171139.0,151068.0,18770.0,11.362276960491727
62870.25024866283,171167.0,151083.0,18780.0,11.372376762228669
62870.26034846457,171161.0,151115.0,18790.0,11.382476563972887
62870.27044826632,171153.0,151079.0,18766.0,11.392576365717105
62870.28054806806,171138.0,151093.0,18792.0,11.402676167461323
62870.2906478698,171170.0,151093.0,18784.0,11.412775969198265
62870.30074767154,171212.0,151080.0,18808.0,11.422875770942483
62870.31084747329,171195.0,151106.0,18777.0,11.4329755726867
62870.32094727503,171160.0,151111.0,18799.0,11.443075374430919
62870.331047076776,171170.0,151097.0,18802.0,11.453175176175137
62870.34114687851,171126.0,151094.0,18778.0,11.463274977912079
62870.35124668026,171175.0,151099.0,18805.0,11.473374779656297
62870.361346482,171179.0,151074.0,18807.0,11.483474581400515
62870.371446283745,171182.0,151102.0,18788.0,11.493574383144733
62870.38154608549,171164.0,151097.0,18781.0,11.50367418488895
62870.391645887226,171193.0,151117.0,18829.0,11.513773986625893
62870.40174568897,171182.0,151098.0,18787.0,11.52387378837011
62870.411845490715,171180.0,151091.0,18799.0,11.533973590114329
62870.42194529246,171194.0,151125.0,18798.0,11.544073391858547
62870.432045094196,171173.0,151086.0,18774.0,11.554173193595489
62870.44214489594,171200.0,151115.0,18785.0,11.564272995339707
62870.452244697684,171191.0,151092.0,18799.0,11.574372797083925
62870.46234449943,171197.0,151120.0,18822.0,11.584472598828143
62870.47244430117,171174.0,151103.0,18795.0,11.59457240057236
62870.48254410291,171184.0,151100.0,18806.0,11.604672202309303
62870.492643904654,171189.0,151096.0,18802.0,11.61477200405352
62870.5027437064,171218.0,151082.0,18807.0,11.624871805797738
62870.51284350814,171195.0,151110.0,18796.0,11.634971607541956
62870.52294330989,171197.0,151089.0,18807.0,11.645071409286174
62870.53304311162,171177.0,151077.0,18788.0,11.655171211023116
62870.54314291337,171139.0,151049.0,18774.0,11.665271012767334
62870.55324271511,171112.0,151086.0,18785.0,11.675370814511552
62870.563342516856,171098.0,151050.0,18758.0,11.68547061625577
62870.57344231859,171106.0,151041.0,18756.0,11.695570417992712
62870.58354212034,171098.0,151040.0,18737.0,11.70567021973693
62870.59364192208,171112.0,151060.0,18767.0,11.715770021481148
62870.603741723826,171056.0,151003.0,18735.0,11.725869823225366
62870.61384152557,171117.0,151045.0,18749.0,11.735969624969584
62870.62394132731,171100.0,151066.0,18761.0,11.746069426706526
62870.63404112905,171099.0,151005.0,18752.0,11.756169228450744
62870.644140930795,171100.0,151050.0,18742.0,11.766269030194962
62870.65424073254,171110.0,151052.0,18792.0,11.77636883193918
62870.664340534284,171089.0,151044.0,18761.0,11.786468633683398
62870.67444033602,171114.0,151073.0,18757.0,11.79656843542034
62870.684540137765,171110.0,151081.0,18784.0,11.806668237164558
62870.69463993951,171141.0,151064.0,18751.0,11.816768038908776
62870.70473974125,171110.0,151058.0,18773.0,11.826867840652994
62870.71483954299,171141.0,151098.0,18773.0,11.836967642389936
62870.724939344735,171111.0,151062.0,18759.0,11.847067444134154
62870.73503914648,171107.0,151040.0,18757.0,11.857167245878372
62870.74513894822,171136.0,151087.0,18789.0,11.86726704762259
62870.75523874997,171141.0,151079.0,18775.0,11.877366849366808
62870.765338551704,171125.0,151058.0,18779.0,11.88746665110375
62870.77543835345,171129.0,151067.0,18761.0,11.897566452847968
62870.78553815519,171136.0,151079.0,18787.0,11.907666254592186
62870.79563795694,171100.0,151058.0,18808.0,11.917766056336404
62870.80573775868,171097.0,151038.0,18757.0,11.927865858080622
62870.81583756042,171131.0,151061.0,18784.0,11.937965659817564
62870.82593736216,171114.0,151063.0,18784.0,11.948065461561782
62870.83603716391,171089.0,151029.0,18771.0,11.958165263306
62870.84613696565,171127.0,151063.0,18749.0,11.968265065050218
62870.85623676739,171141.0,151083.0,18790.0,11.97836486678716
62870.86633656913,171130.0,151059.0,18778.0,11.988464668531378
62870.876436370876,171115.0,151073.0,18756.0,11.998564470275596
62870.88653617262,171139.0,151070.0,18792.0,12.008664272019814
62870.896635974364,171130.0,151064.0,18759.0,12.018764073764032
62870.9067357761,171114.0,151054.0,18769.0,12.028863875500974
62870.916835577846,171132.0,151077.0,18779.0,12.038963677245192
62870.92693537959,171122.0,151056.0,18793.0,12.04906347898941
62870.937035181334,171110.0,151053.0,18769.0,12.059163280733628
62870.94713498308,171099.0,151056.0,18769.0,12.069263082477846
62870.957234784815,171109.0,151059.0,18772.0,12.079362884214788
62870.96733458656,171087.0,151038.0,18758.0,12.089462685959006
62870.977434388304,171098.0,151054.0,18763.0,12.099562487703224
62870.98753419005,171104.0,151051.0,18780.0,12.109662289447442
62870.997633991785,171086.0,151053.0,18782.0,12.119762091184384
62871.00773379353,171080.0,151050.0,18764.0,12.129861892928602
62871.01783359527,171125.0,151058.0,18802.0,12.13996169467282
62871.02793339702,171115.0,151056.0,18782.0,12.150061496417038
62871.03803319876,171111.0,151062.0,18779.0,12.160161298161256
62871.0481330005,171146.0,151088.0,18769.0,12.170261099898198
62871.05823280224,171143.0,151092.0,18805.0,12.180360901642416
62871.06833260399,171125.0,151065.0,18780.0,12.190460703386634
62871.07843240573,171116.0,151056.0,18782.0,12.200560505130852
62871.088532207476,171156.0,151085.0,18821.0,12.21066030687507
62871.09863200921,171178.0,151065.0,18789.0,12.220760108612012
62871.10873181096,171141.0,151074.0,18792.0,12.23085991035623
62871.1188316127,171142.0,151063.0,18785.0,12.240959712100448
62871.128931414445,171137.0,151058.0,18780.0,12.251059513844666
62871.13903121618,171164.0,151100.0,18809.0,12.261159315581608
62871.149131017926,171138.0,151087.0,18796.0,12.271259117325826
62871.15923081967,171143.0,151077.0,18797.0,12.281358919070044
62871.169330621415,171117.0,151051.0,18782.0,12.291458720814262
62871.17943042316,171137.0,151050.0,18776.0,12.30155852255848
62871.189530224896,171115.0,151044.0,18801.0,12.311658324295422
62871.19963002664,171105.0,151064.0,18786.0,12.32175812603964
62871.209729828384,171056.0,151004.0,18764.0,12.331857927783858
62871.21982963013,171072.0,150987.0,18775.0,12.341957729528076
62871.22992943187,171032.0,150997.0,18743.0,12.352057531272294
62871.24002923361,171033.0,150976.0,18752.0,12.362157333009236
62871.250129035354,171062.0,151017.0,18752.0,12.372257134753454
62871.2602288371,171042.0,150999.0,18787.0,12.382356936497672
62871.27032863884,170990.0,150978.0,18724.0,12.39245673824189
62871.28042844058,171047.0,151023.0,18758.0,12.402556539978832
62871.29052824232,171067.0,151023.0,18744.0,12.41265634172305
62871.30062804407,171030.0,151018.0,18724.0,12.422756143467268
62871.31072784581,171028.0,151016.0,18734.0,12.432855945211486
62871.320827647556,171047.0,151019.0,18757.0,12.442955746955704
62871.33092744929,171039.0,151011.0,18749.0,12.453055548692646
62871.34102725104,171039.0,151023.0,18748.0,12.463155350436864
62871.35112705278,171066.0,151042.0,18771.0,12.473255152181082
62871.361226854526,171046.0,151012.0,18746.0,12.4833549539253
62871.37132665627,171070.0,151011.0,18753.0,12.493454755669518
62871.38142645801,171054.0,150981.0,18752.0,12.50355455740646
62871.39152625975,171047.0,151027.0,18779.0,12.513654359150678
62871.401626061495,171053.0,151013.0,18755.0,12.523754160894896
62871.41172586324,171037.0,151007.0,18745.0,12.533853962639114
62871.42182566498,171068.0,151020.0,18777.0,12.543953764376056
62871.43192546672,171038.0,151009.0,18743.0,12.554053566120274
62871.442025268465,171069.0,151032.0,18771.0,12.564153367864492
62871.45212507021,171096.0,151080.0,18781.0,12.57425316960871
62871.46222487195,171059.0,151027.0,18751.0,12.584352971352928
62871.47232467369,171057.0,151007.0,18777.0,12.59445277308987
62871.482424475435,171065.0,151028.0,18764.0,12.604552574834088
62871.49252427718,171085.0,151036.0,18776.0,12.614652376578306
62871.50262407892,171089.0,151045.0,18779.0,12.624752178322524
62871.51272388067,171036.0,151030.0,18758.0,12.634851980066742
62871.522823682404,171078.0,151033.0,18760.0,12.644951781803684
62871.53292348415,171058.0,151027.0,18763.0,12.655051583547902
62871.54302328589,171066.0,151015.0,18770.0,12.66515138529212
62871.55312308764,171082.0,151004.0,18793.0,12.675251187036338
62871.563222889374,171057.0,151014.0,18753.0,12.68535098877328
62871.57332269112,171085.0,151015.0,18780.0,12.695450790517498
62871.58342249286,171068.0,150982.0,18759.0,12.705550592261716
62871.59352229461,171064.0,151030.0,18784.0,12.715650394005934
62871.60362209635,171053.0,151011.0,18764.0,12.725750195750152
62871.61372189809,171072.0,151028.0,18770.0,12.735849997487094
62871.62382169983,171031.0,151000.0,18763.0,12.745949799231312
62871.633921501576,171033.0,150993.0,18757.0,12.75604960097553
62871.64402130332,171070.0,151014.0,18761.0,12.766149402719748
62871.654121105064,171090.0,151064.0,18782.0,12.776249204463966
62871.6642209068,171055.0,151008.0,18763.0,12.786349006200908
62871.674320708546,171036.0,151003.0,18776.0,12.796448807945126
62871.68442051029,171026.0,151031.0,18759.0,12.806548609689344
62871.694520312034,171049.0,151036.0,18759.0,12.816648411433562
62871.70462011377,171064.0,151036.0,18787.0,12.826748213170504
62871.714719915515,171044.0,150992.0,18766.0,12.836848014914722
62871.72481971726,171025.0,151017.0,18759.0,12.84694781665894
62871.734919519,171045.0,150985.0,18779.0,12.857047618403158
62871.74501932075,171077.0,151037.0,18776.0,12.867147420147376
62871.755119122485,171045.0,151010.0,18760.0,12.877247221884318
62871.76521892423,171058.0,151005.0,18768.0,12.887347023628536
62871.77531872597,171043.0,150994.0,18775.0,12.897446825372754
62871.78541852772,171044.0,151008.0,18777.0,12.907546627116972
62871.79551832946,171076.0,150992.0,18768.0,12.91764642886119
62871.8056181312,171084.0,151017.0,18779.0,12.927746230598132
62871.81571793294,171064.0,151034.0,18763.0,12.93784603234235
62871.82581773469,171031.0,151004.0,18792.0,12.947945834086568
62871.83591753643,171085.0,151041.0,18782.0,12.958045635830786
62871.84601733817,171063.0,151006.0,18750.0,12.968145437567728
62871.85611713991,171052.0,151009.0,18772.0,12.978245239311946
62871.86621694166,171023.0,150969.0,18770.0,12.988345041056164
62871.8763167434,171025.0,150991.0,18763.0,12.998444842800382
62871.886416545145,170999.0,150943.0,18779.0,13.0085446445446
62871.89651634688,171022.0,150973.0,18766.0,13.018644446281542
62871.906616148626,171028.0,150975.0,18774.0,13.02874424802576
62871.91671595037,170966.0,150935.0,18758.0,13.038844049769978
62871.926815752115,170981.0,150945.0,18741.0,13.048943851514196
62871.93691555386,170986.0,150958.0,18736.0,13.059043653258414
62871.947015355596,170971.0,150968.0,18764.0,13.069143454995356
62871.95711515734,170952.0,150956.0,18735.0,13.079243256739574
62871.967214959084,170962.0,150942.0,18735.0,13.089343058483792
62871.97731476083,170967.0,150958.0,18731.0,13.09944286022801
62871.987414562565,170962.0,150940.0,18731.0,13.109542661964952
62871.99751436431,170945.0,150946.0,18720.0,13.11964246370917
62872.007614166054,170948.0,150939.0,18735.0,13.129742265453388
62872.0177139678,170964.0,150967.0,18740.0,13.139842067197606
62872.02781376954,170962.0,150969.0,18748.0,13.149941868941823
62872.03791357128,170971.0,150983.0,18765.0,13.160041670678766
62872.04801337302,170955.0,150949.0,18735.0,13.170141472422983
62872.05811317477,170964.0,150980.0,18749.0,13.180241274167201
62872.06821297651,170969.0,150973.0,18746.0,13.19034107591142
62872.078312778256,170962.0,150970.0,18730.0,13.200440877655637
62872.08841257999,170964.0,150961.0,18766.0,13.21054067939258
62872.09851238174,170979.0,150971.0,18746.0,13.220640481136797
62872.10861218348,171000.0,150971.0,18753.0,13.230740282881015
62872.118711985226,170964.0,150947.0,18753.0,13.240840084625233
62872.12881178696,171005.0,150986.0,18747.0,13.250939886362175
62872.13891158871,170983.0,150977.0,18749.0,13.261039688106393
62872.14901139045,170959.0,150970.0,18764.0,13.271139489850611
62872.159111192195,170999.0,150987.0,18773.0,13.28123929159483
62872.16921099394,170970.0,150948.0,18743.0,13.291339093339047
62872.17931079568,170969.0,150951.0,18751.0,13.30143889507599
62872.18941059742,170944.0,150959.0,18753.0,13.311538696820207
62872.199510399165,170959.0,150972.0,18734.0,13.321638498564425
62872.20961020091,170961.0,150945.0,18757.0,13.331738300308643
62872.21971000265,170966.0,150964.0,18745.0,13.341838102052861
62872.22980980439,170935.0,150959.0,18760.0,13.351937903789803
62872.239909606134,170936.0,150962.0,18765.0,13.362037705534021
62872.25000940788,170955.0,150936.0,18738.0,13.37213750727824
62872.26010920962,170961.0,150961.0,18755.0,13.382237309022457
62872.27020901136,170945.0,150965.0,18732.0,13.3923371107594
62872.280308813104,170957.0,150993.0,18760.0,13.402436912503617
62872.29040861485,170951.0,150924.0,18729.0,13.412536714247835
62872.30050841659,170977.0,150940.0,18767.0,13.422636515992053
62872.31060821834,170958.0,150955.0,18749.0,13.432736317736271
62872.320708020074,170947.0,150941.0,18739.0,13.442836119473213
62872.33080782182,170946.0,150957.0,18765.0,13.452935921217431
62872.34090762356,170925.0,150914.0,18756.0,13.46303572296165
62872.351007425306,170950.0,150976.0,18739.0,13.473135524705867
62872.36110722705,170920.0,150955.0,18738.0,13.483235326450085
62872.37120702879,170964.0,150924.0,18765.0,13.493335128187027
62872.38130683053,170962.0,150970.0,18733.0,13.503434929931245
62872.391406632276,170941.0,150944.0,18745.0,13.513534731675463
62872.40150643402,170915.0,150929.0,18752.0,13.523634533419681
62872.41160623576,170903.0,150922.0,18749.0,13.533734335156623
62872.4217060375,170950.0,150954.0,18768.0,13.543834136900841
62872.431805839245,170913.0,150928.0,18750.0,13.55393393864506
62872.44190564099,170922.0,150925.0,18765.0,13.564033740389277
62872.452005442734,170905.0,150914.0,18747.0,13.574133542133495
62872.46210524447,170938.0,150904.0,18769.0,13.584233343870437
62872.472205046215,170922.0,150918.0,18749.0,13.594333145614655
62872.48230484796,170919.0,150950.0,18737.0,13.604432947358873
62872.4924046497,170894.0,150944.0,18754.0,13.614532749103091
62872.50250445145,170926.0,150935.0,18768.0,13.62463255084731
62872.512604253185,170919.0,150926.0,18751.0,13.634732352584251
62872.52270405493,170901.0,150898.0,18753.0,13.64483215432847
62872.53280385667,170914.0,150941.0,18786.0,13.654931956072687
62872.54290365842,170915.0,150931.0,18755.0,13.665031757816905
62872.553003460154,170932.0,150932.0,18758.0,13.675131559553847
62872.5631032619,170887.0,150927.0,18765.0,13.685231361298065
62872.57320306364,170948.0,150920.0,18763.0,13.695331163042283
62872.58330286539,170887.0,150907.0,18750.0,13.705430964786501
62872.59340266713,170915.0,150914.0,18749.0,13.71553076653072
62872.60350246887,170882.0,150919.0,18785.0,13.725630568267661
62872.61360227061,170850.0,150876.0,18726.0,13.73573037001188
62872.62370207236,170856.0,150932.0,18750.0,13.745830171756097
62872.6338018741,170852.0,150879.0,18714.0,13.755929973500315
62872.643901675845,170864.0,150846.0,18758.0,13.766029775244533
62872.65400147758,170824.0,150857.0,18693.0,13.776129576981475
62872.664101279326,170847.0,150869.0,18727.0,13.786229378725693
62872.67420108107,170826.0,150875.0,18717.0,13.796329180469911
62872.684300882815,170798.0,150876.0,18692.0,13.806428982214129
62872.69440068455,170818.0,150884.0,18722.0,13.816528783951071
62872.704500486296,170823.0,150877.0,18706.0,13.826628585695289
62872.71460028804,170842.0,150881.0,18712.0,13.836728387439507
62872.724700089784,170840.0,150876.0,18706.0,13.846828189183725
62872.73479989153,170844.0,150891.0,18746.0,13.856927990927943
62872.744899693265,170815.0,150855.0,18703.0,13.867027792664885
62872.75499949501,170834.0,150894.0,18683.0,13.877127594409103
62872.765099296754,170827.0,150889.0,18737.0,13.887227396153321
62872.7751990985,170805.0,150858.0,18706.0,13.897327197897539
62872.78529890024,170840.0,150898.0,18701.0,13.907426999641757
62872.79539870198,170830.0,150880.0,18736.0,13.917526801378699
62872.80549850372,170844.0,150900.0,18713.0,13.927626603122917
62872.81559830547,170810.0,150857.0,18722.0,13.937726404867135
62872.82569810721,170831.0,150895.0,18738.0,13.947826206611353
62872.83579790895,170856.0,150873.0,18732.0,13.957926008348295
62872.84589771069,170857.0,150875.0,18727.0,13.968025810092513
62872.85599751244,170852.0,150892.0,18701.0,13.978125611836731
62872.86609731418,170878.0,150917.0,18760.0,13.988225413580949
62872.876197115926,170828.0,150866.0,18709.0,13.998325215325167
62872.88629691766,170850.0,150904.0,18719.0,14.008425017062109
62872.89639671941,170853.0,150886.0,18730.0,14.018524818806327
62872.90649652115,170800.0,150881.0,18711.0,14.028624620550545
62872.916596322895,170833.0,150872.0,18691.0,14.038724422294763
62872.92669612464,170840.0,150886.0,18732.0,14.048824224038981
62872.93679592638,170832.0,150902.0,18747.0,14.058924025775923
62872.94689572812,170830.0,150860.0,18719.0,14.069023827520141
62872.956995529865,170835.0,150897.0,18720.0,14.079123629264359
62872.96709533161,170846.0,150885.0,18723.0,14.089223431008577
62872.977195133346,170823.0,150860.0,18705.0,14.099323232745519
62872.98729493509,170857.0,150907.0,18721.0,14.109423034489737
62872.997394736834,170864.0,150916.0,18751.0,14.119522836233955
62873.00749453858,170856.0,150877.0,18725.0,14.129622637978173
62873.01759434032,170821.0,150876.0,18713.0,14.13972243972239
62873.02769414206,170860.0,150916.0,18755.0,14.149822241459333
62873.037793943804,170831.0,150879.0,18713.0,14.15992204320355
62873.04789374555,170851.0,150889.0,18730.0,14.170021844947769
62873.05799354729,170843.0,150895.0,18726.0,14.180121646691987
62873.06809334904,170874.0,150919.0,18751.0,14.190221448436205
62873.07819315077,170837.0,150877.0,18714.0,14.200321250173147
62873.08829295252,170865.0,150892.0,18743.0,14.210421051917365
62873.09839275426,170877.0,150926.0,18745.0,14.220520853661583
62873.108492556006,170850.0,150887.0,18721.0,14.2306206554058
62873.11859235774,170871.0,150907.0,18725.0,14.240720457142743
62873.12869215949,170871.0,150912.0,18745.0,14.25082025888696
62873.13879196123,170856.0,150933.0,18770.0,14.260920060631179
62873.148891762976,170843.0,150882.0,18699.0,14.271019862375397
62873.15899156472,170884.0,150927.0,18770.0,14.281119664119615
62873.16909136646,170857.0,150903.0,18743.0,14.291219465856557
62873.1791911682,170828.0,150869.0,18712.0,14.301319267600775
62873.189290969945,170859.0,150910.0,18719.0,14.311419069344993
62873.19939077169,170874.0,150914.0,18738.0,14.32151887108921
62873.209490573434,170873.0,150896.0,18744.0,14.331618672833429
62873.21959037517,170881.0,150901.0,18737.0,14.34171847457037
62873.229690176915,170888.0,150930.0,18789.0,14.351818276314589
62873.23978997866,170894.0,150907.0,18740.0,14.361918078058807
62873.2498897804,170898.0,150928.0,18750.0,14.372017879803025
62873.25998958214,170903.0,150922.0,18728.0,14.382117681539967
62873.270089383885,170903.0,150930.0,18763.0,14.392217483284185
62873.28018918563,170861.0,150895.0,18725.0,14.402317285028403
62873.29028898737,170895.0,150930.0,18760.0,14.41241708677262
62873.30038878912,170884.0,150932.0,18745.0,14.422516888516839
62873.310488590854,170826.0,150895.0,18732.0,14.43261669025378
62873.3205883926,170874.0,150894.0,18723.0,14.442716491997999
62873.33068819434,170858.0,150896.0,18728.0,14.452816293742217
62873.34078799609,170850.0,150847.0,18763.0,14.462916095486435
62873.35088779783,170801.0,150832.0,18713.0,14.473015897230653
62873.36098759957,170817.0,150879.0,18748.0,14.483115698967595
62873.37108740131,170766.0,150854.0,18698.0,14.493215500711813
62873.38118720306,170784.0,150824.0,18710.0,14.50331530245603
62873.3912870048,170779.0,150850.0,18688.0,14.513415104200249
62873.40138680654,170796.0,150846.0,18712.0,14.52351490593719
62873.41148660828,170782.0,150846.0,18716.0,14.533614707681409
62873.421586410026,170794.0,150866.0,18708.0,14.543714509425627
62873.43168621177,170768.0,150830.0,18692.0,14.553814311169845
62873.441786013515,170765.0,150841.0,18698.0,14.563914112914063
62873.45188581525,170779.0,150854.0,18680.0,14.574013914651005
62873.461985616996,170780.0,150857.0,18706.0,14.584113716395223
62873.47208541874,170796.0,150871.0,18745.0,14.59421351813944
62873.482185220484,170773.0,150844.0,18699.0,14.604313319883659
62873.49228502223,170813.0,150848.0,18720.0,14.614413121627877
62873.502384823965,170810.0,150861.0,18714.0,14.624512923364819
62873.51248462571,170813.0,150884.0,18708.0,14.634612725109037
62873.522584427454,170839.0,150892.0,18702.0,14.644712526853255
62873.5326842292,170812.0,150882.0,18741.0,14.654812328597473
62873.542784030935,170817.0,150869.0,18718.0,14.664912130334415
62873.55288383268,170795.0,150891.0,18689.0,14.675011932078633
62873.56298363442,170802.0,150885.0,18739.0,14.68511173382285
62873.57308343617,170784.0,150851.0,18703.0,14.695211535567068
62873.58318323791,170818.0,150873.0,18715.0,14.705311337311286
62873.59328303965,170820.0,150876.0,18705.0,14.715411139048229
62873.60338284139,170786.0,150847.0,18718.0,14.725510940792446
62873.61348264314,170805.0,150884.0,18717.0,14.735610742536664
62873.62358244488,170812.0,150869.0,18721.0,14.745710544280882
62873.633682246626,170799.0,150870.0,18714.0,14.7558103460251
62873.64378204836,170822.0,150851.0,18719.0,14.765910147762042
62873.65388185011,170787.0,150847.0,18692.0,14.77600994950626
62873.66398165185,170775.0,150847.0,18723.0,14.786109751250478
62873.674081453595,170747.0,150826.0,18710.0,14.796209552994696
62873.68418125533,170713.0,150795.0,18692.0,14.806309354731638
62873.694281057076,170744.0,150825.0,18717.0,14.816409156475856
62873.70438085882,170745.0,150812.0,18711.0,14.826508958220074
62873.714480660565,170746.0,150813.0,18706.0,14.836608759964292
62873.72458046231,170761.0,150816.0,18721.0,14.84670856170851
62873.734680264046,170714.0,150807.0,18740.0,14.856808363445452
62873.74478006579,170743.0,150811.0,18718.0,14.86690816518967
62873.754879867534,170715.0,150796.0,18702.0,14.877007966933888
62873.76497966928,170753.0,150857.0,18750.0,14.887107768678106
62873.77507947102,170713.0,150811.0,18692.0,14.897207570422324
62873.78517927276,170739.0,150820.0,18720.0,14.907307372159266
62873.795279074504,170741.0,150817.0,18684.0,14.917407173903484
62873.80537887625,170717.0,150790.0,18714.0,14.927506975647702
62873.81547867799,170723.0,150821.0,18723.0,14.93760677739192
62873.82557847973,170724.0,150814.0,18708.0,14.947706579128862
62873.83567828147,170742.0,150828.0,18736.0,14.95780638087308
62873.84577808322,170712.0,150808.0,18722.0,14.967906182617298
62873.85587788496,170735.0,150800.0,18701.0,14.978005984361516
62873.865977686706,170743.0,150816.0,18754.0,14.988105786105734
62873.87607748844,170715.0,150806.0,18727.0,14.998205587842676
62873.88617729019,170721.0,150815.0,18712.0,15.008305389586894
62873.89627709193,170736.0,150837.0,18756.0,15.018405191331112
62873.906376893676,170705.0,150798.0,18717.0,15.02850499307533
62873.91647669542,170701.0,150769.0,18726.0,15.038604794819548
62873.92657649716,170714.0,150791.0,18730.0,15.04870459655649
62873.9366762989,170696.0,150794.0,18752.0,15.058804398300708
62873.946776100645,170701.0,150782.0,18717.0,15.068904200044926
62873.95687590239,170701.0,150820.0,18708.0,15.079004001789144
62873.96697570413,170702.0,150796.0,18727.0,15.089103803526086
62873.97707550587,170553.0,150663.0,18700.0,15.099203605270304
62873.987175307615,170536.0,150686.0,18731.0,15.109303407014522
62873.99727510936,170504.0,150610.0,18696.0,15.11940320875874
62874.0073749111,170501.0,150653.0,18704.0,15.129503010502958
62874.01747471284,170522.0,150668.0,18728.0,15.1396028122399
62874.027574514585,170482.0,150623.0,18729.0,15.149702613984118
62874.03767431633,170469.0,150612.0,18679.0,15.159802415728336
62874.04777411807,170461.0,150622.0,18685.0,15.169902217472554
62874.05787391982,170462.0,150615.0,18676.0,15.180002019216772
62874.067973721554,170423.0,150601.0,18662.0,15.190101820953714
62874.0780735233,170437.0,150615.0,18659.0,15.200201622697932
62874.08817332504,170408.0,150596.0,18664.0,15.21030142444215
62874.09827312679,170398.0,150603.0,18695.0,15.220401226186368
62874.108372928524,170389.0,150587.0,18654.0,15.23050102792331
62874.11847273027,170409.0,150575.0,18661.0,15.240600829667528
62874.12857253201,170398.0,150591.0,18659.0,15.250700631411746
62874.13867233376,170391.0,150585.0,18649.0,15.260800433155964
62874.1487721355,170408.0,150591.0,18655.0,15.270900234900182
62874.15887193724,170396.0,150601.0,18681.0,15.281000036637124
62874.16897173898,170413.0,150596.0,18666.0,15.291099838381342
62874.179071540726,170401.0,150578.0,18661.0,15.30119964012556
62874.18917134247,170428.0,150634.0,18694.0,15.311299441869778
62874.199271144214,170422.0,150601.0,18674.0,15.321399243613996
62874.20937094595,170422.0,150621.0,18678.0,15.331499045350938
62874.219470747696,170436.0,150616.0,18655.0,15.341598847095156
62874.22957054944,170426.0,150622.0,18691.0,15.351698648839374
62874.239670351184,170425.0,150607.0,18676.0,15.361798450583592
62874.24977015292,170451.0,150615.0,18680.0,15.371898252320534
62874.259869954665,170438.0,150625.0,18685.0,15.381998054064752
62874.26996975641,170399.0,150606.0,18659.0,15.39209785580897
62874.28006955815,170444.0,150602.0,18678.0,15.402197657553188
62874.2901693599,170434.0,150593.0,18696.0,15.412297459297406
62874.300269161635,170423.0,150620.0,18688.0,15.422397261034348
62874.31036896338,170441.0,150608.0,18682.0,15.432497062778566
62874.32046876512,170419.0,150552.0,18670.0,15.442596864522784
62874.33056856687,170397.0,150593.0,18672.0,15.452696666267002
62874.34066836861,170414.0,150562.0,18679.0,15.46279646801122
62874.35076817035,170441.0,150596.0,18665.0,15.472896269748162
62874.36086797209,170426.0,150589.0,18696.0,15.48299607149238
62874.37096777384,170384.0,150555.0,18662.0,15.493095873236598
62874.38106757558,170383.0,150594.0,18678.0,15.503195674980816
62874.39116737732,170428.0,150556.0,18667.0,15.513295476717758
62874.40126717906,170388.0,150569.0,18676.0,15.523395278461976
62874.41136698081,170447.0,150591.0,18693.0,15.533495080206194
62874.42146678255,170419.0,150568.0,18674.0,15.543594881950412
62874.431566584295,170401.0,150592.0,18664.0,15.55369468369463
62874.44166638603,170422.0,150561.0,18685.0,15.563794485431572
62874.451766187776,170433.0,150607.0,18715.0,15.57389428717579
62874.46186598952,170424.0,150593.0,18698.0,15.583994088920008
62874.471965791265,170440.0,150593.0,18686.0,15.594093890664226
62874.482065593,170437.0,150605.0,18688.0,15.604193692401168
62874.492165394746,170418.0,150606.0,18711.0,15.614293494145386
62874.50226519649,170427.0,150589.0,18690.0,15.624393295889604
62874.512364998234,170422.0,150618.0,18721.0,15.634493097633822
62874.52246479998,170424.0,150594.0,18712.0,15.64459289937804
62874.532564601715,170397.0,150557.0,18683.0,15.654692701114982
62874.54266440346,170411.0,150563.0,18693.0,15.6647925028592
62874.552764205204,170365.0,150543.0,18717.0,15.674892304603418
62874.56286400695,170388.0,150535.0,18679.0,15.684992106347636
62874.57296380869,170383.0,150539.0,18682.0,15.695091908091854
62874.58306361043,170394.0,150556.0,18702.0,15.705191709828796
62874.59316341217,170384.0,150560.0,18698.0,15.715291511573014
62874.60326321392,170357.0,150525.0,18673.0,15.725391313317232
62874.61336301566,170401.0,150566.0,18722.0,15.73549111506145
62874.6234628174,170385.0,150540.0,18694.0,15.745590916798392
62874.63356261914,170370.0,150547.0,18734.0,15.75569071854261
62874.64366242089,170365.0,150542.0,18705.0,15.765790520286828
62874.65376222263,170402.0,150569.0,18720.0,15.775890322031046
62874.663862024376,170367.0,150521.0,18696.0,15.785990123775264
62874.67396182611,170348.0,150518.0,18712.0,15.796089925512206
62874.68406162786,170383.0,150569.0,18714.0,15.806189727256424
62874.6941614296,170360.0,150529.0,18729.0,15.816289529000642
62874.704261231345,170377.0,150532.0,18698.0,15.82638933074486
62874.71436103309,170345.0,150544.0,18714.0,15.836489132489078
62874.72446083483,170367.0,150538.0,18723.0,15.84658893422602
62874.73456063657,170334.0,150490.0,18705.0,15.856688735970238
62874.744660438315,170341.0,150532.0,18715.0,15.866788537714456
62874.75476024006,170330.0,150511.0,18694.0,15.876888339458674
62874.764860041796,170360.0,150527.0,18718.0,15.886988141195616
62874.77495984354,170300.0,150478.0,18722.0,15.897087942939834
62874.785059645284,170300.0,150517.0,18702.0,15.907187744684052
62874.79515944703,170289.0,150499.0,18692.0,15.91728754642827
62874.80525924877,170286.0,150486.0,18713.0,15.927387348172488
62874.81535905051,170323.0,150507.0,18710.0,15.93748714990943
62874.825458852254,170265.0,150489.0,18688.0,15.947586951653648
62874.835558654,170256.0,150491.0,18676.0,15.957686753397866
62874.84565845574,170280.0,150503.0,18684.0,15.967786555142084
62874.85575825749,170242.0,150451.0,18669.0,15.977886356886302
62874.865858059224,170255.0,150481.0,18667.0,15.987986158623244
62874.87595786097,170255.0,150474.0,18669.0,15.998085960367462
62874.88605766271,170239.0,150513.0,18670.0,16.00818576211168
62874.896157464456,170241.0,150462.0,18654.0,16.018285563855898
62874.90625726619,170234.0,150457.0,18652.0,16.02838536559284
62874.91635706794,170256.0,150509.0,18674.0,16.038485167337058
62874.92645686968,170286.0,150501.0,18685.0,16.048584969081276
62874.936556671426,170256.0,150478.0,18659.0,16.058684770825494
62874.94665647317,170296.0,150523.0,18693.0,16.06878457256971
62874.95675627491,170285.0,150514.0,18685.0,16.078884374306654
62874.96685607665,170294.0,150523.0,18697.0,16.08898417605087
62874.976955878396,170257.0,150474.0,18685.0,16.09908397779509
62874.98705568014,170242.0,150490.0,18666.0,16.109183779539308
62874.997155481884,170264.0,150483.0,18674.0,16.119283581283526
62875.00725528362,170257.0,150459.0,18668.0,16.129383383020468
62875.017355085365,170275.0,150492.0,18707.0,16.139483184764686
62875.02745488711,170227.0,150461.0,18686.0,16.149582986508904
62875.03755468885,170250.0,150476.0,18686.0,16.15968278825312
62875.04765449059,170261.0,150420.0,18680.0,16.169782589990064
62875.057754292335,170226.0,150477.0,18679.0,16.17988239173428
62875.06785409408,170267.0,150500.0,18698.0,16.1899821934785
62875.07795389582,170240.0,150486.0,18682.0,16.200081995222718
62875.08805369757,170274.0,150503.0,18699.0,16.210181796966936
62875.098153499304,170255.0,150445.0,18682.0,16.220281598703878
62875.10825330105,170228.0,150433.0,18683.0,16.230381400448096
62875.11835310279,170227.0,150456.0,18678.0,16.240481202192314
62875.12845290454,170231.0,150455.0,18671.0,16.25058100393653
62875.13855270628,170215.0,150443.0,18674.0,16.26068080568075
62875.14865250802,170244.0,150464.0,18653.0,16.27078060741769
62875.15875230976,170229.0,150456.0,18679.0,16.28088040916191
62875.16885211151,170226.0,150450.0,18678.0,16.290980210906127
62875.17895191325,170193.0,150447.0,18687.0,16.301080012650345
62875.18905171499,170227.0,150479.0,18676.0,16.311179814387287
62875.19915151673,170238.0,150444.0,18691.0,16.321279616131505
62875.209251318476,170261.0,150468.0,18694.0,16.331379417875723
62875.21935112022,170248.0,150452.0,18687.0,16.34147921961994
62875.229450921965,170216.0,150459.0,18671.0,16.35157902136416
62875.2395507237,170232.0,150455.0,18685.0,16.3616788231011
62875.249650525446,170237.0,150461.0,18680.0,16.37177862484532
62875.25975032719,170224.0,150478.0,18691.0,16.381878426589537
62875.269850128934,170239.0,150491.0,18715.0,16.391978228333755
62875.27994993068,170240.0,150471.0,18689.0,16.402078030077973
62875.290049732415,170256.0,150490.0,18692.0,16.412177831814915
62875.30014953416,170224.0,150423.0,18688.0,16.422277633559133
62875.310249335904,170199.0,150436.0,18708.0,16.43237743530335
62875.32034913765,170219.0,150465.0,18693.0,16.44247723704757
62875.330448939385,170215.0,150439.0,18690.0,16.45257703878451
62875.34054874113,170236.0,150480.0,18704.0,16.46267684052873
62875.35064854287,170229.0,150429.0,18676.0,16.472776642272947
62875.36074834462,170246.0,150466.0,18702.0,16.482876444017165
62875.37084814636,170237.0,150484.0,18704.0,16.492976245761383
62875.3809479481,170240.0,150455.0,18717.0,16.503076047498325
62875.39104774984,170242.0,150482.0,18702.0,16.513175849242543
62875.40114755159,170293.0,150475.0,18712.0,16.52327565098676
62875.41124735333,170268.0,150502.0,18701.0,16.53337545273098
62875.421347155076,170247.0,150472.0,18699.0,16.543475254475197
62875.43144695681,170276.0,150457.0,18688.0,16.55357505621214
62875.44154675856,170289.0,150478.0,18738.0,16.563674857956357
62875.4516465603,170261.0,150512.0,18708.0,16.573774659700575
62875.461746362045,170240.0,150490.0,18698.0,16.583874461444793
62875.47184616378,170253.0,150504.0,18722.0,16.593974263181735
62875.48194596553,170255.0,150474.0,18696.0,16.604074064925953
62875.49204576727,170294.0,150494.0,18702.0,16.61417386667017
62875.502145569015,170265.0,150489.0,18718.0,16.62427366841439
62875.51224537076,170266.0,150491.0,18709.0,16.634373470158607
62875.522345172496,170326.0,150504.0,18716.0,16.64447327189555
62875.53244497424,170306.0,150521.0,18697.0,16.654573073639767
62875.542544775984,170248.0,150501.0,18686.0,16.664672875383985
62875.55264457773,170257.0,150473.0,18707.0,16.674772677128203
62875.56274437947,170228.0,150490.0,18669.0,16.68487247887242
62875.57284418121,170246.0,150485.0,18683.0,16.694972280609363
62875.582943982954,170210.0,150457.0,18693.0,16.70507208235358
62875.5930437847,170205.0,150473.0,18664.0,16.7151718840978
62875.60314358644,170263.0,150477.0,18696.0,16.725271685842017
62875.61324338818,170233.0,150476.0,18676.0,16.73537148757896
62875.62334318992,170219.0,150478.0,18669.0,16.745471289323177
62875.63344299167,170237.0,150467.0,18667.0,16.755571091067395
62875.64354279341,170226.0,150484.0,18705.0,16.765670892811613
62875.653642595156,170252.0,150489.0,18686.0,16.77577069455583
62875.66374239689,170229.0,150509.0,18708.0,16.785870496292773
62875.67384219864,170270.0,150505.0,18712.0,16.79597029803699
62875.68394200038,170241.0,150475.0,18682.0,16.80607009978121
62875.694041802126,170273.0,150503.0,18690.0,16.816169901525427
62875.70414160387,170261.0,150486.0,18721.0,16.826269703269645
62875.71424140561,170242.0,150485.0,18691.0,16.836369505006587
62875.72434120735,170254.0,150501.0,18690.0,16.846469306750805
62875.734441009095,170274.0,150495.0,18701.0,16.856569108495023
62875.74454081084,170268.0,150481.0,18687.0,16.86666891023924
62875.75464061258,170276.0,150515.0,18713.0,16.876768711976183
62875.76474041432,170284.0,150506.0,18705.0,16.8868685137204
62875.774840216065,170246.0,150478.0,18693.0,16.89696831546462
62875.78494001781,170219.0,150468.0,18702.0,16.907068117208837
62875.79503981955,170201.0,150476.0,18692.0,16.917167918953055
62875.80513962129,170247.0,150459.0,18698.0,16.927267720689997
62875.815239423035,170238.0,150468.0,18689.0,16.937367522434215
62875.82533922478,170197.0,150463.0,18701.0,16.947467324178433
62875.83543902652,170239.0,150479.0,18713.0,16.95756712592265
62875.84553882827,170195.0,150449.0,18692.0,16.96766692766687
62875.855638630004,170199.0,150467.0,18683.0,16.97776672940381
62875.86573843175,170201.0,150484.0,18693.0,16.98786653114803
62875.87583823349,170215.0,150490.0,18702.0,16.997966332892247
62875.88593803524,170233.0,150487.0,18689.0,17.008066134636465
62875.896037836974,170244.0,150476.0,18710.0,17.018165936373407
62875.90613763872,170252.0,150489.0,18695.0,17.028265738117625
62875.91623744046,170222.0,150456.0,18691.0,17.038365539861843
62875.92633724221,170261.0,150513.0,18705.0,17.04846534160606
62875.93643704395,170234.0,150499.0,18689.0,17.05856514335028
62875.94653684569,170256.0,150505.0,18701.0,17.06866494508722
62875.95663664743,170283.0,150506.0,18701.0,17.07876474683144
62875.966736449176,170261.0,150538.0,18733.0,17.088864548575657
62875.97683625092,170251.0,150472.0,18692.0,17.098964350319875
62875.986936052665,170263.0,150509.0,18698.0,17.109064152064093
62875.9970358544,170239.0,150507.0,18711.0,17.119163953801035
62876.007135656146,170256.0,150511.0,18693.0,17.129263755545253
62876.01723545789,170262.0,150497.0,18701.0,17.13936355728947
62876.027335259634,170283.0,150508.0,18712.0,17.14946335903369
62876.03743506137,170285.0,150521.0,18736.0,17.15956316077063
62876.047534863115,170236.0,150468.0,18706.0,17.16966296251485
62876.05763466486,170254.0,150516.0,18716.0,17.179762764259067
62876.067734466604,170260.0,150494.0,18705.0,17.189862566003285
62876.07783426835,170292.0,150495.0,18718.0,17.199962367747503
62876.087934070085,170281.0,150496.0,18704.0,17.210062169484445
62876.09803387183,170290.0,150508.0,18747.0,17.220161971228663
62876.10813367357,170288.0,150502.0,18704.0,17.23026177297288
62876.11823347532,170243.0,150496.0,18695.0,17.2403615747171
62876.12833327706,170274.0,150533.0,18749.0,17.250461376461317
62876.1384330788,170265.0,150529.0,18707.0,17.26056117819826
62876.14853288054,170279.0,150505.0,18722.0,17.270660979942477
62876.15863268229,170275.0,150513.0,18691.0,17.280760781686695
62876.16873248403,170282.0,150490.0,18744.0,17.290860583430913
62876.17883228577,170248.0,150502.0,18716.0,17.300960385167855
62876.18893208751,170286.0,150498.0,18732.0,17.311060186912073
62876.19903188926,170269.0,150529.0,18716.0,17.32115998865629
62876.209131691,170299.0,150503.0,18727.0,17.33125979040051
62876.219231492745,170279.0,150497.0,18705.0,17.341359592144727
62876.22933129448,170292.0,150491.0,18729.0,17.35145939388167
62876.239431096226,170265.0,150505.0,18750.0,17.361559195625887
62876.24953089797,170252.0,150472.0,18704.0,17.371658997370105
62876.259630699715,170265.0,150473.0,18710.0,17.381758799114323
62876.26973050146,170257.0,150484.0,18714.0,17.39185860085854
62876.279830303196,170264.0,150464.0,18687.0,17.401958402595483
62876.28993010494,170246.0,150479.0,18696.0,17.4120582043397
62876.300029906684,170257.0,150494.0,18725.0,17.42215800608392
62876.31012970843,170244.0,150482.0,18690.0,17.432257807828137
62876.320229510166,170226.0,150476.0,18682.0,17.44235760956508
62876.33032931191,170236.0,150504.0,18704.0,17.452457411309297
62876.340429113654,170262.0,150499.0,18722.0,17.462557213053515
62876.3505289154,170252.0,150492.0,18692.0,17.472657014797733
62876.36062871714,170238.0,150502.0,18678.0,17.48275681654195
62876.37072851888,170255.0,150503.0,18721.0,17.492856618278893
62876.38082832062,170221.0,150468.0,18692.0,17.50295642002311
62876.39092812237,170232.0,150497.0,18678.0,17.51305622176733
62876.40102792411,170253.0,150513.0,18701.0,17.523156023511547
62876.411127725856,170272.0,150496.0,18701.0,17.533255825255765
62876.42122752759,170276.0,150506.0,18679.0,17.543355626992707
62876.43132732934,170285.0,150512.0,18748.0,17.553455428736925
62876.44142713108,170273.0,150540.0,18717.0,17.563555230481143
62876.451526932826,170266.0,150494.0,18708.0,17.57365503222536
62876.46162673456,170269.0,150532.0,18726.0,17.583754833962303
62876.47172653631,170251.0,150520.0,18708.0,17.59385463570652
62876.48182633805,170288.0,150509.0,18716.0,17.60395443745074
62876.491926139795,170279.0,150521.0,18693.0,17.614054239194957
62876.50202594154,170330.0,150531.0,18739.0,17.624154040939175
62876.51212574328,170278.0,150507.0,18707.0,17.634253842676117
62876.52222554502,170279.0,150523.0,18713.0,17.644353644420335
62876.532325346765,170317.0,150548.0,18728.0,17.654453446164553
62876.54242514851,170334.0,150525.0,18710.0,17.66455324790877
62876.55252495025,170315.0,150557.0,18703.0,17.67465304965299
62876.56262475199,170317.0,150533.0,18717.0,17.68475285138993
62876.572724553735,170296.0,150558.0,18758.0,17.69485265313415
62876.58282435548,170332.0,150536.0,18712.0,17.704952454878367
62876.59292415722,170322.0,150556.0,18736.0,17.715052256622585
62876.60302395896,170328.0,150541.0,18719.0,17.725152058359527
62876.613123760704,170337.0,150538.0,18699.0,17.735251860103745
62876.62322356245,170328.0,150545.0,18690.0,17.745351661847963
62876.63332336419,170331.0,150568.0,18741.0,17.75545146359218
62876.64342316594,170337.0,150549.0,18725.0,17.7655512653364
62876.653522967674,170326.0,150555.0,18701.0,17.77565106707334
62876.66362276942,170318.0,150554.0,18732.0,17.78575086881756
62876.67372257116,170313.0,150518.0,18711.0,17.795850670561776
62876.68382237291,170336.0,150552.0,18731.0,17.805950472305994
62876.69392217465,170349.0,150547.0,18689.0,17.816050274050212
62876.70402197639,170374.0,150550.0,18731.0,17.826150075787154
62876.71412177813,170334.0,150544.0,18732.0,17.836249877531372
62876.724221579876,170338.0,150558.0,18726.0,17.84634967927559
62876.73432138162,170325.0,150565.0,18734.0,17.85644948101981
62876.74442118336,170382.0,150579.0,18765.0,17.86654928275675
62876.7545209851,170349.0,150548.0,18728.0,17.87664908450097
62876.764620786846,170356.0,150561.0,18740.0,17.886748886245186
62876.77472058859,170348.0,150540.0,18717.0,17.896848687989404
62876.784820390334,170350.0,150544.0,18746.0,17.906948489733622
62876.79492019207,170419.0,150599.0,18764.0,17.917048291470564
62876.805019993815,170369.0,150565.0,18742.0,17.927148093214782
62876.81511979556,170383.0,150531.0,18719.0,17.937247894959
62876.825219597304,170389.0,150575.0,18711.0,17.94734769670322
62876.83531939905,170405.0,150590.0,18757.0,17.957447498447436
62876.845419200785,170368.0,150569.0,18735.0,17.96754730018438
62876.85551900253,170355.0,150550.0,18724.0,17.977647101928596
62876.86561880427,170376.0,150583.0,18745.0,17.987746903672814
62876.87571860602,170405.0,150571.0,18742.0,17.997846705417032
62876.885818407754,170400.0,150572.0,18744.0,18.007946507153974
62876.8959182095,170387.0,150589.0,18728.0,18.018046308898192
62876.90601801124,170385.0,150591.0,18720.0,18.02814611064241
62876.91611781299,170389.0,150574.0,18739.0,18.03824591238663
62876.92621761473,170397.0,150596.0,18755.0,18.048345714130846
62876.93631741647,170406.0,150586.0,18745.0,18.05844551586779
62876.94641721821,170380.0,150562.0,18755.0,18.068545317612006
62876.95651701996,170384.0,150569.0,18731.0,18.078645119356224
62876.9666168217,170397.0,150569.0,18778.0,18.088744921100442
62876.976716623445,170390.0,150567.0,18776.0,18.09884472284466
62876.98681642518,170366.0,150550.0,18738.0,18.108944524581602
62876.996916226926,170394.0,150557.0,18762.0,18.11904432632582
62877.00701602867,170361.0,150554.0,18737.0,18.12914412807004
62877.017115830415,170366.0,150559.0,18761.0,18.139243929814256
62877.02721563215,170389.0,150578.0,18741.0,18.1493437315512
62877.037315433896,170383.0,150565.0,18758.0,18.159443533295416
62877.04741523564,170337.0,150519.0,18733.0,18.169543335039634
62877.057515037384,170344.0,150535.0,18725.0,18.179643136783852
62877.06761483913,170324.0,150554.0,18732.0,18.18974293852807
62877.077714640865,170334.0,150514.0,18712.0,18.199842740265012
62877.08781444261,170319.0,150525.0,18707.0,18.20994254200923
62877.097914244354,170320.0,150528.0,18707.0,18.220042343753448
62877.1080140461,170330.0,150526.0,18710.0,18.230142145497666
62877.11811384784,170332.0,150539.0,18705.0,18.240241947241884
62877.12821364958,170355.0,150571.0,18738.0,18.250341748978826
62877.13831345132,170352.0,150550.0,18718.0,18.260441550723044
62877.14841325307,170362.0,150567.0,18705.0,18.270541352467262
62877.15851305481,170365.0,150572.0,18700.0,18.28064115421148
62877.16861285655,170382.0,150591.0,18735.0,18.290740955948422
62877.17871265829,170382.0,150586.0,18726.0,18.30084075769264
62877.18881246004,170366.0,150572.0,18699.0,18.310940559436858
62877.19891226178,170406.0,150597.0,18746.0,18.321040361181076
62877.209012063526,170387.0,150578.0,18724.0,18.331140162925294
62877.21911186526,170401.0,150582.0,18730.0,18.341239964662236
62877.22921166701,170421.0,150621.0,18714.0,18.351339766406454
62877.23931146875,170394.0,150587.0,18759.0,18.361439568150672
62877.249411270495,170395.0,150558.0,18722.0,18.37153936989489
62877.25951107224,170427.0,150593.0,18745.0,18.381639171639108
62877.26961087398,170426.0,150615.0,18756.0,18.39173897337605
62877.27971067572,170427.0,150604.0,18730.0,18.401838775120268
62877.289810477465,170415.0,150594.0,18729.0,18.411938576864486
62877.29991027921,170439.0,150595.0,18745.0,18.422038378608704
62877.310010080946,170425.0,150582.0,18753.0,18.432138180345646
62877.32010988269,170410.0,150581.0,18730.0,18.442237982089864
62877.330209684435,170449.0,150660.0,18778.0,18.452337783834082
62877.34030948618,170429.0,150616.0,18738.0,18.4624375855783
62877.35040928792,170435.0,150587.0,18741.0,18.472537387322518
62877.36050908966,170448.0,150619.0,18733.0,18.48263718905946
62877.370608891404,170456.0,150632.0,18752.0,18.492736990803678
62877.38070869315,170441.0,150602.0,18736.0,18.502836792547896
62877.39080849489,170424.0,150600.0,18730.0,18.512936594292114
62877.40090829664,170478.0,150641.0,18776.0,18.523036396036332
62877.411008098374,170443.0,150601.0,18714.0,18.533136197773274
62877.42110790012,170477.0,150641.0,18750.0,18.543235999517492
62877.43120770186,170501.0,150664.0,18726.0,18.55333580126171
62877.44130750361,170548.0,150681.0,18768.0,18.563435603005928
62877.45140730534,170494.0,150644.0,18750.0,18.57353540474287
62877.46150710709,170532.0,150676.0,18745.0,18.583635206487088
62877.47160690883,170539.0,150708.0,18768.0,18.593735008231306
62877.481706710576,170567.0,150696.0,18782.0,18.603834809975524
62877.49180651232,170582.0,150703.0,18746.0,18.613934611719742
62877.50190631406,170574.0,150707.0,18733.0,18.624034413456684
62877.5120061158,170574.0,150676.0,18785.0,18.634134215200902
62877.522105917546,170566.0,150684.0,18764.0,18.64423401694512
62877.53220571929,170585.0,150693.0,18756.0,18.654333818689338
62877.542305521034,170579.0,150717.0,18755.0,18.664433620433556
62877.55240532277,170619.0,150720.0,18773.0,18.674533422170498
62877.562505124515,170598.0,150714.0,18758.0,18.684633223914716
62877.57260492626,170615.0,150710.0,18768.0,18.694733025658934
62877.582704728,170592.0,150712.0,18759.0,18.704832827403152
62877.59280452974,170627.0,150742.0,18771.0,18.714932629140094
62877.602904331485,170644.0,150757.0,18796.0,18.725032430884312
62877.61300413323,170617.0,150689.0,18777.0,18.73513223262853
62877.62310393497,170605.0,150741.0,18782.0,18.745232034372748
62877.63320373672,170640.0,150735.0,18784.0,18.755331836116966
62877.643303538454,170629.0,150736.0,18824.0,18.765431637853908
62877.6534033402,170620.0,150710.0,18766.0,18.775531439598126
62877.66350314194,170648.0,150763.0,18806.0,18.785631241342344
62877.67360294369,170664.0,150750.0,18793.0,18.795731043086562
62877.68370274543,170689.0,150728.0,18782.0,18.80583084483078
62877.69380254717,170646.0,150742.0,18778.0,18.815930646567722
62877.70390234891,170672.0,150760.0,18802.0,18.82603044831194
62877.71400215066,170679.0,150752.0,18784.0,18.836130250056158
62877.7241019524,170644.0,150760.0,18782.0,18.846230051800376
62877.73420175414,170641.0,150713.0,18789.0,18.856329853537318
62877.74430155588,170658.0,150741.0,18785.0,18.866429655281536
62877.754401357626,170676.0,150741.0,18799.0,18.876529457025754
62877.76450115937,170675.0,150760.0,18766.0,18.886629258769972
62877.774600961115,170698.0,150773.0,18817.0,18.89672906051419
62877.78470076285,170666.0,150730.0,18775.0,18.906828862251132
62877.794800564596,170688.0,150766.0,18783.0,18.91692866399535
62877.80490036634,170685.0,150765.0,18795.0,18.927028465739568
62877.815000168084,170662.0,150722.0,18776.0,18.937128267483786
62877.82509996983,170660.0,150746.0,18753.0,18.947228069228004
62877.835199771565,170653.0,150727.0,18773.0,18.957327870964946
62877.84529957331,170620.0,150696.0,18811.0,18.967427672709164
62877.855399375054,170579.0,150693.0,18774.0,18.97752747445338
62877.8654991768,170640.0,150715.0,18792.0,18.9876272761976
62877.875598978535,170597.0,150707.0,18764.0,18.99772707793454
62877.88569878028,170639.0,150698.0,18742.0,19.00782687967876
62877.89579858202,170620.0,150728.0,18759.0,19.017926681422978
62877.90589838377,170615.0,150688.0,18738.0,19.028026483167196
62877.91599818551,170604.0,150712.0,18750.0,19.038126284911414
62877.92609798725,170615.0,150697.0,18748.0,19.048226086648356
62877.93619778899,170637.0,150721.0,18737.0,19.058325888392574
62877.94629759074,170617.0,150740.0,18748.0,19.06842569013679
62877.95639739248,170645.0,150735.0,18757.0,19.07852549188101
62877.966497194226,170620.0,150740.0,18741.0,19.088625293625228
62877.97659699596,170653.0,150740.0,18773.0,19.09872509536217
62877.98669679771,170606.0,150701.0,18759.0,19.108824897106388
62877.99679659945,170621.0,150736.0,18761.0,19.118924698850606
62878.006896401195,170631.0,150712.0,18764.0,19.129024500594824
62878.01699620293,170609.0,150721.0,18755.0,19.139124302331766
62878.02709600468,170637.0,150752.0,18787.0,19.149224104075984
62878.03719580642,170648.0,150733.0,18753.0,19.1593239058202
62878.047295608165,170633.0,150721.0,18799.0,19.16942370756442
62878.05739540991,170626.0,150716.0,18782.0,19.179523509308638
62878.067495211646,170652.0,150765.0,18780.0,19.18962331104558
62878.07759501339,170686.0,150733.0,18794.0,19.199723112789798
62878.087694815134,170668.0,150774.0,18771.0,19.209822914534016
62878.09779461688,170635.0,150733.0,18763.0,19.219922716278234
62878.10789441862,170661.0,150728.0,18791.0,19.23002251802245
62878.11799422036,170643.0,150722.0,18767.0,19.240122319759394
62878.128094022104,170646.0,150757.0,18769.0,19.25022212150361
62878.13819382385,170651.0,150731.0,18774.0,19.26032192324783
62878.14829362559,170662.0,150720.0,18768.0,19.270421724992048
62878.15839342733,170653.0,150709.0,18781.0,19.28052152672899
62878.168493229074,170654.0,150731.0,18762.0,19.290621328473208
62878.17859303082,170676.0,150742.0,18792.0,19.300721130217426
62878.18869283256,170664.0,150733.0,18768.0,19.310820931961644
