time,ppg
62863.87738464243,154152.0
62863.887478510485,154140.0
62863.89757237854,154145.0
62863.9076662466,154111.0
62863.91776011466,154095.0
62863.927853982714,154089.0
62863.93794785077,154032.0
62863.94804171883,154040.0
62863.95813558689,153993.0
62863.96822945494,153995.0
62863.978323323,153937.0
62863.98841719106,153976.0
62863.998511059115,153946.0
62864.00860492717,153935.0
62864.018698795226,153971.0
62864.02879266329,153926.0
62864.03888653134,153919.0
62864.0489803994,153917.0
62864.059074267454,153964.0
62864.06916813551,153925.0
62864.07926200357,153949.0
62864.08935587163,153953.0
62864.09944973968,153921.0
62864.10954360774,153971.0
62864.1196374758,153953.0
62864.129731343855,153967.0
62864.13982521191,153919.0
62864.149919079966,153984.0
62864.16001294803,153955.0
62864.170106816084,153934.0
62864.18020068414,153954.0
62864.190294552194,153925.0
62864.20038842026,153921.0
62864.21048228831,153957.0
62864.22057615637,153960.0
62864.23067002442,153922.0
62864.24076389248,153964.0
62864.25085776054,153942.0
62864.260951628596,153926.0
62864.27104549665,153941.0
62864.281139364706,153911.0
62864.29123323277,153957.0
62864.301327100824,153950.0
62864.31142096888,153943.0
62864.321514836935,153928.0
62864.331608705,153978.0
62864.34170257305,153952.0
62864.35179644111,153974.0
62864.36189030916,153973.0
62864.371984177225,153978.0
62864.38207804528,153987.0
62864.392171913336,153962.0
62864.40226578139,154016.0
62864.41235964945,154004.0
62864.42245351751,154005.0
62864.432547385564,154012.0
62864.44264125362,154024.0
62864.452735121675,154011.0
62864.46282898974,153997.0
62864.47292285779,154053.0
62864.48301672585,154013.0
62864.4931105939,154047.0
62864.503204461966,154048.0
62864.51329833002,154043.0
62864.523392198076,154076.0
62864.53348606613,154055.0
62864.543579934194,154060.0
62864.55367380225,154038.0
62864.563767670305,154077.0
62864.57386153836,154067.0
62864.583955406415,154050.0
62864.59404927448,154057.0
62864.60414314253,154055.0
62864.61423701059,154067.0
62864.62433087864,154080.0
62864.634424746706,154109.0
62864.64451861476,154090.0
62864.65461248282,154089.0
62864.66470635087,154090.0
62864.674800218934,154124.0
62864.68489408699,154083.0
62864.694987955045,154125.0
62864.7050818231,154100.0
62864.715175691155,154079.0
62864.72526955922,154105.0
62864.73536342727,154073.0
62864.74545729533,154086.0
62864.755551163384,154065.0
62864.765645031446,154027.0
62864.7757388995,153954.0
62864.78583276756,153954.0
62864.79592663561,153926.0
62864.806020503675,153915.0
62864.81611437173,153902.0
62864.826208239785,153881.0
62864.83630210784,153858.0
62864.8463959759,153831.0
62864.85648984396,153893.0
62864.86658371201,153880.0
62864.87667758007,153868.0
62864.886771448124,153893.0
62864.89686531619,153846.0
62864.90695918424,153881.0
62864.9170530523,153873.0
62864.92714692035,153866.0
62864.937240788415,153848.0
62864.94733465647,153880.0
62864.957428524525,153855.0
62864.96752239258,153839.0
62864.97761626064,153830.0
62864.9877101287,153873.0
62864.997803996754,153888.0
62865.00789786481,153894.0
62865.01799173287,153895.0
62865.02808560093,153889.0
62865.03817946898,153851.0
62865.04827333704,153857.0
62865.05836720509,153893.0
62865.068461073155,153880.0
62865.07855494121,153855.0
62865.088648809266,153884.0
62865.09874267732,153864.0
62865.10883654538,153873.0
62865.11893041344,153852.0
62865.129024281494,153850.0
62865.13911814955,153872.0
62865.14921201761,153878.0
62865.15930588567,153862.0
62865.16939975372,153855.0
62865.17949362178,153871.0
62865.18958748984,153896.0
62865.199681357895,153886.0
62865.20977522595,153874.0
62865.219869094006,153889.0
62865.22996296206,153880.0
62865.240056830124,153912.0
62865.25015069818,153899.0
62865.260244566234,153872.0
62865.27033843429,153911.0
62865.28043230235,153911.0
62865.29052617041,153900.0
62865.30062003846,153927.0
62865.31071390652,153943.0
62865.32080777458,153929.0
62865.330901642636,153920.0
62865.34099551069,153907.0
62865.351089378746,153940.0
62865.36118324681,153952.0
62865.371277114864,153979.0
62865.38137098292,153934.0
62865.391464850974,153907.0
62865.40155871903,153957.0
62865.41165258709,153990.0
62865.42174645515,153988.0
62865.4318403232,153966.0
62865.44193419126,153982.0
62865.45202805932,153984.0
62865.462121927376,153986.0
62865.47221579543,153985.0
62865.48230966349,153987.0
62865.49240353155,153986.0
62865.502497399604,154021.0
62865.51259126766,153958.0
62865.522685135715,154011.0
62865.53277900377,154016.0
62865.54287287183,154039.0
62865.55296673989,153994.0
62865.56306060794,154037.0
62865.573154476,154037.0
62865.58324834406,154040.0
62865.593342212116,154024.0
62865.60343608017,154031.0
62865.61352994823,154057.0
62865.62362381629,153979.0
62865.633717684344,153982.0
62865.6438115524,153938.0
62865.653905420455,153922.0
62865.66399928852,153875.0
62865.67409315657,153860.0
62865.68418702463,153837.0
62865.69428089268,153802.0
62865.70437476074,153833.0
62865.7144686288,153821.0
62865.72456249686,153807.0
62865.73465636491,153803.0
62865.74475023297,153838.0
62865.75484410103,153833.0
62865.764937969085,153780.0
62865.77503183714,153808.0
62865.785125705195,153805.0
62865.79521957326,153837.0
62865.80531344131,153823.0
62865.81540730937,153820.0
62865.82550117742,153807.0
62865.835595045486,153774.0
62865.84568891354,153792.0
62865.8557827816,153806.0
62865.86587664965,153780.0
62865.87597051771,153811.0
62865.88606438577,153830.0
62865.896158253825,153805.0
62865.90625212188,153845.0
62865.916345989936,153779.0
62865.926439858,153816.0
62865.93653372605,153804.0
62865.94662759411,153786.0
62865.956721462164,153776.0
62865.96681533023,153786.0
62865.97690919828,153800.0
62865.98700306634,153822.0
62865.99709693439,153839.0
62866.007190802455,153770.0
62866.01728467051,153809.0
62866.027378538565,153780.0
62866.03747240662,153804.0
62866.047566274676,153827.0
62866.05766014274,153818.0
62866.06775401079,153796.0
62866.07784787885,153869.0
62866.087941746904,153823.0
62866.09803561497,153845.0
62866.10812948302,153867.0
62866.11822335108,153854.0
62866.12831721913,153854.0
62866.138411087195,153859.0
62866.14850495525,153840.0
62866.158598823306,153890.0
62866.16869269136,153858.0
62866.17878655942,153908.0
62866.18888042748,153917.0
62866.198974295534,153894.0
62866.20906816359,153867.0
62866.219162031644,153897.0
62866.22925589971,153894.0
62866.23934976776,153872.0
62866.24944363582,153944.0
62866.25953750387,153915.0
62866.269631371935,153880.0
62866.27972523999,153951.0
62866.289819108046,153927.0
62866.2999129761,153909.0
62866.31000684416,153939.0
62866.32010071222,153964.0
62866.330194580274,153932.0
62866.34028844833,153943.0
62866.350382316385,153955.0
62866.36047618445,153966.0
62866.3705700525,153930.0
62866.38066392056,153952.0
62866.39075778861,153976.0
62866.400851656676,153953.0
62866.41094552473,153993.0
62866.421039392786,154003.0
62866.43113326084,153992.0
62866.441227128904,154008.0
62866.45132099696,153990.0
62866.461414865014,154013.0
62866.47150873307,154005.0
62866.48160260113,154041.0
62866.49169646919,154009.0
62866.50179033724,154032.0
62866.5118842053,154022.0
62866.52197807335,154020.0
62866.532071941416,153999.0
62866.54216580947,154032.0
62866.552259677526,153988.0
62866.56235354558,153954.0
62866.572447413644,153934.0
62866.5825412817,153884.0
62866.592635149755,153856.0
62866.60272901781,153817.0
62866.61282288587,153854.0
62866.62291675393,153781.0
62866.63301062198,153797.0
62866.64310449004,153783.0
62866.6531983581,153799.0
62866.663292226156,153756.0
62866.67338609421,153810.0
62866.68347996227,153816.0
62866.69357383032,153809.0
62866.703667698384,153821.0
62866.71376156644,153799.0
62866.723855434495,153781.0
62866.73394930255,153788.0
62866.74404317061,153796.0
62866.75413703867,153805.0
62866.76423090672,153814.0
62866.77432477478,153821.0
62866.78441864284,153820.0
62866.794512510896,153822.0
62866.80460637895,153800.0
62866.81470024701,153798.0
62866.82479411507,153819.0
62866.834887983125,153816.0
62866.84498185118,153805.0
62866.855075719235,153792.0
62866.86516958729,153852.0
62866.87526345535,153830.0
62866.88535732341,153812.0
62866.89545119146,153826.0
62866.90554505952,153838.0
62866.91563892758,153848.0
62866.92573279564,153855.0
62866.93582666369,153874.0
62866.94592053175,153861.0
62866.95601439981,153880.0
62866.966108267865,153893.0
62866.97620213592,153885.0
62866.986296003975,153887.0
62866.99638987204,153884.0
62867.00648374009,153866.0
62867.01657760815,153880.0
62867.026671476204,153896.0
62867.03676534426,153892.0
62867.04685921232,153906.0
62867.05695308038,153901.0
62867.06704694843,153941.0
62867.07714081649,153916.0
62867.08723468455,153901.0
62867.097328552605,153933.0
62867.10742242066,153907.0
62867.117516288716,153932.0
62867.12761015678,153906.0
62867.13770402483,153952.0
62867.14779789289,153924.0
62867.157891760944,153947.0
62867.167985629,153977.0
62867.17807949706,153927.0
62867.18817336512,153976.0
62867.19826723317,153962.0
62867.20836110123,153951.0
62867.21845496929,153943.0
62867.228548837345,153990.0
62867.2386427054,153974.0
62867.248736573456,153956.0
62867.25883044152,153994.0
62867.268924309574,153982.0
62867.27901817763,154015.0
62867.289112045684,153987.0
62867.29920591375,154015.0
62867.3092997818,154007.0
62867.31939364986,154009.0
62867.32948751791,154007.0
62867.33958138597,153968.0
62867.34967525403,153950.0
62867.359769122086,153966.0
62867.36986299014,153910.0
62867.379956858196,153904.0
62867.39005072626,153899.0
62867.400144594314,153819.0
62867.41023846237,153832.0
62867.420332330425,153844.0
62867.43042619849,153804.0
62867.44052006654,153814.0
62867.4506139346,153812.0
62867.46070780265,153819.0
62867.470801670715,153810.0
62867.48089553877,153816.0
62867.490989406826,153839.0
62867.50108327488,153826.0
62867.51117714294,153868.0
62867.521271011,153861.0
62867.531364879054,153852.0
62867.54145874711,153847.0
62867.551552615165,153841.0
62867.56164648323,153801.0
62867.57174035128,153846.0
62867.58183421934,153841.0
62867.59192808739,153876.0
62867.602021955456,153882.0
62867.61211582351,153850.0
62867.622209691566,153885.0
62867.63230355962,153835.0
62867.642397427684,153887.0
62867.65249129574,153864.0
62867.662585163795,153835.0
62867.67267903185,153852.0
62867.682772899905,153868.0
62867.69286676797,153829.0
62867.70296063602,153837.0
62867.71305450408,153839.0
62867.72314837213,153832.0
62867.733242240196,153866.0
62867.74333610825,153867.0
62867.75342997631,153892.0
62867.76352384436,153843.0
62867.773617712424,153875.0
62867.78371158048,153921.0
62867.793805448535,153878.0
62867.80389931659,153917.0
62867.81399318465,153914.0
62867.82408705271,153853.0
62867.83418092076,153899.0
62867.84427478882,153918.0
62867.854368656874,153913.0
62867.864462524936,153903.0
62867.87455639299,153929.0
62867.88465026105,153945.0
62867.8947441291,153942.0
62867.904837997165,153940.0
62867.91493186522,153977.0
62867.925025733275,153926.0
62867.93511960133,153966.0
62867.94521346939,153960.0
62867.95530733745,153915.0
62867.9654012055,153960.0
62867.97549507356,153944.0
62867.985588941614,153962.0
62867.99568280968,153955.0
62868.00577667773,153966.0
62868.01587054579,153976.0
62868.02596441384,153985.0
62868.036058281905,153988.0
62868.04615214996,153991.0
62868.056246018015,153962.0
62868.06633988607,154001.0
62868.07643375413,154036.0
62868.08652762219,153990.0
62868.096621490244,154022.0
62868.1067153583,154011.0
62868.11680922636,153989.0
62868.12690309442,154026.0
62868.13699696247,154049.0
62868.14709083053,154021.0
62868.15718469858,153985.0
62868.167278566645,154004.0
62868.1773724347,153937.0
62868.187466302756,153928.0
62868.19756017081,153881.0
62868.20765403887,153861.0
62868.21774790693,153874.0
62868.227841774984,153880.0
62868.23793564304,153849.0
62868.2480295111,153824.0
62868.25812337916,153852.0
62868.26821724721,153865.0
62868.27831111527,153891.0
62868.28840498333,153860.0
62868.298498851385,153879.0
62868.30859271944,153875.0
62868.318686587496,153879.0
62868.32878045555,153873.0
62868.338874323614,153874.0
62868.34896819167,153886.0
62868.359062059724,153918.0
62868.36915592778,153876.0
62868.37924979584,153883.0
62868.3893436639,153905.0
62868.39943753195,153915.0
62868.40953140001,153889.0
62868.41962526807,153926.0
62868.429719136126,153925.0
62868.43981300418,153906.0
62868.449906872236,153888.0
62868.4600007403,153926.0
62868.470094608354,153891.0
62868.48018847641,153911.0
62868.490282344465,153873.0
62868.50037621252,153878.0
62868.51047008058,153894.0
62868.52056394864,153902.0
62868.53065781669,153906.0
62868.54075168475,153919.0
62868.55084555281,153929.0
62868.560939420866,153911.0
62868.57103328892,153932.0
62868.58112715698,153952.0
62868.59122102504,153973.0
62868.601314893094,153947.0
62868.61140876115,153943.0
62868.621502629205,153975.0
62868.63159649727,153977.0
62868.64169036532,153948.0
62868.65178423338,153963.0
62868.66187810143,154000.0
62868.67197196949,153955.0
62868.68206583755,153984.0
62868.692159705606,153977.0
62868.70225357366,153976.0
62868.71234744172,154007.0
62868.72244130978,153996.0
62868.732535177835,154017.0
62868.74262904589,154033.0
62868.752722913945,154017.0
62868.76281678201,153971.0
62868.77291065006,153982.0
62868.78300451812,154019.0
62868.79309838617,154006.0
62868.80319225423,154033.0
62868.81328612229,153998.0
62868.82337999035,153997.0
62868.8334738584,154050.0
62868.84356772646,154037.0
62868.85366159452,154069.0
62868.863755462575,154068.0
62868.87384933063,154053.0
62868.883943198685,154071.0
62868.89403706675,154056.0
62868.9041309348,154045.0
62868.91422480286,154041.0
62868.92431867091,154069.0
62868.934412538976,154044.0
62868.94450640703,154040.0
62868.95460027509,154025.0
62868.96469414314,153989.0
62868.9747880112,153943.0
62868.98488187926,153904.0
62868.994975747315,153919.0
62869.00506961537,153906.0
62869.015163483426,153883.0
62869.02525735149,153849.0
62869.03535121954,153846.0
62869.0454450876,153890.0
62869.055538955654,153877.0
62869.06563282372,153863.0
62869.07572669177,153874.0
62869.08582055983,153897.0
62869.09591442788,153881.0
62869.106008295945,153870.0
62869.116102164,153897.0
62869.126196032055,153917.0
62869.13628990011,153884.0
62869.146383768166,153855.0
62869.15647763623,153872.0
62869.166571504284,153891.0
62869.17666537234,153883.0
62869.186759240394,153898.0
62869.19685310846,153900.0
62869.20694697651,153901.0
62869.21704084457,153906.0
62869.22713471262,153923.0
62869.237228580685,153891.0
62869.24732244874,153894.0
62869.257416316796,153899.0
62869.26751018485,153886.0
62869.27760405291,153910.0
62869.28769792097,153874.0
62869.297791789024,153880.0
62869.30788565708,153886.0
62869.317979525134,153907.0
62869.3280733932,153936.0
62869.33816726125,153915.0
62869.34826112931,153899.0
62869.35835499736,153897.0
62869.368448865425,153903.0
62869.37854273348,153935.0
62869.388636601536,153963.0
62869.39873046959,153956.0
62869.408824337654,153966.0
62869.41891820571,153949.0
62869.429012073764,153984.0
62869.43910594182,153939.0
62869.44919980988,153978.0
62869.45929367794,153973.0
62869.46938754599,153971.0
62869.47948141405,153997.0
62869.4895752821,153975.0
62869.499669150166,153978.0
62869.50976301822,154025.0
62869.519856886276,153981.0
62869.52995075433,153973.0
62869.540044622394,154009.0
62869.55013849045,153987.0
62869.560232358504,154042.0
62869.57032622656,154022.0
62869.58042009462,153973.0
62869.59051396268,154020.0
62869.60060783073,154004.0
62869.61070169879,154014.0
62869.62079556684,154048.0
62869.630889434906,154042.0
62869.64098330296,154073.0
62869.65107717102,154060.0
62869.66117103907,154081.0
62869.671264907134,154068.0
62869.68135877519,154047.0
62869.691452643245,154085.0
62869.7015465113,154070.0
62869.71164037936,154081.0
62869.72173424742,154077.0
62869.73182811547,154079.0
62869.74192198353,154061.0
62869.75201585159,154095.0
62869.762109719646,154118.0
62869.7722035877,154066.0
62869.78229745576,154078.0
62869.79239132381,154044.0
62869.802485191874,153976.0
62869.81257905993,153975.0
62869.822672927985,153970.0
62869.83276679604,153915.0
62869.8428606641,153876.0
62869.85295453216,153887.0
62869.86304840021,153863.0
62869.87314226827,153881.0
62869.88323613633,153855.0
62869.89333000439,153899.0
62869.90342387244,153853.0
62869.9135177405,153877.0
62869.92361160856,153875.0
62869.933705476615,153858.0
62869.94379934467,153871.0
62869.953893212725,153880.0
62869.96398708078,153882.0
62869.97408094884,153880.0
62869.9841748169,153888.0
62869.99426868495,153878.0
62870.00436255301,153851.0
62870.01445642107,153857.0
62870.02455028913,153865.0
62870.03464415718,153886.0
62870.04473802524,153923.0
62870.0548318933,153891.0
62870.064925761355,153879.0
62870.07501962941,153895.0
62870.085113497465,153911.0
62870.09520736553,153871.0
62870.10530123358,153911.0
62870.11539510164,153884.0
62870.125488969694,153880.0
62870.13558283775,153875.0
62870.14567670581,153905.0
62870.15577057387,153899.0
62870.16586444192,153916.0
62870.17595830998,153928.0
62870.18605217804,153924.0
62870.196146046095,153891.0
62870.20623991415,153915.0
62870.216333782206,153935.0
62870.22642765027,153904.0
62870.23652151832,153907.0
62870.24661538638,153928.0
62870.256709254434,153929.0
62870.2668031225,153949.0
62870.27689699055,153970.0
62870.28699085861,153963.0
62870.29708472666,153937.0
62870.30717859472,153946.0
62870.31727246278,153959.0
62870.327366330836,153970.0
62870.33746019889,153976.0
62870.347554066946,153986.0
62870.35764793501,153982.0
62870.367741803064,153985.0
62870.37783567112,154004.0
62870.387929539174,153959.0
62870.39802340724,154023.0
62870.40811727529,154004.0
62870.41821114335,154000.0
62870.4283050114,154022.0
62870.43839887946,153991.0
62870.44849274752,154016.0
62870.458586615576,154002.0
62870.46868048363,154037.0
62870.478774351686,154007.0
62870.48886821975,154029.0
62870.498962087804,154020.0
62870.50905595586,154006.0
62870.519149823915,154007.0
62870.52924369198,154060.0
62870.53933756003,154078.0
62870.54943142809,154066.0
62870.55952529614,154092.0
62870.569619164206,154066.0
62870.57971303226,154051.0
62870.589806900316,154090.0
62870.59990076837,154079.0
62870.60999463643,154096.0
62870.62008850449,154108.0
62870.630182372544,154097.0
62870.6402762406,154078.0
62870.650370108655,154102.0
62870.66046397672,154091.0
62870.67055784477,154104.0
62870.68065171283,154086.0
62870.69074558088,154044.0
62870.700839448946,154007.0
62870.710933317,153986.0
62870.721027185056,153973.0
62870.73112105311,153946.0
62870.741214921174,153929.0
62870.75130878923,153913.0
62870.761402657285,153926.0
62870.77149652534,153841.0
62870.781590393395,153886.0
62870.79168426146,153908.0
62870.80177812951,153879.0
62870.81187199757,153924.0
62870.82196586562,153904.0
62870.832059733686,153914.0
62870.84215360174,153906.0
62870.8522474698,153937.0
62870.86234133785,153901.0
62870.872435205914,153879.0
62870.88252907397,153934.0
62870.892622942025,153896.0
62870.90271681008,153888.0
62870.91281067814,153927.0
62870.9229045462,153915.0
62870.93299841425,153856.0
62870.94309228231,153911.0
62870.953186150364,153936.0
62870.963280018426,153911.0
62870.97337388648,153930.0
62870.98346775454,153920.0
62870.99356162259,153885.0
62871.003655490655,153886.0
62871.01374935871,153904.0
62871.023843226765,153922.0
62871.03393709482,153887.0
62871.04403096288,153911.0
62871.05412483094,153893.0
62871.06421869899,153915.0
62871.07431256705,153899.0
62871.08440643511,153901.0
62871.09450030317,153881.0
62871.10459417122,153933.0
62871.11468803928,153963.0
62871.12478190733,153935.0
62871.134875775395,153939.0
62871.14496964345,153948.0
62871.155063511505,153975.0
62871.16515737956,153943.0
62871.17525124762,153987.0
62871.18534511568,153967.0
62871.195438983734,153962.0
62871.20553285179,154006.0
62871.21562671985,153970.0
62871.22572058791,153992.0
62871.23581445596,153976.0
62871.24590832402,153980.0
62871.25600219207,153993.0
62871.266096060135,154009.0
62871.27618992819,154000.0
62871.286283796246,153979.0
62871.2963776643,154034.0
62871.30647153236,154023.0
62871.31656540042,154021.0
62871.326659268474,154038.0
62871.33675313653,154054.0
62871.34684700459,154013.0
62871.35694087265,154038.0
62871.3670347407,154011.0
62871.37712860876,154072.0
62871.38722247682,154053.0
62871.397316344875,154055.0
62871.40741021293,154065.0
62871.417504080986,154067.0
62871.42759794904,154055.0
62871.437691817104,154105.0
62871.44778568516,154063.0
62871.457879553214,154074.0
62871.46797342127,154077.0
62871.47806728933,154089.0
62871.48816115739,154109.0
62871.49825502544,154106.0
62871.5083488935,154081.0
62871.51844276156,154122.0
62871.528536629616,154130.0
62871.53863049767,154146.0
62871.548724365726,154119.0
62871.55881823379,154129.0
62871.568912101844,154136.0
62871.5790059699,154124.0
62871.589099837955,154163.0
62871.59919370601,154155.0
62871.60928757407,154129.0
62871.61938144213,154142.0
62871.62947531018,154129.0
62871.63956917824,154089.0
62871.6496630463,154040.0
62871.659756914356,154051.0
62871.66985078241,154001.0
62871.67994465047,153980.0
62871.69003851853,153961.0
62871.700132386584,153954.0
62871.71022625464,153918.0
62871.720320122695,153941.0
62871.73041399076,153977.0
62871.74050785881,153934.0
62871.75060172687,153949.0
62871.76069559492,153968.0
62871.77078946298,153973.0
62871.78088333104,153936.0
62871.790977199096,153991.0
62871.80107106715,153962.0
62871.81116493521,153936.0
62871.82125880327,153965.0
62871.831352671325,153959.0
62871.84144653938,153937.0
62871.851540407435,153955.0
62871.8616342755,153978.0
62871.87172814355,153994.0
62871.88182201161,153993.0
62871.89191587966,153975.0
62871.902009747726,153972.0
62871.91210361578,153996.0
62871.92219748384,153951.0
62871.93229135189,153977.0
62871.94238521995,153964.0
62871.95247908801,153992.0
62871.962572956065,153946.0
62871.97266682412,153964.0
62871.982760692175,153962.0
62871.99285456024,153965.0
62872.00294842829,153977.0
62872.01304229635,153984.0
62872.023136164404,154019.0
62872.033230032466,154008.0
62872.04332390052,154020.0
62872.05341776858,154000.0
62872.06351163663,154032.0
62872.07360550469,153994.0
62872.08369937275,154042.0
62872.093793240805,154005.0
62872.10388710886,154012.0
62872.113980976916,154015.0
62872.12407484498,154012.0
62872.13416871303,154053.0
62872.14426258109,154026.0
62872.154356449144,154072.0
62872.16445031721,154068.0
62872.17454418526,154057.0
62872.18463805332,154071.0
62872.19473192137,154053.0
62872.204825789435,154060.0
62872.21491965749,154076.0
62872.225013525545,154058.0
62872.2351073936,154108.0
62872.245201261656,154070.0
62872.25529512972,154100.0
62872.265388997774,154070.0
62872.27548286583,154092.0
62872.285576733884,154090.0
62872.29567060195,154103.0
62872.30576447,154096.0
62872.31585833806,154100.0
62872.32595220611,154098.0
62872.336046074175,154124.0
62872.34613994223,154142.0
62872.356233810286,154114.0
62872.36632767834,154138.0
62872.3764215464,154157.0
62872.38651541446,154138.0
62872.396609282514,154131.0
62872.40670315057,154141.0
62872.416797018624,154152.0
62872.42689088669,154158.0
62872.43698475474,154150.0
62872.4470786228,154156.0
62872.45717249085,154160.0
62872.467266358915,154192.0
62872.47736022697,154183.0
62872.487454095026,154200.0
62872.49754796308,154222.0
62872.507641831144,154195.0
62872.5177356992,154179.0
62872.527829567254,154212.0
62872.53792343531,154204.0
62872.54801730337,154237.0
62872.55811117143,154233.0
62872.56820503948,154244.0
62872.57829890754,154187.0
62872.58839277559,154204.0
62872.598486643656,154190.0
62872.60858051171,154169.0
62872.618674379766,154134.0
62872.62876824782,154081.0
62872.638862115884,154063.0
62872.64895598394,154047.0
62872.659049851994,154028.0
62872.66914372005,154034.0
62872.67923758811,154028.0
62872.68933145617,153994.0
62872.69942532422,154040.0
62872.70951919228,154025.0
62872.71961306034,154036.0
62872.729706928396,154023.0
62872.73980079645,154058.0
62872.74989466451,154044.0
62872.75998853256,154037.0
62872.770082400624,154050.0
62872.78017626868,154045.0
62872.790270136735,154043.0
62872.80036400479,154067.0
62872.81045787285,154054.0
62872.82055174091,154051.0
62872.83064560896,154057.0
62872.84073947702,154072.0
62872.85083334508,154076.0
62872.860927213136,154095.0
62872.87102108119,154071.0
62872.88111494925,154041.0
62872.8912088173,154071.0
62872.901302685364,154029.0
62872.91139655342,154064.0
62872.921490421475,154005.0
62872.93158428953,154015.0
62872.94167815759,154071.0
62872.95177202565,154069.0
62872.9618658937,154062.0
62872.97195976176,154038.0
62872.98205362982,154031.0
62872.99214749788,154048.0
62873.00224136593,154068.0
62873.01233523399,154077.0
62873.02242910205,154080.0
62873.032522970105,154059.0
62873.04261683816,154076.0
62873.052710706215,154112.0
62873.06280457427,154073.0
62873.07289844233,154099.0
62873.08299231039,154110.0
62873.09308617844,154107.0
62873.1031800465,154106.0
62873.11327391456,154140.0
62873.12336778262,154126.0
62873.13346165067,154108.0
62873.14355551873,154112.0
62873.15364938679,154128.0
62873.163743254845,154139.0
62873.1738371229,154143.0
62873.183930990956,154153.0
62873.19402485902,154111.0
62873.20411872707,154149.0
62873.21421259513,154163.0
62873.224306463184,154143.0
62873.23440033124,154173.0
62873.2444941993,154168.0
62873.25458806736,154189.0
62873.26468193541,154165.0
62873.27477580347,154188.0
62873.28486967153,154178.0
62873.294963539585,154161.0
62873.30505740764,154193.0
62873.315151275696,154174.0
62873.32524514376,154190.0
62873.33533901181,154185.0
62873.34543287987,154193.0
62873.355526747924,154171.0
62873.36562061599,154206.0
62873.37571448404,154239.0
62873.3858083521,154202.0
62873.39590222015,154232.0
62873.40599608821,154223.0
62873.41608995627,154222.0
62873.426183824326,154201.0
62873.43627769238,154237.0
62873.446371560436,154224.0
62873.4564654285,154269.0
62873.466559296554,154257.0
62873.47665316461,154240.0
62873.486747032664,154252.0
62873.49684090073,154208.0
62873.50693476878,154192.0
62873.51702863684,154186.0
62873.52712250489,154154.0
62873.537216372955,154129.0
62873.54731024101,154086.0
62873.557404109066,154104.0
62873.56749797712,154088.0
62873.577591845176,154057.0
62873.58768571324,154050.0
62873.597779581294,154082.0
62873.60787344935,154061.0
62873.617967317405,154088.0
62873.62806118547,154084.0
62873.63815505352,154080.0
62873.64824892158,154115.0
62873.65834278963,154115.0
62873.668436657696,154103.0
62873.67853052575,154089.0
62873.688624393806,154126.0
62873.69871826186,154122.0
62873.70881212992,154141.0
62873.71890599798,154112.0
62873.728999866034,154118.0
62873.73909373409,154136.0
62873.749187602145,154134.0
62873.75928147021,154155.0
62873.76937533826,154111.0
62873.77946920632,154133.0
62873.78956307437,154145.0
62873.799656942436,154127.0
62873.80975081049,154117.0
62873.819844678546,154128.0
62873.8299385466,154136.0
62873.840032414664,154128.0
62873.85012628272,154160.0
62873.860220150775,154119.0
62873.87031401883,154107.0
62873.880407886885,154124.0
62873.89050175495,154100.0
62873.900595623,154135.0
62873.91068949106,154107.0
62873.92078335911,154133.0
62873.930877227176,154123.0
62873.94097109523,154150.0
62873.95106496329,154168.0
62873.96115883134,154141.0
62873.971252699404,154173.0
62873.98134656746,154182.0
62873.991440435515,154170.0
62874.00153430357,154140.0
62874.01162817163,154169.0
62874.02172203969,154168.0
62874.03181590774,154173.0
62874.0419097758,154197.0
62874.052003643854,154163.0
62874.06209751192,154208.0
62874.07219137997,154167.0
62874.08228524803,154238.0
62874.09237911608,154172.0
62874.102472984145,154208.0
62874.1125668522,154161.0
62874.122660720255,154183.0
62874.13275458831,154170.0
62874.14284845637,154188.0
62874.15294232443,154221.0
62874.16303619248,154212.0
62874.17313006054,154248.0
62874.1832239286,154214.0
62874.19331779666,154243.0
62874.20341166471,154195.0
62874.21350553277,154268.0
62874.22359940082,154260.0
62874.233693268885,154250.0
62874.24378713694,154211.0
62874.253881004995,154244.0
62874.26397487305,154203.0
62874.27406874111,154264.0
62874.28416260917,154292.0
62874.294256477224,154268.0
62874.30435034528,154284.0
62874.31444421334,154266.0
62874.3245380814,154250.0
62874.33463194945,154262.0
62874.34472581751,154205.0
62874.35481968557,154197.0
62874.364913553625,154189.0
62874.37500742168,154157.0
62874.385101289736,154090.0
62874.39519515779,154127.0
62874.40528902585,154118.0
62874.41538289391,154109.0
62874.425476761964,154129.0
62874.43557063002,154114.0
62874.44566449808,154101.0
62874.45575836614,154140.0
62874.46585223419,154107.0
62874.47594610225,154121.0
62874.48603997031,154099.0
62874.496133838365,154150.0
62874.50622770642,154143.0
62874.516321574476,154118.0
62874.52641544253,154144.0
62874.536509310594,154168.0
62874.54660317865,154114.0
62874.556697046704,154160.0
62874.56679091476,154129.0
62874.57688478282,154176.0
62874.58697865088,154181.0
62874.59707251893,154164.0
62874.60716638699,154165.0
62874.61726025505,154148.0
62874.627354123106,154189.0
62874.63744799116,154146.0
62874.647541859216,154135.0
62874.65763572728,154134.0
62874.667729595334,154124.0
62874.67782346339,154151.0
62874.687917331445,154136.0
62874.6980111995,154177.0
62874.70810506756,154122.0
62874.71819893562,154165.0
62874.72829280367,154162.0
62874.73838667173,154178.0
62874.74848053979,154174.0
62874.758574407846,154146.0
62874.7686682759,154160.0
62874.77876214396,154203.0
62874.78885601202,154185.0
62874.798949880074,154138.0
62874.80904374813,154198.0
62874.819137616185,154184.0
62874.82923148425,154164.0
62874.8393253523,154177.0
62874.84941922036,154218.0
62874.85951308841,154230.0
62874.86960695647,154214.0
62874.87970082453,154207.0
62874.889794692586,154221.0
62874.89988856064,154204.0
62874.9099824287,154201.0
62874.92007629676,154225.0
62874.930170164815,154216.0
62874.94026403287,154220.0
62874.950357900925,154254.0
62874.96045176899,154226.0
62874.97054563704,154233.0
62874.9806395051,154214.0
62874.99073337315,154211.0
62875.000827241216,154249.0
62875.01092110927,154246.0
62875.02101497733,154251.0
62875.03110884538,154235.0
62875.04120271344,154268.0
62875.0512965815,154275.0
62875.061390449555,154247.0
62875.07148431761,154249.0
62875.081578185665,154222.0
62875.09167205373,154239.0
62875.10176592178,154212.0
62875.11185978984,154188.0
62875.121953657894,154190.0
62875.132047525956,154144.0
62875.14214139401,154134.0
62875.15223526207,154122.0
62875.16232913012,154108.0
62875.172422998185,154093.0
62875.18251686624,154053.0
62875.192610734295,154086.0
62875.20270460235,154109.0
62875.212798470406,154094.0
62875.22289233847,154119.0
62875.23298620652,154120.0
62875.24308007458,154109.0
62875.253173942634,154082.0
62875.2632678107,154114.0
62875.27336167875,154101.0
62875.28345554681,154095.0
62875.29354941486,154158.0
62875.303643282925,154129.0
62875.31373715098,154118.0
62875.323831019035,154101.0
62875.33392488709,154124.0
62875.344018755146,154127.0
62875.35411262321,154107.0
62875.364206491264,154115.0
62875.37430035932,154102.0
62875.384394227374,154127.0
62875.39448809544,154121.0
62875.40458196349,154093.0
62875.41467583155,154107.0
62875.4247696996,154110.0
62875.434863567665,154124.0
62875.44495743572,154129.0
62875.455051303776,154140.0
62875.46514517183,154117.0
62875.47523903989,154145.0
62875.48533290795,154100.0
62875.495426776004,154166.0
62875.50552064406,154132.0
62875.515614512115,154151.0
62875.52570838018,154127.0
62875.53580224823,154132.0
62875.54589611629,154151.0
62875.55598998434,154134.0
62875.566083852405,154139.0
62875.57617772046,154155.0
62875.586271588516,154181.0
62875.59636545657,154155.0
62875.606459324634,154175.0
62875.61655319269,154144.0
62875.626647060744,154190.0
62875.6367409288,154170.0
62875.64683479686,154194.0
62875.65692866492,154204.0
62875.66702253297,154198.0
62875.67711640103,154170.0
62875.68721026908,154185.0
62875.697304137146,154228.0
62875.7073980052,154202.0
62875.717491873256,154260.0
62875.72758574131,154172.0
62875.737679609374,154237.0
62875.74777347743,154233.0
62875.757867345485,154210.0
62875.76796121354,154241.0
62875.7780550816,154269.0
62875.78814894966,154229.0
62875.79824281771,154244.0
62875.80833668577,154274.0
62875.81843055383,154264.0
62875.828524421886,154237.0
62875.83861828994,154216.0
62875.848712158,154174.0
62875.85880602605,154129.0
62875.868899894114,154131.0
62875.87899376217,154112.0
62875.889087630225,154108.0
62875.89918149828,154077.0
62875.90927536634,154040.0
62875.9193692344,154049.0
62875.92946310245,154066.0
62875.93955697051,154055.0
62875.94965083857,154057.0
62875.959744706626,154050.0
62875.96983857468,154066.0
62875.97993244274,154086.0
62875.9900263108,153995.0
62876.000120178855,154061.0
62876.01021404691,154069.0
62876.020307914965,154077.0
62876.03040178302,154051.0
62876.04049565108,154053.0
62876.05058951914,154063.0
62876.06068338719,154030.0
62876.07077725525,154066.0
62876.08087112331,154052.0
62876.09096499137,154048.0
62876.10105885942,154056.0
62876.11115272748,154047.0
62876.12124659554,154036.0
62876.131340463595,154014.0
62876.14143433165,154028.0
62876.151528199705,154025.0
62876.16162206776,154043.0
62876.17171593582,154055.0
62876.18180980388,154014.0
62876.191903671934,154017.0
62876.20199753999,154044.0
62876.21209140805,154032.0
62876.22218527611,154062.0
62876.23227914416,154063.0
62876.24237301222,154053.0
62876.25246688028,154021.0
62876.262560748335,154071.0
62876.27265461639,154070.0
62876.282748484446,154075.0
62876.29284235251,154099.0
62876.30293622056,154090.0
62876.31303008862,154090.0
62876.323123956674,154099.0
62876.33321782473,154101.0
62876.34331169279,154117.0
62876.35340556085,154129.0
62876.3634994289,154116.0
62876.37359329696,154107.0
62876.38368716502,154115.0
62876.393781033075,154120.0
62876.40387490113,154111.0
62876.413968769186,154134.0
62876.42406263725,154114.0
62876.434156505304,154134.0
62876.44425037336,154137.0
62876.454344241414,154155.0
62876.46443810948,154163.0
62876.47453197753,154143.0
62876.48462584559,154177.0
62876.49471971364,154166.0
62876.5048135817,154147.0
62876.51490744976,154183.0
62876.525001317816,154165.0
62876.53509518587,154163.0
62876.545189053926,154158.0
62876.55528292199,154168.0
62876.565376790044,154162.0
62876.5754706581,154184.0
62876.585564526154,154213.0
62876.59565839422,154180.0
62876.60575226227,154214.0
62876.61584613033,154209.0
62876.62593999838,154181.0
62876.636033866445,154182.0
62876.6461277345,154201.0
62876.656221602556,154225.0
62876.66631547061,154207.0
62876.67640933867,154211.0
62876.68650320673,154169.0
62876.696597074784,154177.0
62876.70669094284,154121.0
62876.716784810895,154104.0
62876.72687867896,154091.0
62876.73697254701,154058.0
62876.74706641507,154029.0
62876.75716028312,154022.0
62876.767254151186,153999.0
62876.77734801924,154001.0
62876.787441887296,154013.0
62876.79753575535,154013.0
62876.807629623414,153986.0
62876.81772349147,153995.0
62876.827817359524,153996.0
62876.83791122758,154030.0
62876.848005095635,153999.0
62876.8580989637,153997.0
62876.86819283175,154024.0
62876.87828669981,153997.0
62876.88838056786,153993.0
62876.898474435926,153997.0
62876.90856830398,153998.0
62876.91866217204,153945.0
62876.92875604009,153992.0
62876.938849908154,153997.0
62876.94894377621,153979.0
62876.959037644265,153981.0
62876.96913151232,153998.0
62876.979225380375,153987.0
62876.98931924844,153986.0
62876.99941311649,154004.0
62877.00950698455,153975.0
62877.0196008526,154027.0
62877.029694720666,154006.0
62877.03978858872,153992.0
62877.04988245678,154012.0
62877.05997632483,153987.0
62877.070070192894,153986.0
62877.08016406095,153963.0
62877.090257929005,154033.0
62877.10035179706,153982.0
62877.11044566512,154008.0
62877.12053953318,154015.0
62877.13063340123,154008.0
62877.14072726929,153968.0
62877.150821137344,154028.0
62877.16091500541,154033.0
62877.17100887346,154029.0
62877.18110274152,154061.0
62877.19119660957,154033.0
62877.201290477635,154019.0
62877.21138434569,154008.0
62877.221478213745,154042.0
62877.2315720818,154070.0
62877.24166594986,154085.0
62877.25175981792,154097.0
62877.26185368597,154060.0
62877.27194755403,154074.0
62877.28204142209,154072.0
62877.29213529015,154084.0
62877.3022291582,154109.0
62877.31232302626,154097.0
62877.32241689431,154062.0
62877.332510762375,154055.0
62877.34260463043,154099.0
62877.352698498486,154104.0
62877.36279236654,154086.0
62877.3728862346,154106.0
62877.38298010266,154099.0
62877.393073970714,154107.0
62877.40316783877,154112.0
62877.41326170683,154111.0
62877.42335557489,154088.0
62877.43344944294,154125.0
62877.443543311,154158.0
62877.45363717906,154156.0
62877.463731047115,154154.0
62877.47382491517,154151.0
62877.483918783226,154170.0
62877.49401265128,154142.0
62877.50410651934,154164.0
62877.5142003874,154170.0
62877.524294255454,154139.0
62877.53438812351,154176.0
62877.54448199157,154170.0
62877.55457585963,154186.0
62877.56466972768,154168.0
62877.57476359574,154122.0
62877.5848574638,154107.0
62877.594951331856,154107.0
62877.60504519991,154054.0
62877.615139067966,154008.0
62877.62523293603,154025.0
62877.635326804084,153986.0
62877.64542067214,153982.0
62877.655514540194,153949.0
62877.66560840825,153979.0
62877.67570227631,153951.0
62877.68579614437,153976.0
62877.69589001242,153965.0
62877.70598388048,153962.0
62877.71607774854,153974.0
62877.726171616596,153990.0
62877.73626548465,154000.0
62877.746359352706,153956.0
62877.75645322077,153957.0
62877.766547088824,153972.0
62877.77664095688,153975.0
62877.786734824935,153940.0
62877.79682869299,153981.0
62877.80692256105,153970.0
62877.81701642911,153965.0
62877.82711029716,153986.0
62877.83720416522,153944.0
62877.84729803328,153976.0
62877.857391901336,154016.0
62877.86748576939,153963.0
62877.87757963745,154007.0
62877.88767350551,153978.0
62877.897767373564,153988.0
62877.90786124162,153970.0
62877.917955109675,153981.0
62877.92804897774,153986.0
62877.93814284579,153986.0
62877.94823671385,153995.0
62877.9583305819,153970.0
62877.96842444996,153998.0
62877.97851831802,154006.0
62877.988612186076,153995.0
62877.99870605413,153955.0
62878.00879992219,153996.0
62878.01889379025,154007.0
62878.028987658305,154025.0
62878.03908152636,154009.0
62878.049175394415,154018.0
62878.05926926248,154056.0
62878.06936313053,154042.0
62878.07945699859,154006.0
62878.08955086664,154045.0
62878.099644734706,154044.0
62878.10973860276,154048.0
62878.11983247082,154046.0
62878.12992633887,154003.0
62878.14002020693,154054.0
62878.15011407499,154082.0
62878.160207943045,154054.0
62878.1703018111,154093.0
62878.180395679155,154077.0
62878.19048954722,154056.0
62878.20058341527,154071.0
62878.21067728333,154108.0
62878.220771151384,154099.0
62878.230865019446,154069.0
62878.2409588875,154129.0
62878.25105275556,154071.0
62878.26114662361,154091.0
62878.271240491675,154096.0
62878.28133435973,154104.0
62878.291428227785,154080.0
62878.30152209584,154125.0
62878.311615963896,154153.0
62878.32170983196,154095.0
62878.33180370001,154131.0
62878.34189756807,154133.0
62878.351991436124,154132.0
62878.36208530419,154150.0
62878.37217917224,154141.0
62878.3822730403,154156.0
62878.39236690835,154148.0
62878.402460776415,154182.0
62878.41255464447,154131.0
62878.422648512525,154170.0
62878.43274238058,154125.0
62878.44283624864,154193.0
62878.4529301167,154166.0
62878.463023984754,154176.0
62878.47311785281,154183.0
62878.483211720864,154176.0
62878.49330558893,154157.0
62878.50339945698,154120.0
62878.51349332504,154135.0
62878.52358719309,154077.0
62878.533681061155,154050.0
62878.54377492921,154023.0
62878.553868797266,153978.0
62878.56396266532,153981.0
62878.57405653338,153989.0
62878.58415040144,153984.0
62878.594244269494,154021.0
62878.60433813755,153945.0
62878.614432005605,153982.0
62878.62452587367,153985.0
62878.63461974172,154012.0
62878.64471360978,153964.0
62878.65480747783,154025.0
62878.664901345895,154022.0
62878.67499521395,153956.0
62878.685089082006,154034.0
62878.69518295006,153975.0
62878.705276818124,153987.0
62878.71537068618,154007.0
62878.725464554234,154009.0
62878.73555842229,154002.0
62878.74565229035,154009.0
62878.75574615841,154014.0
62878.76584002646,153988.0
62878.77593389452,154029.0
62878.78602776257,153961.0
62878.796121630636,153978.0
62878.80621549869,153991.0
62878.816309366746,154002.0
62878.8264032348,154000.0
62878.836497102864,154006.0
62878.84659097092,153989.0
62878.856684838975,154004.0
62878.86677870703,154025.0
62878.87687257509,154006.0
62878.88696644315,154034.0
62878.8970603112,154028.0
62878.90715417926,154045.0
62878.91724804732,154031.0
62878.927341915376,154009.0
62878.93743578343,153976.0
62878.94752965149,154038.0
62878.95762351954,154039.0
62878.967717387604,154038.0
62878.97781125566,154053.0
62878.987905123715,154076.0
62878.99799899177,154072.0
62879.00809285983,154078.0
62879.01818672789,154100.0
62879.02828059594,154094.0
62879.038374464,154069.0
62879.04846833206,154059.0
62879.058562200116,154059.0
62879.06865606817,154068.0
62879.07874993623,154066.0
62879.08884380429,154083.0
62879.098937672345,154116.0
62879.1090315404,154095.0
62879.119125408455,154096.0
62879.12921927651,154120.0
62879.13931314457,154070.0
62879.14940701263,154117.0
62879.15950088068,154110.0
62879.16959474874,154107.0
62879.1796886168,154122.0
62879.18978248486,154083.0
62879.19987635291,154127.0
62879.20997022097,154107.0
62879.22006408903,154137.0
62879.230157957085,154117.0
62879.24025182514,154141.0
62879.250345693195,154130.0
62879.26043956126,154138.0
62879.27053342931,154130.0
62879.28062729737,154168.0
62879.290721165424,154151.0
62879.30081503348,154154.0
62879.31090890154,154146.0
62879.3210027696,154149.0
62879.33109663765,154164.0
62879.34119050571,154165.0
62879.35128437377,154154.0
62879.361378241825,154195.0
62879.37147210988,154178.0
62879.381565977936,154158.0
62879.391659846,154152.0
62879.40175371405,154120.0
62879.41184758211,154118.0
62879.421941450164,154069.0
62879.43203531822,154071.0
62879.44212918628,154031.0
62879.45222305434,154034.0
62879.46231692239,154007.0
62879.47241079045,154020.0
62879.48250465851,154024.0
62879.492598526565,154026.0
62879.50269239462,154040.0
62879.512786262676,154015.0
62879.52288013074,154042.0
62879.532973998794,154031.0
62879.54306786685,154043.0
62879.553161734904,154021.0
62879.56325560297,154003.0
62879.57334947102,154044.0
62879.58344333908,154012.0
62879.59353720713,154022.0
62879.60363107519,154011.0
62879.61372494325,154037.0
62879.623818811306,154031.0
62879.63391267936,154060.0
62879.644006547416,154049.0
62879.65410041548,154066.0
62879.664194283534,154078.0
62879.67428815159,154075.0
62879.684382019645,154061.0
62879.69447588771,154055.0
62879.70456975576,154047.0
62879.71466362382,154032.0
62879.72475749187,154070.0
62879.734851359935,154029.0
62879.74494522799,154022.0
62879.755039096046,154042.0
62879.7651329641,154054.0
62879.77522683216,154070.0
62879.78532070022,154046.0
62879.795414568274,154035.0
62879.80550843633,154061.0
62879.815602304385,154067.0
62879.82569617245,154070.0
62879.8357900405,154057.0
62879.84588390856,154069.0
62879.85597777661,154076.0
62879.866071644676,154088.0
62879.87616551273,154108.0
62879.886259380786,154118.0
62879.89635324884,154098.0
62879.906447116904,154125.0
62879.91654098496,154107.0
62879.926634853015,154106.0
62879.93672872107,154143.0
62879.946822589125,154133.0
62879.95691645719,154113.0
62879.96701032524,154112.0
62879.9771041933,154158.0
62879.98719806135,154132.0
62879.997291929416,154134.0
62880.00738579747,154160.0
62880.01747966553,154133.0
62880.02757353358,154144.0
62880.037667401644,154137.0
62880.0477612697,154160.0
62880.057855137755,154120.0
62880.06794900581,154155.0
62880.07804287387,154191.0
62880.08813674193,154180.0
62880.09823060998,154202.0
62880.10832447804,154184.0
62880.118418346094,154187.0
62880.128512214156,154177.0
62880.13860608221,154201.0
62880.14869995027,154185.0
62880.15879381832,154166.0
62880.168887686385,154201.0
62880.17898155444,154186.0
62880.189075422495,154211.0
62880.19916929055,154187.0
62880.20926315861,154192.0
62880.21935702667,154155.0
62880.22945089472,154161.0
62880.23954476278,154167.0
62880.249638630834,154106.0
62880.2597324989,154136.0
62880.26982636695,154090.0
62880.27992023501,154058.0
62880.29001410306,154025.0
62880.300107971125,154075.0
62880.31020183918,154063.0
62880.320295707235,154045.0
62880.33038957529,154073.0
62880.34048344335,154025.0
62880.35057731141,154072.0
62880.360671179464,154037.0
62880.37076504752,154111.0
62880.38085891558,154082.0
62880.39095278364,154096.0
62880.40104665169,154060.0
62880.41114051975,154054.0
62880.4212343878,154102.0
62880.431328255865,154088.0
62880.44142212392,154119.0
62880.451515991976,154098.0
62880.46160986003,154127.0
62880.47170372809,154072.0
62880.48179759615,154121.0
62880.491891464204,154084.0
62880.50198533226,154112.0
62880.51207920032,154106.0
62880.52217306838,154099.0
62880.53226693643,154072.0
62880.54236080449,154109.0
62880.55245467255,154115.0
62880.562548540605,154103.0
62880.57264240866,154081.0
62880.582736276716,154125.0
62880.59283014477,154106.0
62880.602924012834,154133.0
62880.61301788089,154126.0
62880.623111748944,154125.0
62880.633205617,154119.0
62880.64329948506,154124.0
62880.65339335312,154155.0
62880.66348722117,154126.0
62880.67358108923,154140.0
62880.68367495729,154148.0
62880.693768825346,154153.0
62880.7038626934,154133.0
62880.713956561456,154182.0
62880.72405042952,154172.0
62880.734144297574,154155.0
62880.74423816563,154208.0
62880.754332033684,154163.0
62880.76442590174,154187.0
62880.7745197698,154182.0
62880.78461363786,154196.0
62880.79470750591,154157.0
62880.80480137397,154199.0
62880.81489524203,154206.0
62880.824989110086,154188.0
62880.83508297814,154213.0
62880.8451768462,154217.0
62880.85527071426,154191.0
62880.865364582314,154220.0
62880.87545845037,154242.0
62880.885552318425,154231.0
62880.89564618649,154204.0
62880.90574005454,154247.0
62880.9158339226,154204.0
62880.92592779065,154254.0
62880.93602165871,154216.0
62880.94611552677,154218.0
62880.956209394826,154234.0
62880.96630326288,154250.0
62880.97639713094,154249.0
62880.986490999,154244.0
62880.996584867054,154260.0
62881.00667873511,154279.0
62881.016772603165,154274.0
62881.02686647123,154254.0
62881.03696033928,154263.0
62881.04705420734,154222.0
62881.05714807539,154198.0
62881.06724194345,154224.0
62881.07733581151,154138.0
62881.08742967957,154137.0
62881.09752354762,154121.0
62881.10761741568,154098.0
62881.11771128374,154102.0
62881.127805151795,154123.0
62881.13789901985,154108.0
62881.147992887905,154094.0
62881.15808675597,154117.0
62881.16818062402,154106.0
62881.17827449208,154117.0
62881.18836836013,154103.0
62881.198462228196,154138.0
62881.20855609625,154056.0
62881.21864996431,154109.0
62881.22874383236,154141.0
62881.23883770042,154100.0
62881.24893156848,154128.0
62881.259025436535,154122.0
62881.26911930459,154088.0
62881.279213172646,154117.0
62881.28930704071,154144.0
62881.29940090876,154119.0
62881.30949477682,154118.0
62881.319588644874,154119.0
62881.32968251294,154137.0
62881.33977638099,154124.0
62881.34987024905,154101.0
62881.3599641171,154092.0
62881.370057985165,154095.0
62881.38015185322,154133.0
62881.390245721275,154136.0
62881.40033958933,154111.0
62881.410433457386,154145.0
62881.42052732545,154139.0
62881.4306211935,154157.0
62881.44071506156,154116.0
62881.450808929614,154156.0
62881.46090279768,154156.0
62881.47099666573,154128.0
62881.48109053379,154164.0
62881.49118440184,154140.0
62881.501278269905,154153.0
62881.51137213796,154138.0
62881.521466006016,154188.0
62881.53155987407,154151.0
62881.54165374213,154178.0
62881.55174761019,154175.0
62881.561841478244,154200.0
62881.5719353463,154216.0
62881.582029214354,154162.0
62881.59212308242,154212.0
62881.60221695047,154191.0
62881.61231081853,154213.0
62881.62240468658,154164.0
62881.632498554645,154216.0
62881.6425924227,154198.0
62881.652686290756,154239.0
62881.66278015881,154235.0
62881.67287402687,154228.0
62881.68296789493,154222.0
62881.693061762984,154202.0
62881.70315563104,154245.0
62881.7132494991,154239.0
62881.72334336716,154246.0
62881.73343723521,154270.0
62881.74353110327,154232.0
62881.75362497132,154253.0
62881.763718839386,154289.0
62881.77381270744,154277.0
62881.783906575496,154290.0
62881.79400044355,154278.0
62881.804094311614,154276.0
62881.81418817967,154269.0
62881.824282047724,154282.0
62881.83437591578,154280.0
62881.84446978384,154299.0
62881.8545636519,154270.0
62881.86465751995,154303.0
62881.87475138801,154344.0
62881.88484525606,154290.0
62881.894939124126,154301.0
62881.90503299218,154331.0
62881.915126860236,154325.0
62881.92522072829,154297.0
62881.935314596354,154329.0
62881.94540846441,154271.0
62881.955502332465,154241.0
62881.96559620052,154248.0
62881.97569006858,154194.0
62881.98578393664,154202.0
62881.99587780469,154172.0
62882.00597167275,154183.0
62882.01606554081,154132.0
62882.026159408866,154167.0
62882.03625327692,154147.0
62882.04634714498,154128.0
62882.05644101303,154126.0
62882.066534881094,154134.0
62882.07662874915,154162.0
62882.086722617205,154161.0
62882.09681648526,154172.0
62882.10691035332,154183.0
62882.11700422138,154167.0
62882.12709808943,154167.0
62882.13719195749,154098.0
62882.14728582555,154168.0
62882.157379693606,154167.0
62882.16747356166,154138.0
62882.17756742972,154154.0
62882.18766129778,154176.0
62882.197755165835,154132.0
62882.20784903389,154161.0
62882.217942901945,154154.0
62882.22803677,154190.0
62882.23813063806,154151.0
62882.24822450612,154168.0
62882.25831837417,154160.0
62882.26841224223,154170.0
62882.27850611029,154119.0
62882.28859997835,154154.0
62882.2986938464,154131.0
62882.30878771446,154148.0
62882.31888158252,154190.0
62882.328975450575,154167.0
62882.33906931863,154160.0
62882.349163186685,154184.0
62882.35925705475,154187.0
62882.3693509228,154186.0
62882.37944479086,154213.0
62882.389538658914,154186.0
62882.39963252697,154184.0
62882.40972639503,154201.0
62882.41982026309,154166.0
62882.42991413114,154184.0
62882.4400079992,154211.0
62882.45010186726,154208.0
62882.460195735315,154193.0
62882.47028960337,154192.0
62882.480383471426,154216.0
62882.49047733949,154231.0
62882.50057120754,154177.0
62882.5106650756,154217.0
62882.520758943654,154261.0
62882.53085281172,154246.0
62882.54094667977,154239.0
62882.55104054783,154226.0
62882.56113441588,154251.0
62882.57122828394,154252.0
62882.581322152,154237.0
62882.591416020055,154288.0
62882.60150988811,154251.0
62882.611603756166,154276.0
62882.62169762423,154256.0
62882.631791492284,154250.0
62882.64188536034,154267.0
62882.651979228394,154279.0
62882.66207309646,154274.0
62882.67216696451,154273.0
62882.68226083257,154276.0
62882.69235470062,154292.0
62882.70244856868,154277.0
62882.71254243674,154331.0
62882.722636304796,154302.0
62882.73273017285,154308.0
62882.742824040906,154321.0
62882.75291790897,154344.0
62882.763011777024,154292.0
62882.77310564508,154325.0
62882.783199513135,154327.0
62882.7932933812,154322.0
62882.80338724925,154338.0
62882.81348111731,154344.0
62882.82357498536,154340.0
62882.833668853425,154338.0
62882.84376272148,154387.0
62882.853856589536,154345.0
62882.86395045759,154360.0
62882.87404432565,154360.0
62882.88413819371,154353.0
62882.894232061764,154317.0
62882.90432592982,154266.0
62882.914419797875,154255.0
62882.92451366594,154224.0
62882.93460753399,154224.0
62882.94470140205,154192.0
62882.9547952701,154171.0
62882.964889138166,154220.0
62882.97498300622,154168.0
62882.985076874276,154205.0
62882.99517074233,154199.0
62883.005264610394,154217.0
62883.01535847845,154200.0
62883.025452346505,154198.0
62883.03554621456,154185.0
62883.045640082615,154160.0
62883.05573395068,154188.0
62883.06582781873,154200.0
62883.07592168679,154185.0
62883.08601555484,154170.0
62883.096109422906,154207.0
62883.10620329096,154190.0
62883.11629715902,154152.0
62883.12639102707,154200.0
62883.136484895134,154180.0
62883.14657876319,154200.0
62883.156672631245,154202.0
62883.1667664993,154208.0
62883.17686036736,154186.0
62883.18695423542,154205.0
62883.19704810347,154199.0
62883.20714197153,154174.0
62883.217235839584,154211.0
62883.227329707646,154199.0
62883.2374235757,154163.0
62883.24751744376,154204.0
62883.25761131181,154229.0
62883.267705179875,154174.0
62883.27779904793,154202.0
62883.287892915985,154247.0
62883.29798678404,154222.0
62883.3080806521,154229.0
62883.31817452016,154212.0
62883.32826838821,154230.0
62883.33836225627,154212.0
62883.34845612433,154244.0
62883.35854999239,154229.0
62883.36864386044,154214.0
62883.3787377285,154238.0
62883.38883159655,154238.0
62883.398925464615,154246.0
62883.40901933267,154230.0
62883.419113200725,154249.0
62883.42920706878,154238.0
62883.43930093684,154268.0
62883.4493948049,154281.0
62883.459488672954,154257.0
62883.46958254101,154275.0
62883.47967640907,154291.0
62883.48977027713,154253.0
62883.49986414518,154251.0
62883.50995801324,154304.0
62883.52005188129,154280.0
62883.530145749355,154272.0
62883.54023961741,154323.0
62883.550333485466,154280.0
62883.56042735352,154302.0
62883.57052122158,154294.0
62883.58061508964,154331.0
62883.590708957694,154330.0
62883.60080282575,154314.0
62883.61089669381,154283.0
62883.62099056187,154297.0
62883.63108442992,154288.0
62883.64117829798,154312.0
62883.65127216604,154363.0
62883.661366034095,154327.0
62883.67145990215,154327.0
62883.681553770206,154336.0
62883.69164763826,154316.0
62883.701741506324,154311.0
62883.71183537438,154361.0
62883.721929242434,154363.0
62883.73202311049,154363.0
62883.74211697855,154336.0
62883.75221084661,154349.0
62883.76230471466,154370.0
62883.77239858272,154393.0
62883.78249245078,154351.0
62883.792586318836,154400.0
62883.80268018689,154394.0
62883.812774054946,154379.0
62883.82286792301,154397.0
62883.832961791064,154403.0
62883.84305565912,154343.0
62883.853149527175,154351.0
62883.86324339523,154329.0
62883.87333726329,154288.0
62883.88343113135,154276.0
62883.8935249994,154253.0
62883.90361886746,154253.0
62883.91371273552,154241.0
62883.923806603576,154203.0
62883.93390047163,154244.0
62883.94399433969,154242.0
62883.95408820775,154243.0
62883.964182075804,154226.0
62883.97427594386,154242.0
62883.984369811915,154231.0
62883.99446367998,154260.0
62884.00455754803,154221.0
62884.01465141609,154237.0
62884.02474528414,154268.0
62884.0348391522,154226.0
62884.04493302026,154240.0
62884.055026888316,154243.0
62884.06512075637,154273.0
62884.07521462443,154215.0
62884.08530849249,154257.0
62884.095402360545,154243.0
62884.1054962286,154231.0
62884.115590096655,154248.0
62884.12568396472,154215.0
62884.13577783277,154248.0
62884.14587170083,154222.0
62884.15596556888,154259.0
62884.166059436946,154231.0
62884.176153305,154245.0
62884.18624717306,154233.0
62884.19634104111,154220.0
62884.20643490917,154239.0
62884.21652877723,154256.0
62884.226622645285,154244.0
62884.23671651334,154243.0
62884.246810381395,154287.0
62884.25690424946,154267.0
62884.26699811751,154249.0
62884.27709198557,154293.0
62884.287185853624,154271.0
62884.297279721686,154281.0
62884.30737358974,154275.0
62884.3174674578,154299.0
62884.32756132585,154269.0
62884.33765519391,154289.0
62884.34774906197,154272.0
62884.357842930025,154302.0
62884.36793679808,154303.0
62884.378030666136,154300.0
62884.3881245342,154291.0
62884.39821840225,154300.0
62884.40831227031,154315.0
62884.418406138364,154296.0
62884.42850000643,154296.0
62884.43859387448,154326.0
62884.44868774254,154311.0
62884.45878161059,154309.0
62884.468875478655,154334.0
62884.47896934671,154336.0
62884.489063214765,154300.0
62884.49915708282,154360.0
62884.509250950876,154332.0
62884.51934481894,154323.0
62884.529438686994,154367.0
62884.53953255505,154363.0
62884.549626423104,154329.0
62884.55972029117,154332.0
62884.56981415922,154365.0
62884.57990802728,154361.0
62884.59000189533,154350.0
62884.600095763395,154363.0
62884.61018963145,154347.0
62884.620283499506,154354.0
62884.63037736756,154385.0
62884.64047123562,154354.0
62884.65056510368,154362.0
62884.660658971734,154387.0
62884.67075283979,154390.0
62884.680846707844,154366.0
62884.69094057591,154397.0
62884.70103444396,154422.0
62884.71112831202,154399.0
62884.72122218007,154368.0
62884.731316048135,154402.0
62884.74140991619,154385.0
62884.751503784246,154384.0
62884.7615976523,154363.0
62884.771691520364,154357.0
62884.78178538842,154358.0
62884.791879256474,154329.0
62884.80197312453,154332.0
62884.81206699259,154291.0
62884.82216086065,154322.0
62884.8322547287,154287.0
62884.84234859676,154267.0
62884.85244246481,154267.0
62884.862536332876,154318.0
62884.87263020093,154297.0
62884.882724068986,154300.0
62884.89281793704,154330.0
62884.902911805104,154284.0
62884.91300567316,154304.0
62884.923099541214,154306.0
62884.93319340927,154279.0
62884.94328727733,154309.0
62884.95338114539,154306.0
62884.96347501344,154309.0
62884.9735688815,154276.0
62884.98366274956,154302.0
62884.993756617616,154341.0
62885.00385048567,154327.0
62885.01394435373,154346.0
62885.02403822178,154315.0
62885.034132089844,154328.0
62885.0442259579,154331.0
62885.054319825955,154303.0
62885.06441369401,154314.0
62885.07450756207,154312.0
62885.08460143013,154328.0
62885.09469529818,154296.0
62885.10478916624,154298.0
62885.1148830343,154308.0
62885.124976902356,154323.0
62885.13507077041,154343.0
62885.14516463847,154346.0
62885.15525850652,154325.0
62885.165352374584,154320.0
62885.17544624264,154301.0
62885.185540110695,154357.0
62885.19563397875,154315.0
62885.20572784681,154355.0
62885.21582171487,154349.0
62885.22591558292,154351.0
62885.23600945098,154371.0
62885.24610331904,154361.0
62885.2561971871,154378.0
62885.26629105515,154384.0
62885.27638492321,154395.0
62885.28647879127,154384.0
62885.296572659325,154379.0
62885.30666652738,154382.0
62885.316760395435,154377.0
62885.32685426349,154392.0
62885.33694813155,154373.0
62885.34704199961,154397.0
62885.35713586766,154367.0
62885.36722973572,154393.0
62885.37732360378,154388.0
62885.38741747184,154383.0
62885.39751133989,154414.0
62885.40760520795,154402.0
62885.41769907601,154435.0
62885.427792944065,154430.0
62885.43788681212,154442.0
62885.447980680176,154431.0
62885.45807454824,154422.0
62885.46816841629,154420.0
62885.47826228435,154467.0
62885.488356152404,154414.0
62885.49845002046,154417.0
62885.50854388852,154446.0
62885.51863775658,154424.0
62885.52873162463,154451.0
62885.53882549269,154442.0
62885.54891936075,154444.0
62885.559013228805,154440.0
62885.56910709686,154482.0
62885.579200964916,154465.0
62885.58929483298,154473.0
62885.59938870103,154474.0
62885.60948256909,154448.0
62885.619576437144,154425.0
62885.62967030521,154431.0
62885.63976417326,154419.0
62885.64985804132,154408.0
62885.65995190937,154396.0
62885.67004577743,154362.0
62885.68013964549,154355.0
62885.690233513546,154376.0
62885.7003273816,154358.0
62885.710421249656,154379.0
62885.72051511772,154380.0
62885.730608985774,154367.0
62885.74070285383,154359.0
62885.750796721884,154351.0
62885.76089058995,154334.0
62885.770984458,154352.0
62885.78107832606,154365.0
62885.79117219411,154385.0
62885.801266062175,154383.0
62885.81135993023,154361.0
62885.821453798286,154390.0
62885.83154766634,154368.0
62885.841641534396,154419.0
62885.85173540246,154382.0
62885.861829270514,154407.0
62885.87192313857,154373.0
62885.882017006625,154368.0
62885.89211087469,154376.0
62885.90220474274,154385.0
62885.9122986108,154414.0
62885.92239247885,154382.0
62885.932486346916,154375.0
62885.94258021497,154402.0
62885.952674083026,154375.0
62885.96276795108,154351.0
62885.97286181914,154411.0
62885.9829556872,154408.0
62885.993049555254,154403.0
62886.00314342331,154427.0
62886.013237291365,154410.0
62886.02333115943,154399.0
62886.03342502748,154433.0
62886.04351889554,154400.0
62886.05361276359,154448.0
62886.063706631656,154433.0
62886.07380049971,154450.0
62886.083894367766,154433.0
62886.09398823582,154433.0
62886.104082103884,154429.0
62886.11417597194,154469.0
62886.124269839995,154469.0
62886.13436370805,154457.0
62886.144457576105,154472.0
62886.15455144417,154438.0
62886.16464531222,154465.0
62886.17473918028,154469.0
62886.18483304833,154452.0
62886.194926916396,154473.0
62886.20502078445,154462.0
62886.21511465251,154521.0
62886.22520852056,154478.0
62886.235302388624,154488.0
62886.24539625668,154478.0
62886.255490124735,154497.0
62886.26558399279,154501.0
62886.27567786085,154504.0
62886.28577172891,154506.0
62886.29586559696,154511.0
62886.30595946502,154510.0
62886.316053333074,154512.0
62886.326147201136,154492.0
62886.33624106919,154501.0
62886.34633493725,154534.0
62886.3564288053,154512.0
62886.366522673365,154531.0
62886.37661654142,154537.0
62886.386710409475,154525.0
62886.39680427753,154541.0
62886.40689814559,154537.0
62886.41699201365,154535.0
62886.4270858817,154559.0
62886.43717974976,154548.0
62886.44727361782,154546.0
62886.45736748588,154522.0
62886.46746135393,154557.0
62886.47755522199,154527.0
62886.48764909004,154499.0
62886.497742958105,154469.0
62886.50783682616,154447.0
62886.517930694215,154445.0
62886.52802456227,154432.0
62886.53811843033,154420.0
62886.54821229839,154388.0
62886.558306166444,154402.0
62886.5684000345,154436.0
62886.57849390256,154394.0
62886.58858777062,154420.0
62886.59868163867,154420.0
62886.60877550673,154419.0
62886.61886937479,154417.0
62886.628963242845,154451.0
62886.6390571109,154429.0
62886.649150978956,154423.0
62886.65924484701,154439.0
62886.66933871507,154450.0
62886.67943258313,154429.0
62886.689526451184,154428.0
62886.69962031924,154418.0
62886.7097141873,154400.0
62886.71980805536,154439.0
62886.72990192341,154436.0
62886.73999579147,154436.0
62886.75008965953,154446.0
62886.760183527585,154448.0
62886.77027739564,154449.0
62886.780371263696,154425.0
62886.79046513175,154464.0
62886.800558999814,154473.0
62886.81065286787,154441.0
62886.820746735924,154426.0
62886.83084060398,154415.0
62886.84093447204,154403.0
62886.8510283401,154458.0
62886.86112220815,154478.0
62886.87121607621,154447.0
62886.88130994427,154462.0
62886.891403812326,154459.0
62886.90149768038,154440.0
62886.911591548436,154455.0
62886.9216854165,154474.0
62886.931779284554,154478.0
62886.94187315261,154482.0
62886.951967020665,154485.0
62886.96206088872,154489.0
62886.97215475678,154485.0
62886.98224862484,154466.0
62886.99234249289,154494.0
62887.00243636095,154501.0
62887.01253022901,154499.0
62887.022624097066,154503.0
62887.03271796512,154510.0
62887.04281183318,154505.0
62887.05290570124,154512.0
62887.062999569294,154501.0
62887.07309343735,154544.0
62887.083187305405,154542.0
62887.09328117347,154497.0
62887.10337504152,154489.0
62887.11346890958,154516.0
62887.12356277763,154489.0
62887.13365664569,154547.0
62887.14375051375,154557.0
62887.153844381806,154547.0
62887.16393824986,154543.0
62887.17403211792,154556.0
62887.18412598598,154581.0
62887.194219854035,154552.0
62887.20431372209,154595.0
62887.214407590145,154576.0
62887.22450145821,154571.0
62887.23459532626,154574.0
62887.24468919432,154576.0
62887.25478306237,154551.0
62887.264876930436,154590.0
62887.27497079849,154556.0
62887.28506466655,154572.0
62887.2951585346,154618.0
62887.30525240266,154594.0
62887.31534627072,154575.0
62887.325440138775,154612.0
62887.33553400683,154629.0
62887.345627874885,154620.0
62887.35572174295,154607.0
62887.365815611,154625.0
62887.37590947906,154571.0
62887.386003347114,154582.0
62887.396097215176,154597.0
62887.40619108323,154523.0
62887.41628495129,154496.0
62887.42637881934,154505.0
62887.436472687405,154503.0
62887.44656655546,154463.0
62887.456660423515,154467.0
62887.46675429157,154461.0
62887.476848159626,154440.0
62887.48694202769,154460.0
62887.49703589574,154502.0
62887.5071297638,154458.0
62887.517223631854,154488.0
62887.52731749992,154513.0
62887.53741136797,154457.0
62887.54750523603,154480.0
62887.55759910408,154455.0
62887.567692972145,154498.0
62887.5777868402,154448.0
62887.587880708255,154475.0
62887.59797457631,154446.0
62887.608068444366,154465.0
62887.61816231243,154494.0
62887.628256180484,154441.0
62887.63835004854,154475.0
62887.648443916594,154467.0
62887.65853778466,154500.0
62887.66863165271,154479.0
62887.67872552077,154470.0
62887.68881938882,154491.0
62887.698913256885,154462.0
62887.70900712494,154494.0
62887.719100992996,154500.0
62887.72919486105,154468.0
62887.73928872911,154477.0
62887.74938259717,154489.0
62887.759476465224,154475.0
62887.76957033328,154460.0
62887.779664201335,154505.0
62887.7897580694,154494.0
62887.79985193745,154473.0
62887.80994580551,154518.0
62887.82003967356,154480.0
62887.830133541625,154510.0
62887.84022740968,154520.0
62887.850321277736,154548.0
62887.86041514579,154519.0
62887.870509013854,154523.0
62887.88060288191,154533.0
62887.890696749964,154513.0
62887.90079061802,154519.0
62887.91088448608,154543.0
62887.92097835414,154520.0
62887.93107222219,154517.0
62887.94116609025,154564.0
62887.9512599583,154564.0
62887.961353826366,154550.0
62887.97144769442,154530.0
62887.981541562476,154580.0
62887.99163543053,154546.0
62888.001729298594,154559.0
62888.01182316665,154577.0
62888.021917034705,154567.0
62888.03201090276,154572.0
62888.04210477082,154563.0
62888.05219863888,154568.0
62888.06229250693,154550.0
62888.07238637499,154601.0
62888.08248024305,154591.0
62888.092574111106,154579.0
62888.10266797916,154622.0
62888.11276184722,154572.0
62888.12285571527,154605.0
62888.132949583334,154599.0
62888.14304345139,154620.0
62888.153137319445,154578.0
62888.1632311875,154599.0
62888.17332505556,154591.0
62888.18341892362,154581.0
62888.19351279167,154599.0
62888.20360665973,154627.0
62888.21370052779,154612.0
62888.223794395846,154642.0
62888.2338882639,154640.0
62888.24398213196,154633.0
62888.25407600002,154613.0
62888.264169868075,154608.0
62888.27426373613,154624.0
62888.284357604185,154652.0
62888.29445147224,154667.0
62888.3045453403,154657.0
62888.31463920836,154638.0
62888.32473307641,154631.0
62888.33482694447,154636.0
62888.34492081253,154613.0
62888.35501468059,154589.0
62888.36510854864,154568.0
62888.3752024167,154534.0
62888.38529628476,154523.0
62888.395390152815,154532.0
62888.40548402087,154516.0
62888.415577888925,154510.0
62888.42567175698,154507.0
62888.43576562504,154481.0
62888.4458594931,154510.0
62888.455953361154,154498.0
62888.46604722921,154554.0
62888.47614109727,154506.0
62888.48623496533,154499.0
62888.49632883338,154514.0
62888.50642270144,154514.0
62888.5165165695,154547.0
62888.526610437555,154509.0
62888.53670430561,154526.0
62888.546798173666,154499.0
62888.55689204173,154541.0
62888.56698590978,154489.0
62888.57707977784,154518.0
62888.587173645894,154522.0
62888.59726751395,154508.0
62888.60736138201,154544.0
62888.61745525007,154529.0
62888.62754911812,154498.0
62888.63764298618,154527.0
62888.64773685424,154534.0
62888.657830722295,154531.0
62888.66792459035,154515.0
62888.678018458406,154515.0
62888.68811232647,154487.0
62888.698206194524,154505.0
62888.70830006258,154479.0
62888.718393930634,154503.0
62888.7284877987,154548.0
62888.73858166675,154521.0
62888.74867553481,154536.0
62888.75876940286,154510.0
62888.76886327092,154514.0
62888.77895713898,154533.0
62888.789051007036,154546.0
62888.79914487509,154565.0
62888.809238743146,154563.0
62888.81933261121,154547.0
62888.829426479264,154525.0
62888.83952034732,154518.0
62888.849614215374,154532.0
62888.85970808344,154566.0
62888.86980195149,154574.0
62888.87989581955,154597.0
62888.8899896876,154577.0
62888.900083555665,154575.0
62888.91017742372,154559.0
62888.920271291776,154553.0
62888.93036515983,154572.0
62888.94045902789,154585.0
62888.95055289595,154572.0
62888.960646764004,154568.0
62888.97074063206,154611.0
62888.980834500115,154612.0
62888.99092836818,154594.0
62889.00102223623,154576.0
62889.01111610429,154622.0
62889.02120997234,154595.0
62889.031303840406,154607.0
62889.04139770846,154624.0
62889.051491576516,154581.0
62889.06158544457,154599.0
62889.071679312634,154624.0
62889.08177318069,154602.0
62889.091867048744,154624.0
62889.1019609168,154581.0
62889.112054784855,154618.0
62889.12214865292,154601.0
62889.13224252097,154630.0
62889.14233638903,154602.0
62889.15243025708,154643.0
62889.162524125146,154617.0
62889.1726179932,154641.0
62889.18271186126,154630.0
62889.19280572931,154649.0
62889.202899597374,154673.0
62889.21299346543,154643.0
62889.223087333485,154608.0
62889.23318120154,154614.0
62889.243275069595,154595.0
62889.25336893766,154618.0
62889.26346280571,154606.0
62889.27355667377,154575.0
62889.28365054182,154524.0
62889.293744409886,154563.0
62889.30383827794,154534.0
62889.313932146,154541.0
62889.32402601405,154542.0
62889.334119882114,154513.0
62889.34421375017,154537.0
62889.354307618225,154540.0
62889.36440148628,154551.0
62889.37449535434,154514.0
62889.3845892224,154537.0
62889.39468309045,154547.0
62889.40477695851,154581.0
62889.414870826564,154548.0
62889.42496469463,154533.0
62889.43505856268,154560.0
62889.44515243074,154556.0
62889.45524629879,154571.0
62889.465340166855,154559.0
62889.47543403491,154569.0
62889.485527902965,154547.0
62889.49562177102,154592.0
62889.50571563908,154564.0
62889.51580950714,154570.0
62889.52590337519,154573.0
62889.53599724325,154573.0
62889.54609111131,154540.0
62889.55618497937,154550.0
62889.56627884742,154569.0
62889.57637271548,154556.0
62889.58646658353,154574.0
62889.596560451595,154546.0
62889.60665431965,154582.0
62889.616748187706,154585.0
62889.62684205576,154577.0
62889.63693592382,154568.0
62889.64702979188,154574.0
62889.657123659934,154530.0
62889.66721752799,154560.0
62889.67731139605,154573.0
62889.68740526411,154603.0
62889.69749913216,154595.0
62889.70759300022,154620.0
62889.71768686828,154619.0
62889.727780736335,154604.0
62889.73787460439,154630.0
62889.747968472446,154585.0
62889.7580623405,154599.0
62889.76815620856,154644.0
62889.77825007662,154635.0
62889.788343944674,154625.0
62889.79843781273,154632.0
62889.80853168079,154628.0
62889.81862554885,154634.0
62889.8287194169,154626.0
62889.83881328496,154621.0
62889.84890715302,154635.0
62889.859001021076,154658.0
62889.86909488913,154666.0
62889.879188757186,154662.0
62889.88928262525,154642.0
62889.899376493304,154600.0
62889.90947036136,154636.0
62889.919564229414,154607.0
62889.92965809747,154664.0
62889.93975196553,154683.0
62889.94984583359,154664.0
62889.95993970164,154667.0
62889.9700335697,154654.0
62889.98012743776,154633.0
62889.990221305816,154647.0
62890.00031517387,154705.0
62890.010409041926,154670.0
62890.02050290999,154659.0
62890.030596778044,154723.0
62890.0406906461,154657.0
62890.050784514155,154679.0
62890.06087838221,154661.0
62890.07097225027,154651.0
62890.08106611833,154641.0
62890.09115998638,154635.0
62890.10125385444,154618.0
62890.1113477225,154579.0
62890.121441590556,154563.0
62890.13153545861,154547.0
62890.14162932667,154564.0
62890.15172319473,154568.0
62890.161817062784,154567.0
62890.17191093084,154517.0
62890.182004798895,154547.0
62890.19209866696,154573.0
62890.20219253501,154546.0
62890.21228640307,154562.0
62890.22238027112,154581.0
62890.23247413918,154553.0
62890.24256800724,154582.0
62890.252661875296,154574.0
62890.26275574335,154569.0
62890.27284961141,154570.0
62890.28294347947,154615.0
62890.293037347525,154587.0
62890.30313121558,154558.0
62890.313225083635,154595.0
62890.3233189517,154585.0
62890.33341281975,154562.0
62890.34350668781,154586.0
62890.35360055586,154599.0
62890.363694423926,154550.0
62890.37378829198,154601.0
62890.38388216004,154588.0
62890.39397602809,154601.0
62890.40406989615,154574.0
62890.41416376421,154594.0
62890.424257632265,154574.0
62890.43435150032,154573.0
62890.444445368375,154553.0
62890.45453923644,154561.0
62890.46463310449,154583.0
62890.47472697255,154592.0
62890.484820840604,154588.0
62890.494914708666,154564.0
62890.50500857672,154589.0
62890.51510244478,154629.0
62890.52519631283,154590.0
62890.535290180895,154632.0
62890.54538404895,154613.0
62890.555477917005,154605.0
62890.56557178506,154657.0
62890.575665653116,154642.0
62890.58575952118,154635.0
62890.59585338923,154624.0
62890.60594725729,154662.0
62890.616041125344,154631.0
62890.62613499341,154649.0
62890.63622886146,154632.0
62890.64632272952,154649.0
62890.65641659757,154668.0
62890.666510465635,154661.0
62890.67660433369,154655.0
62890.686698201745,154657.0
62890.6967920698,154632.0
62890.70688593786,154673.0
62890.71697980592,154656.0
62890.727073673974,154666.0
62890.73716754203,154661.0
62890.747261410084,154647.0
62890.75735527815,154665.0
62890.7674491462,154679.0
62890.77754301426,154656.0
62890.78763688231,154680.0
62890.797730750375,154684.0
62890.80782461843,154673.0
62890.817918486486,154661.0
62890.82801235454,154676.0
62890.8381062226,154675.0
62890.84820009066,154659.0
62890.858293958714,154725.0
62890.86838782677,154697.0
62890.878481694825,154708.0
62890.88857556289,154735.0
62890.89866943094,154699.0
62890.908763299,154755.0
62890.91885716705,154718.0
62890.928951035115,154738.0
62890.93904490317,154689.0
62890.949138771226,154715.0
62890.95923263928,154718.0
62890.969326507344,154678.0
62890.9794203754,154693.0
62890.989514243454,154665.0
62890.99960811151,154646.0
62891.00970197957,154582.0
62891.01979584763,154592.0
62891.02988971568,154584.0
62891.03998358374,154577.0
62891.05007745179,154577.0
62891.060171319856,154541.0
62891.07026518791,154580.0
62891.080359055966,154568.0
62891.09045292402,154601.0
62891.100546792084,154612.0
62891.11064066014,154544.0
62891.120734528195,154580.0
62891.13082839625,154571.0
62891.14092226431,154586.0
62891.15101613237,154552.0
62891.16111000042,154577.0
62891.17120386848,154589.0
62891.18129773654,154560.0
62891.191391604596,154601.0
62891.20148547265,154574.0
62891.21157934071,154586.0
62891.22167320876,154581.0
62891.231767076824,154601.0
62891.24186094488,154599.0
62891.251954812935,154571.0
62891.26204868099,154577.0
62891.27214254905,154556.0
62891.28223641711,154581.0
62891.29233028516,154578.0
62891.30242415322,154545.0
62891.31251802128,154554.0
62891.322611889336,154604.0
62891.33270575739,154582.0
62891.34279962545,154561.0
62891.35289349351,154581.0
62891.362987361565,154568.0
62891.37308122962,154564.0
62891.383175097675,154543.0
62891.39326896573,154597.0
62891.40336283379,154589.0
62891.41345670185,154593.0
62891.4235505699,154573.0
62891.43364443796,154564.0
62891.44373830602,154577.0
62891.45383217408,154600.0
62891.46392604213,154630.0
62891.47401991019,154605.0
62891.48411377825,154611.0
62891.494207646305,154611.0
62891.50430151436,154609.0
62891.514395382415,154625.0
62891.52448925048,154590.0
62891.53458311853,154620.0
62891.54467698659,154618.0
62891.554770854644,154622.0
62891.5648647227,154602.0
62891.57495859076,154622.0
62891.58505245882,154629.0
62891.59514632687,154604.0
62891.60524019493,154651.0
62891.61533406299,154651.0
62891.625427931045,154608.0
62891.6355217991,154642.0
62891.645615667156,154634.0
62891.65570953522,154631.0
62891.66580340327,154641.0
62891.67589727133,154671.0
62891.685991139384,154649.0
62891.69608500744,154654.0
62891.7061788755,154662.0
62891.71627274356,154635.0
62891.72636661161,154682.0
62891.73646047967,154662.0
62891.74655434773,154668.0
62891.756648215785,154652.0
62891.76674208384,154680.0
62891.776835951896,154647.0
62891.78692981996,154664.0
62891.797023688014,154667.0
62891.80711755607,154656.0
62891.817211424124,154683.0
62891.82730529219,154700.0
62891.83739916024,154663.0
62891.8474930283,154680.0
62891.85758689635,154704.0
62891.86768076441,154683.0
62891.87777463247,154683.0
62891.887868500526,154675.0
62891.89796236858,154719.0
62891.908056236636,154684.0
62891.9181501047,154674.0
62891.928243972754,154631.0
62891.93833784081,154612.0
62891.948431708865,154618.0
62891.95852557693,154626.0
62891.96861944498,154595.0
62891.97871331304,154587.0
62891.98880718109,154558.0
62891.998901049155,154532.0
62892.00899491721,154554.0
62892.019088785266,154554.0
62892.02918265332,154560.0
62892.03927652138,154534.0
62892.04937038944,154559.0
62892.059464257494,154573.0
62892.06955812555,154545.0
62892.079651993605,154557.0
62892.08974586167,154557.0
62892.09983972972,154545.0
62892.10993359778,154549.0
62892.12002746583,154543.0
62892.130121333896,154530.0
62892.14021520195,154544.0
62892.150309070006,154549.0
62892.16040293806,154556.0
62892.170496806124,154527.0
62892.18059067418,154572.0
62892.190684542235,154562.0
62892.20077841029,154545.0
62892.210872278345,154551.0
62892.22096614641,154525.0
62892.23106001446,154563.0
62892.24115388252,154548.0
62892.25124775057,154581.0
62892.261341618636,154550.0
62892.27143548669,154560.0
62892.28152935475,154554.0
62892.2916232228,154560.0
62892.301717090864,154563.0
62892.31181095892,154578.0
62892.321904826975,154536.0
62892.33199869503,154551.0
62892.34209256309,154589.0
62892.35218643115,154563.0
62892.3622802992,154580.0
62892.37237416726,154555.0
62892.382468035314,154591.0
62892.392561903376,154585.0
62892.40265577143,154605.0
62892.41274963949,154612.0
62892.42284350754,154608.0
62892.432937375605,154588.0
62892.44303124366,154570.0
62892.453125111715,154573.0
62892.46321897977,154557.0
62892.47331284783,154603.0
62892.48340671589,154603.0
62892.49350058394,154611.0
62892.503594452,154622.0
62892.513688320054,154614.0
62892.52378218812,154605.0
62892.53387605617,154640.0
62892.54396992423,154603.0
62892.55406379228,154598.0
62892.564157660345,154628.0
62892.5742515284,154571.0
62892.584345396455,154580.0
62892.59443926451,154635.0
62892.60453313257,154620.0
62892.61462700063,154593.0
62892.624720868684,154602.0
62892.63481473674,154616.0
62892.6449086048,154638.0
62892.65500247286,154619.0
62892.66509634091,154621.0
62892.67519020897,154616.0
62892.68528407702,154647.0
62892.695377945085,154636.0
62892.70547181314,154676.0
62892.715565681196,154647.0
62892.72565954925,154642.0
62892.73575341731,154640.0
62892.74584728537,154684.0
62892.755941153424,154689.0
62892.76603502148,154662.0
62892.77612888954,154649.0
62892.7862227576,154688.0
62892.79631662565,154692.0
62892.80641049371,154694.0
62892.81650436177,154700.0
62892.826598229825,154669.0
62892.83669209788,154695.0
62892.846785965936,154721.0
62892.85687983399,154667.0
62892.866973702054,154668.0
62892.87706757011,154659.0
62892.887161438164,154651.0
62892.89725530622,154658.0
62892.90734917428,154585.0
62892.91744304234,154617.0
62892.92753691039,154565.0
62892.93763077845,154586.0
62892.94772464651,154570.0
62892.957818514566,154526.0
62892.96791238262,154536.0
62892.978006250676,154546.0
62892.98810011874,154528.0
62892.998193986794,154521.0
62893.00828785485,154553.0
62893.018381722904,154547.0
62893.02847559096,154552.0
62893.03856945902,154548.0
62893.04866332708,154546.0
62893.05875719513,154557.0
62893.06885106319,154544.0
62893.07894493125,154577.0
62893.089038799306,154530.0
62893.09913266736,154568.0
62893.10922653542,154515.0
62893.11932040348,154548.0
62893.129414271534,154592.0
62893.13950813959,154560.0
62893.149602007645,154550.0
62893.15969587571,154538.0
62893.16978974376,154564.0
62893.17988361182,154562.0
62893.18997747987,154555.0
62893.20007134793,154579.0
62893.21016521599,154558.0
62893.220259084046,154556.0
62893.2303529521,154547.0
62893.24044682016,154572.0
62893.25054068822,154507.0
62893.260634556274,154567.0
62893.27072842433,154584.0
62893.280822292385,154560.0
62893.29091616045,154592.0
62893.3010100285,154586.0
62893.31110389656,154550.0
62893.32119776461,154589.0
62893.33129163267,154589.0
62893.34138550073,154586.0
62893.35147936879,154591.0
62893.36157323684,154615.0
62893.3716671049,154587.0
62893.38176097296,154581.0
62893.391854841015,154585.0
62893.40194870907,154580.0
62893.412042577125,154597.0
62893.42213644519,154630.0
62893.43223031324,154610.0
62893.4423241813,154630.0
62893.45241804935,154640.0
62893.462511917416,154600.0
62893.47260578547,154637.0
62893.48269965353,154647.0
62893.49279352158,154647.0
62893.50288738964,154634.0
62893.5129812577,154642.0
62893.523075125755,154625.0
62893.53316899381,154656.0
62893.543262861866,154711.0
62893.55335672993,154670.0
62893.56345059798,154651.0
62893.57354446604,154669.0
62893.583638334094,154693.0
62893.59373220216,154657.0
62893.60382607021,154679.0
62893.61391993827,154702.0
62893.62401380632,154691.0
62893.634107674385,154695.0
62893.64420154244,154716.0
62893.654295410495,154709.0
62893.66438927855,154687.0
62893.674483146606,154726.0
62893.68457701467,154713.0
62893.69467088272,154691.0
62893.70476475078,154689.0
62893.714858618834,154668.0
62893.7249524869,154639.0
62893.73504635495,154622.0
62893.74514022301,154600.0
62893.75523409106,154561.0
62893.765327959125,154603.0
62893.77542182718,154569.0
62893.785515695236,154573.0
62893.79560956329,154543.0
62893.80570343135,154587.0
62893.81579729941,154546.0
62893.825891167464,154548.0
62893.83598503552,154588.0
62893.846078903574,154553.0
62893.85617277164,154582.0
62893.86626663969,154587.0
62893.87636050775,154549.0
62893.8864543758,154559.0
62893.896548243865,154587.0
62893.90664211192,154601.0
62893.916735979976,154558.0
62893.92682984803,154597.0
62893.93692371609,154588.0
62893.94701758415,154585.0
62893.957111452204,154535.0
62893.96720532026,154589.0
62893.97729918832,154592.0
62893.98739305638,154583.0
62893.99748692443,154611.0
62894.00758079249,154557.0
62894.01767466054,154587.0
62894.027768528606,154569.0
62894.03786239666,154593.0
62894.047956264716,154580.0
62894.05805013277,154589.0
62894.068144000834,154586.0
62894.07823786889,154568.0
62894.088331736944,154585.0
62894.098425605,154572.0
62894.10851947306,154598.0
62894.11861334112,154621.0
62894.12870720917,154614.0
62894.13880107723,154588.0
62894.14889494528,154603.0
62894.158988813346,154632.0
62894.1690826814,154610.0
62894.179176549456,154630.0
62894.18927041751,154624.0
62894.199364285574,154598.0
62894.20945815363,154612.0
62894.219552021685,154649.0
62894.22964588974,154625.0
62894.2397397578,154622.0
62894.24983362586,154645.0
62894.25992749391,154636.0
62894.27002136197,154633.0
62894.28011523003,154644.0
62894.290209098086,154648.0
62894.30030296614,154625.0
62894.3103968342,154648.0
62894.32049070225,154665.0
62894.330584570314,154638.0
62894.34067843837,154672.0
62894.350772306425,154649.0
62894.36086617448,154623.0
62894.37096004254,154631.0
62894.3810539106,154653.0
62894.39114777865,154670.0
62894.40124164671,154658.0
62894.41133551477,154665.0
62894.421429382826,154679.0
62894.43152325088,154674.0
62894.44161711894,154657.0
62894.451710987,154716.0
62894.461804855055,154670.0
62894.47189872311,154684.0
62894.481992591165,154673.0
62894.49208645922,154667.0
62894.50218032728,154691.0
62894.51227419534,154698.0
62894.52236806339,154683.0
62894.53246193145,154682.0
62894.54255579951,154702.0
62894.55264966757,154689.0
62894.56274353562,154640.0
62894.57283740368,154646.0
62894.58293127174,154590.0
62894.593025139795,154618.0
62894.60311900785,154565.0
62894.613212875905,154606.0
62894.62330674397,154573.0
62894.63340061202,154572.0
62894.64349448008,154555.0
62894.653588348134,154551.0
62894.66368221619,154590.0
62894.67377608425,154563.0
62894.68386995231,154582.0
62894.69396382036,154588.0
62894.70405768842,154602.0
62894.71415155648,154551.0
62894.724245424535,154598.0
62894.73433929259,154603.0
62894.744433160646,154573.0
62894.75452702871,154634.0
62894.76462089676,154586.0
62894.77471476482,154578.0
62894.784808632874,154613.0
62894.79490250094,154616.0
62894.80499636899,154609.0
62894.81509023705,154586.0
62894.8251841051,154627.0
62894.83527797316,154594.0
62894.84537184122,154610.0
62894.855465709275,154610.0
62894.86555957733,154587.0
62894.875653445386,154572.0
62894.88574731345,154584.0
62894.895841181504,154563.0
62894.90593504956,154577.0
62894.916028917614,154592.0
62894.92612278568,154595.0
62894.93621665373,154600.0
62894.94631052179,154578.0
62894.95640438984,154624.0
62894.9664982579,154602.0
62894.97659212596,154572.0
62894.986685994016,154624.0
62894.99677986207,154595.0
62895.006873730126,154610.0
62895.01696759819,154603.0
62895.027061466244,154629.0
62895.0371553343,154583.0
62895.047249202355,154630.0
62895.05734307042,154641.0
62895.06743693847,154630.0
62895.07753080653,154660.0
62895.08762467458,154634.0
62895.097718542645,154621.0
62895.1078124107,154625.0
62895.117906278756,154663.0
62895.12800014681,154645.0
62895.13809401487,154617.0
62895.14818788293,154659.0
62895.158281750984,154629.0
62895.16837561904,154640.0
62895.178469487095,154616.0
62895.18856335516,154680.0
62895.19865722321,154674.0
62895.20875109127,154671.0
62895.21884495932,154649.0
62895.228938827386,154639.0
62895.23903269544,154656.0
62895.249126563496,154691.0
62895.25922043155,154678.0
62895.269314299614,154691.0
62895.27940816767,154675.0
62895.289502035725,154631.0
62895.29959590378,154663.0
62895.309689771835,154676.0
62895.3197836399,154648.0
62895.32987750795,154650.0
62895.33997137601,154635.0
62895.35006524406,154601.0
62895.360159112126,154587.0
62895.37025298018,154597.0
62895.38034684824,154583.0
62895.39044071629,154558.0
62895.400534584354,154591.0
62895.41062845241,154582.0
62895.420722320465,154547.0
62895.43081618852,154563.0
62895.44091005658,154540.0
62895.45100392464,154583.0
62895.46109779269,154582.0
62895.47119166075,154593.0
62895.481285528804,154558.0
62895.491379396866,154574.0
62895.50147326492,154591.0
62895.51156713298,154592.0
62895.52166100103,154585.0
62895.531754869095,154585.0
62895.54184873715,154602.0
62895.551942605205,154581.0
62895.56203647326,154616.0
62895.57213034132,154597.0
62895.58222420938,154592.0
62895.59231807743,154592.0
62895.60241194549,154603.0
62895.61250581355,154608.0
62895.62259968161,154605.0
62895.63269354966,154615.0
62895.64278741772,154604.0
62895.65288128577,154575.0
62895.662975153835,154599.0
62895.67306902189,154614.0
62895.683162889945,154622.0
62895.693256758,154606.0
62895.70335062606,154588.0
62895.71344449412,154579.0
62895.723538362174,154550.0
62895.73363223023,154618.0
62895.74372609829,154602.0
62895.75381996635,154622.0
62895.7639138344,154614.0
62895.77400770246,154632.0
62895.78410157051,154605.0
62895.794195438575,154621.0
62895.80428930663,154653.0
62895.814383174686,154623.0
62895.82447704274,154563.0
62895.8345709108,154630.0
62895.84466477886,154617.0
62895.854758646914,154618.0
62895.86485251497,154646.0
62895.87494638303,154649.0
62895.88504025109,154600.0
62895.89513411914,154680.0
62895.9052279872,154674.0
62895.91532185526,154648.0
62895.925415723315,154651.0
62895.93550959137,154654.0
62895.945603459426,154654.0
62895.95569732748,154645.0
62895.965791195544,154680.0
62895.9758850636,154635.0
62895.985978931654,154702.0
62895.99607279971,154668.0
62896.00616666777,154632.0
62896.01626053583,154633.0
62896.02635440388,154669.0
62896.03644827194,154639.0
62896.04654214,154622.0
62896.056636008056,154587.0
62896.06672987611,154568.0
62896.076823744166,154577.0
62896.08691761223,154535.0
62896.097011480284,154521.0
62896.10710534834,154541.0
62896.117199216395,154537.0
62896.12729308445,154532.0
62896.13738695251,154564.0
62896.14748082057,154537.0
62896.15757468862,154537.0
62896.16766855668,154515.0
62896.17776242474,154561.0
62896.187856292796,154537.0
62896.19795016085,154560.0
62896.20804402891,154509.0
62896.21813789697,154571.0
62896.228231765024,154540.0
62896.23832563308,154543.0
62896.248419501135,154561.0
62896.2585133692,154538.0
62896.26860723725,154569.0
62896.27870110531,154552.0
62896.28879497336,154544.0
62896.29888884142,154551.0
62896.30898270948,154563.0
62896.319076577536,154551.0
62896.32917044559,154522.0
62896.33926431365,154570.0
62896.34935818171,154532.0
62896.359452049765,154526.0
62896.36954591782,154532.0
62896.379639785875,154507.0
62896.38973365394,154531.0
62896.39982752199,154567.0
62896.40992139005,154552.0
62896.4200152581,154537.0
62896.430109126166,154585.0
62896.44020299422,154533.0
62896.45029686228,154555.0
62896.46039073033,154551.0
62896.47048459839,154558.0
62896.48057846645,154571.0
62896.490672334505,154574.0
62896.50076620256,154558.0
62896.510860070615,154549.0
62896.52095393868,154580.0
62896.53104780673,154587.0
62896.54114167479,154577.0
62896.551235542844,154587.0
62896.561329410906,154599.0
62896.57142327896,154598.0
62896.58151714702,154584.0
62896.59161101507,154609.0
62896.60170488313,154577.0
62896.61179875119,154600.0
62896.621892619245,154636.0
62896.6319864873,154566.0
62896.642080355356,154606.0
62896.65217422342,154613.0
62896.66226809147,154634.0
62896.67236195953,154601.0
62896.682455827584,154655.0
62896.69254969565,154637.0
62896.7026435637,154627.0
62896.71273743176,154645.0
62896.72283129981,154637.0
62896.732925167875,154643.0
62896.74301903593,154633.0
62896.753112903985,154647.0
62896.76320677204,154643.0
62896.773300640096,154635.0
62896.78339450816,154664.0
62896.793488376214,154660.0
62896.80358224427,154612.0
62896.813676112324,154610.0
62896.82376998039,154608.0
62896.83386384844,154571.0
62896.8439577165,154577.0
62896.85405158455,154541.0
62896.864145452615,154495.0
62896.87423932067,154526.0
62896.884333188726,154488.0
62896.89442705678,154478.0
62896.90452092484,154479.0
62896.9146147929,154506.0
62896.924708660954,154482.0
62896.93480252901,154493.0
62896.944896397064,154497.0
62896.95499026513,154480.0
62896.96508413318,154513.0
62896.97517800124,154522.0
62896.98527186929,154500.0
62896.995365737355,154482.0
62897.00545960541,154499.0
62897.015553473466,154455.0
62897.02564734152,154458.0
62897.035741209584,154484.0
62897.04583507764,154481.0
62897.055928945694,154479.0
62897.06602281375,154495.0
62897.07611668181,154475.0
62897.08621054987,154461.0
62897.09630441792,154500.0
62897.10639828598,154494.0
62897.11649215403,154514.0
62897.126586022096,154487.0
62897.13667989015,154474.0
62897.146773758206,154504.0
62897.15686762626,154481.0
62897.166961494324,154503.0
62897.17705536238,154448.0
62897.187149230434,154480.0
62897.19724309849,154482.0
62897.20733696655,154478.0
62897.21743083461,154488.0
62897.22752470266,154497.0
62897.23761857072,154509.0
62897.24771243878,154482.0
62897.257806306836,154533.0
62897.26790017489,154509.0
62897.27799404295,154521.0
62897.288087911,154527.0
62897.298181779064,154547.0
62897.30827564712,154528.0
62897.318369515175,154490.0
62897.32846338323,154550.0
62897.33855725129,154522.0
62897.34865111935,154533.0
62897.3587449874,154554.0
62897.36883885546,154496.0
62897.37893272352,154541.0
62897.389026591576,154545.0
62897.39912045963,154558.0
62897.40921432769,154532.0
62897.41930819574,154560.0
62897.429402063804,154567.0
62897.43949593186,154551.0
62897.449589799915,154575.0
62897.45968366797,154531.0
62897.46977753603,154567.0
62897.47987140409,154538.0
62897.48996527214,154605.0
62897.5000591402,154565.0
62897.51015300826,154575.0
62897.52024687632,154570.0
62897.53034074437,154567.0
62897.54043461243,154542.0
62897.55052848049,154606.0
62897.560622348545,154569.0
62897.5707162166,154584.0
62897.580810084655,154585.0
62897.59090395271,154572.0
62897.60099782077,154597.0
62897.61109168883,154599.0
62897.62118555688,154628.0
62897.63127942494,154643.0
62897.641373293,154611.0
62897.65146716106,154577.0
62897.66156102911,154586.0
62897.67165489717,154561.0
62897.68174876523,154536.0
62897.691842633285,154490.0
62897.70193650134,154493.0
62897.712030369396,154488.0
62897.72212423746,154472.0
62897.73221810551,154432.0
62897.74231197357,154462.0
62897.752405841624,154440.0
62897.76249970968,154440.0
62897.77259357774,154461.0
62897.7826874458,154409.0
62897.79278131385,154443.0
62897.80287518191,154444.0
62897.81296904997,154445.0
62897.823062918025,154424.0
62897.83315678608,154412.0
62897.843250654136,154439.0
62897.8533445222,154430.0
62897.86343839025,154436.0
62897.87353225831,154424.0
62897.883626126364,154453.0
62897.89371999443,154430.0
62897.90381386248,154442.0
62897.91390773054,154433.0
62897.92400159859,154448.0
62897.93409546665,154447.0
62897.94418933471,154424.0
62897.954283202766,154416.0
62897.96437707082,154463.0
62897.974470938876,154411.0
62897.98456480694,154411.0
62897.994658674994,154470.0
62898.00475254305,154434.0
62898.014846411104,154446.0
62898.02494027917,154424.0
62898.03503414722,154452.0
62898.04512801528,154439.0
62898.05522188333,154419.0
62898.065315751395,154458.0
62898.07540961945,154435.0
62898.085503487506,154455.0
62898.09559735556,154466.0
62898.105691223616,154438.0
62898.11578509168,154419.0
62898.125878959734,154488.0
62898.13597282779,154473.0
62898.146066695845,154448.0
62898.15616056391,154498.0
62898.16625443196,154470.0
62898.17634830002,154491.0
62898.18644216807,154450.0
62898.196536036136,154515.0
62898.20662990419,154508.0
62898.216723772246,154505.0
62898.2268176403,154476.0
62898.23691150836,154475.0
62898.24700537642,154468.0
62898.257099244474,154518.0
62898.26719311253,154537.0
62898.277286980585,154543.0
62898.28738084865,154541.0
62898.2974747167,154525.0
62898.30756858476,154513.0
62898.31766245281,154503.0
62898.327756320876,154513.0
62898.33785018893,154542.0
62898.347944056986,154549.0
62898.35803792504,154564.0
62898.368131793104,154474.0
62898.37822566116,154537.0
62898.388319529215,154566.0
62898.39841339727,154529.0
62898.408507265325,154582.0
62898.41860113339,154554.0
62898.42869500144,154557.0
62898.4387888695,154559.0
62898.44888273755,154605.0
62898.458976605616,154582.0
62898.46907047367,154563.0
62898.47916434173,154605.0
62898.48925820978,154612.0
62898.499352077844,154596.0
62898.5094459459,154606.0
62898.519539813955,154614.0
62898.52963368201,154584.0
62898.53972755007,154586.0
62898.54982141813,154605.0
62898.55991528618,154571.0
62898.57000915424,154548.0
62898.580103022294,154538.0
62898.590196890356,154491.0
62898.60029075841,154507.0
62898.61038462647,154495.0
62898.62047849452,154464.0
62898.630572362585,154440.0
62898.64066623064,154468.0
62898.650760098695,154437.0
62898.66085396675,154420.0
62898.67094783481,154437.0
62898.68104170287,154447.0
62898.69113557092,154450.0
62898.70122943898,154454.0
62898.71132330704,154453.0
62898.7214171751,154421.0
62898.73151104315,154437.0
62898.74160491121,154469.0
62898.75169877926,154447.0
62898.761792647325,154463.0
62898.77188651538,154474.0
62898.781980383435,154461.0
62898.79207425149,154451.0
62898.80216811955,154448.0
62898.81226198761,154419.0
62898.822355855664,154434.0
62898.83244972372,154452.0
62898.84254359178,154462.0
62898.85263745984,154439.0
62898.86273132789,154446.0
62898.87282519595,154454.0
62898.88291906401,154420.0
62898.893012932065,154421.0
62898.90310680012,154436.0
62898.913200668176,154449.0
62898.92329453623,154461.0
62898.93338840429,154456.0
62898.94348227235,154455.0
62898.953576140404,154455.0
62898.96367000846,154454.0
62898.97376387652,154483.0
62898.98385774458,154458.0
62898.99395161263,154472.0
62899.00404548069,154469.0
62899.01413934875,154480.0
62899.024233216805,154498.0
62899.03432708486,154505.0
62899.044420952916,154503.0
62899.05451482097,154501.0
62899.064608689034,154490.0
62899.07470255709,154489.0
62899.084796425144,154477.0
62899.0948902932,154504.0
62899.10498416126,154456.0
62899.11507802932,154502.0
62899.12517189737,154493.0
62899.13526576543,154538.0
62899.14535963349,154492.0
62899.155453501546,154519.0
62899.1655473696,154458.0
62899.175641237656,154494.0
62899.18573510572,154548.0
62899.195828973774,154528.0
62899.20592284183,154517.0
62899.216016709885,154555.0
62899.22611057794,154531.0
62899.236204446,154515.0
62899.24629831406,154536.0
62899.25639218211,154568.0
62899.26648605017,154554.0
62899.27657991823,154547.0
62899.286673786286,154545.0
62899.29676765434,154520.0
62899.3068615224,154551.0
62899.31695539046,154537.0
62899.327049258514,154558.0
62899.33714312657,154525.0
62899.347236994625,154576.0
62899.35733086269,154606.0
62899.36742473074,154585.0
62899.3775185988,154590.0
62899.38761246685,154628.0
62899.39770633491,154614.0
62899.40780020297,154599.0
62899.417894071026,154580.0
62899.42798793908,154588.0
62899.43808180714,154564.0
62899.4481756752,154573.0
62899.458269543255,154540.0
62899.46836341131,154531.0
62899.478457279365,154526.0
62899.48855114743,154494.0
62899.49864501548,154473.0
62899.50873888354,154456.0
62899.51883275159,154463.0
62899.528926619656,154462.0
62899.53902048771,154470.0
62899.54911435577,154469.0
62899.55920822382,154461.0
62899.56930209188,154474.0
62899.57939595994,154447.0
62899.589489827995,154440.0
62899.59958369605,154450.0
62899.609677564105,154468.0
62899.61977143217,154456.0
62899.62986530022,154456.0
62899.63995916828,154481.0
62899.650053036334,154468.0
62899.660146904396,154502.0
62899.67024077245,154452.0
62899.68033464051,154474.0
62899.69042850856,154476.0
62899.700522376625,154473.0
62899.71061624468,154477.0
62899.720710112735,154496.0
62899.73080398079,154482.0
62899.740897848846,154455.0
62899.75099171691,154464.0
62899.76108558496,154463.0
62899.77117945302,154480.0
62899.781273321074,154451.0
62899.79136718914,154472.0
62899.80146105719,154481.0
62899.81155492525,154476.0
62899.8216487933,154478.0
62899.831742661365,154447.0
62899.84183652942,154467.0
62899.851930397475,154474.0
62899.86202426553,154492.0
62899.872118133586,154502.0
62899.88221200165,154484.0
62899.892305869704,154538.0
62899.90239973776,154501.0
62899.912493605814,154477.0
62899.92258747388,154519.0
62899.93268134193,154530.0
62899.94277520999,154517.0
62899.95286907804,154509.0
62899.962962946105,154540.0
62899.97305681416,154491.0
62899.983150682216,154534.0
62899.99324455027,154553.0
62900.00333841833,154537.0
62900.01343228639,154552.0
62900.023526154444,154536.0
62900.0336200225,154542.0
62900.043713890554,154532.0
62900.05380775862,154567.0
62900.06390162667,154556.0
62900.07399549473,154531.0
62900.08408936278,154577.0
62900.094183230845,154522.0
62900.1042770989,154523.0
62900.114370966956,154542.0
62900.12446483501,154575.0
62900.134558703074,154551.0
62900.14465257113,154579.0
62900.154746439184,154558.0
62900.16484030724,154552.0
62900.1749341753,154560.0
62900.18502804336,154572.0
62900.19512191141,154603.0
62900.20521577947,154589.0
62900.21530964752,154576.0
62900.225403515586,154594.0
62900.23549738364,154598.0
62900.245591251696,154564.0
62900.25568511975,154538.0
62900.265778987814,154557.0
62900.27587285587,154561.0
62900.285966723925,154511.0
62900.29606059198,154489.0
62900.30615446004,154493.0
62900.3162483281,154475.0
62900.32634219615,154456.0
62900.33643606421,154501.0
62900.34652993227,154461.0
62900.356623800326,154465.0
62900.36671766838,154487.0
62900.37681153644,154479.0
62900.38690540449,154446.0
62900.396999272554,154472.0
62900.40709314061,154505.0
62900.417187008665,154465.0
62900.42728087672,154469.0
62900.43737474478,154497.0
62900.44746861284,154492.0
62900.45756248089,154471.0
62900.46765634895,154485.0
62900.47775021701,154509.0
62900.487844085066,154498.0
62900.49793795312,154525.0
62900.50803182118,154461.0
62900.51812568924,154501.0
62900.528219557295,154512.0
62900.53831342535,154487.0
62900.548407293405,154494.0
62900.55850116146,154509.0
62900.56859502952,154534.0
62900.57868889758,154477.0
62900.58878276563,154494.0
62900.59887663369,154512.0
62900.60897050175,154491.0
62900.61906436981,154513.0
62900.62915823786,154514.0
62900.63925210592,154509.0
62900.64934597398,154544.0
62900.659439842035,154531.0
62900.66953371009,154502.0
62900.679627578145,154521.0
62900.6897214462,154503.0
62900.69981531426,154556.0
62900.70990918232,154532.0
62900.72000305037,154546.0
62900.73009691843,154538.0
62900.74019078649,154524.0
62900.75028465455,154569.0
62900.7603785226,154544.0
62900.77047239066,154544.0
62900.78056625872,154573.0
62900.790660126775,154558.0
62900.80075399483,154562.0
62900.810847862886,154590.0
62900.82094173095,154590.0
62900.831035599,154550.0
62900.84112946706,154580.0
62900.851223335114,154602.0
62900.86131720317,154572.0
62900.87141107123,154559.0
62900.88150493929,154596.0
62900.89159880734,154599.0
62900.9016926754,154569.0
62900.91178654346,154601.0
62900.921880411515,154585.0
62900.93197427957,154557.0
62900.942068147626,154581.0
62900.95216201569,154577.0
62900.96225588374,154604.0
62900.9723497518,154596.0
62900.982443619854,154585.0
62900.99253748792,154549.0
62901.00263135597,154586.0
62901.01272522403,154535.0
62901.02281909208,154506.0
62901.03291296014,154493.0
62901.0430068282,154483.0
62901.053100696256,154476.0
62901.06319456431,154462.0
62901.073288432366,154498.0
62901.08338230043,154472.0
62901.093476168484,154478.0
62901.10357003654,154461.0
62901.113663904594,154458.0
62901.12375777266,154434.0
62901.13385164071,154479.0
62901.14394550877,154505.0
62901.15403937682,154514.0
62901.164133244885,154491.0
62901.17422711294,154456.0
62901.184320980996,154465.0
62901.19441484905,154453.0
62901.20450871711,154478.0
62901.21460258517,154489.0
62901.224696453224,154499.0
62901.23479032128,154515.0
62901.244884189335,154452.0
62901.2549780574,154495.0
62901.26507192545,154488.0
62901.27516579351,154469.0
62901.28525966156,154523.0
62901.295353529626,154486.0
62901.30544739768,154446.0
62901.315541265736,154478.0
62901.32563513379,154494.0
62901.335729001854,154490.0
62901.34582286991,154497.0
62901.355916737964,154500.0
62901.36601060602,154505.0
62901.376104474075,154509.0
62901.38619834214,154497.0
62901.39629221019,154528.0
62901.40638607825,154478.0
62901.4164799463,154514.0
62901.426573814366,154528.0
62901.43666768242,154494.0
62901.44676155048,154510.0
62901.45685541853,154507.0
62901.466949286594,154531.0
62901.47704315465,154537.0
62901.487137022705,154515.0
62901.49723089076,154534.0
62901.507324758815,154512.0
62901.51741862688,154544.0
62901.52751249493,154564.0
62901.53760636299,154528.0
62901.54770023104,154575.0
62901.557794099106,154544.0
62901.56788796716,154546.0
62901.57798183522,154578.0
62901.58807570327,154561.0
62901.598169571334,154562.0
62901.60826343939,154576.0
62901.618357307445,154581.0
62901.6284511755,154573.0
62901.63854504356,154571.0
62901.64863891162,154596.0
62901.65873277967,154602.0
62901.66882664773,154572.0
62901.678920515784,154575.0
62901.68901438385,154592.0
62901.6991082519,154580.0
62901.70920211996,154616.0
62901.71929598801,154631.0
62901.729389856075,154584.0
62901.73948372413,154620.0
62901.749577592185,154613.0
62901.75967146024,154589.0
62901.7697653283,154584.0
62901.77985919636,154570.0
62901.78995306441,154586.0
62901.80004693247,154557.0
62901.81014080053,154527.0
62901.82023466859,154479.0
62901.83032853664,154494.0
62901.8404224047,154464.0
62901.85051627275,154446.0
62901.860610140815,154454.0
62901.87070400887,154452.0
62901.880797876925,154457.0
62901.89089174498,154458.0
62901.90098561304,154439.0
62901.9110794811,154472.0
62901.921173349154,154478.0
62901.93126721721,154460.0
62901.94136108527,154456.0
62901.95145495333,154450.0
62901.96154882138,154411.0
62901.97164268944,154445.0
62901.9817365575,154398.0
62901.991830425555,154443.0
62902.00192429361,154418.0
62902.012018161666,154424.0
62902.02211202972,154419.0
62902.03220589778,154443.0
62902.04229976584,154408.0
62902.052393633894,154416.0
62902.06248750195,154424.0
62902.07258137001,154450.0
62902.08267523807,154452.0
62902.09276910612,154451.0
62902.10286297418,154416.0
62902.11295684224,154383.0
62902.123050710296,154425.0
62902.13314457835,154436.0
62902.143238446406,154478.0
62902.15333231447,154446.0
62902.163426182524,154445.0
62902.17352005058,154445.0
62902.183613918634,154467.0
62902.19370778669,154417.0
62902.20380165475,154452.0
62902.21389552281,154451.0
62902.22398939086,154489.0
62902.23408325892,154469.0
62902.24417712698,154451.0
62902.254270995036,154458.0
62902.26436486309,154487.0
62902.274458731146,154474.0
62902.28455259921,154495.0
62902.294646467264,154488.0
62902.30474033532,154491.0
62902.314834203375,154521.0
62902.32492807143,154493.0
62902.33502193949,154494.0
62902.34511580755,154505.0
62902.3552096756,154515.0
62902.36530354366,154511.0
62902.37539741172,154531.0
62902.385491279776,154508.0
62902.39558514783,154488.0
62902.40567901589,154504.0
62902.41577288395,154540.0
62902.425866752004,154551.0
62902.43596062006,154515.0
62902.446054488115,154519.0
62902.45614835618,154507.0
62902.46624222423,154546.0
62902.47633609229,154516.0
62902.48642996034,154547.0
62902.4965238284,154514.0
62902.50661769646,154534.0
62902.516711564516,154555.0
62902.52680543257,154553.0
62902.53689930063,154532.0
62902.54699316869,154542.0
62902.557087036745,154515.0
62902.5671809048,154526.0
62902.577274772855,154525.0
62902.58736864092,154501.0
62902.59746250897,154487.0
62902.60755637703,154448.0
62902.61765024508,154407.0
62902.627744113146,154421.0
62902.6378379812,154405.0
62902.64793184926,154420.0
62902.65802571731,154387.0
62902.66811958537,154379.0
62902.67821345343,154395.0
62902.688307321485,154401.0
62902.69840118954,154410.0
62902.708495057595,154389.0
62902.71858892566,154397.0
62902.72868279371,154398.0
62902.73877666177,154409.0
62902.748870529824,154418.0
62902.758964397886,154379.0
62902.76905826594,154381.0
62902.779152134,154394.0
62902.78924600205,154377.0
62902.799339870115,154418.0
62902.80943373817,154409.0
62902.819527606225,154407.0
62902.82962147428,154407.0
62902.839715342336,154421.0
62902.8498092104,154416.0
62902.85990307845,154411.0
62902.86999694651,154404.0
62902.880090814564,154424.0
62902.89018468263,154403.0
62902.90027855068,154402.0
62902.91037241874,154439.0
62902.92046628679,154363.0
62902.930560154855,154394.0
62902.94065402291,154399.0
62902.950747890965,154436.0
62902.96084175902,154418.0
62902.97093562708,154418.0
62902.98102949514,154412.0
62902.991123363194,154414.0
62903.00121723125,154404.0
62903.011311099304,154436.0
62903.02140496737,154431.0
62903.03149883542,154436.0
62903.04159270348,154414.0
62903.05168657153,154398.0
62903.061780439595,154440.0
62903.07187430765,154469.0
62903.081968175706,154438.0
62903.09206204376,154482.0
62903.10215591182,154462.0
62903.11224977988,154442.0
62903.122343647934,154455.0
62903.13243751599,154501.0
62903.142531384045,154472.0
62903.15262525211,154455.0
62903.16271912016,154490.0
62903.17281298822,154450.0
62903.18290685627,154483.0
62903.193000724335,154442.0
62903.20309459239,154470.0
62903.213188460446,154491.0
62903.2232823285,154509.0
62903.233376196564,154477.0
62903.24347006462,154479.0
62903.253563932674,154527.0
62903.26365780073,154503.0
62903.27375166879,154513.0
62903.28384553685,154524.0
62903.2939394049,154504.0
62903.30403327296,154518.0
62903.31412714101,154516.0
62903.324221009076,154462.0
62903.33431487713,154446.0
62903.344408745186,154477.0
62903.35450261324,154431.0
62903.364596481304,154403.0
62903.37469034936,154413.0
62903.384784217415,154390.0
62903.39487808547,154370.0
62903.40497195353,154370.0
62903.41506582159,154395.0
62903.42515968964,154369.0
62903.4352535577,154374.0
62903.44534742576,154381.0
62903.455441293816,154396.0
62903.46553516187,154359.0
62903.47562902993,154377.0
62903.48572289798,154415.0
62903.495816766044,154376.0
62903.5059106341,154406.0
62903.516004502155,154383.0
62903.52609837021,154377.0
62903.53619223827,154369.0
62903.54628610633,154430.0
62903.55637997438,154393.0
62903.56647384244,154363.0
62903.5765677105,154422.0
62903.586661578556,154424.0
62903.59675544661,154391.0
62903.60684931467,154380.0
62903.61694318273,154367.0
62903.627037050785,154368.0
62903.63713091884,154391.0
62903.647224786895,154414.0
62903.65731865495,154362.0
62903.66741252301,154430.0
62903.67750639107,154398.0
62903.68760025912,154369.0
62903.69769412718,154367.0
62903.70778799524,154420.0
62903.7178818633,154383.0
62903.72797573135,154398.0
62903.73806959941,154418.0
62903.74816346747,154375.0
62903.758257335525,154414.0
62903.76835120358,154378.0
62903.778445071635,154453.0
62903.7885389397,154430.0
62903.79863280775,154429.0
62903.80872667581,154422.0
62903.818820543864,154421.0
62903.82891441192,154433.0
62903.83900827998,154437.0
62903.84910214804,154431.0
62903.85919601609,154452.0
62903.86928988415,154467.0
62903.87938375221,154435.0
62903.889477620265,154459.0
62903.89957148832,154472.0
62903.909665356376,154438.0
62903.91975922444,154460.0
62903.92985309249,154487.0
62903.93994696055,154461.0
62903.950040828604,154470.0
62903.96013469666,154516.0
62903.97022856472,154490.0
62903.98032243278,154451.0
62903.99041630083,154505.0
62904.00051016889,154481.0
62904.01060403695,154487.0
62904.020697905005,154507.0
62904.03079177306,154532.0
62904.040885641116,154500.0
62904.05097950918,154516.0
62904.061073377234,154548.0
62904.07116724529,154511.0
62904.081261113344,154527.0
62904.09135498141,154538.0
62904.10144884946,154520.0
62904.11154271752,154499.0
62904.12163658557,154530.0
62904.13173045363,154507.0
62904.14182432169,154456.0
62904.151918189746,154481.0
62904.1620120578,154450.0
62904.172105925856,154433.0
62904.18219979392,154397.0
62904.192293661974,154401.0
62904.20238753003,154386.0
62904.212481398084,154399.0
62904.22257526615,154414.0
62904.2326691342,154359.0
62904.24276300226,154380.0
62904.25285687031,154374.0
62904.262950738375,154361.0
62904.27304460643,154362.0
62904.283138474486,154412.0
62904.29323234254,154398.0
62904.3033262106,154383.0
62904.31342007866,154425.0
62904.323513946714,154376.0
62904.33360781477,154405.0
62904.343701682825,154439.0
62904.35379555089,154430.0
62904.36388941894,154394.0
62904.373983287,154423.0
62904.38407715505,154428.0
62904.394171023116,154385.0
62904.40426489117,154388.0
62904.414358759226,154423.0
62904.42445262728,154425.0
62904.434546495344,154444.0
62904.4446403634,154393.0
62904.454734231454,154389.0
62904.46482809951,154419.0
62904.474921967565,154387.0
62904.48501583563,154431.0
62904.49510970368,154400.0
62904.50520357174,154426.0
62904.51529743979,154373.0
62904.525391307856,154401.0
62904.53548517591,154429.0
62904.54557904397,154428.0
62904.55567291202,154414.0
62904.565766780084,154441.0
62904.57586064814,154440.0
62904.585954516195,154449.0
62904.59604838425,154433.0
62904.60614225231,154472.0
62904.61623612037,154436.0
62904.62632998842,154473.0
62904.63642385648,154494.0
62904.64651772453,154458.0
62904.656611592596,154481.0
62904.66670546065,154460.0
62904.67679932871,154493.0
62904.68689319676,154454.0
62904.696987064824,154494.0
62904.70708093288,154483.0
62904.717174800935,154484.0
62904.72726866899,154481.0
62904.73736253705,154472.0
62904.74745640511,154491.0
62904.75755027316,154501.0
62904.76764414122,154525.0
62904.777738009274,154509.0
62904.78783187734,154498.0
62904.79792574539,154524.0
62904.80801961345,154517.0
62904.8181134815,154536.0
62904.828207349565,154520.0
62904.83830121762,154512.0
62904.848395085675,154503.0
62904.85848895373,154508.0
62904.86858282179,154541.0
62904.87867668985,154518.0
62904.8887705579,154517.0
62904.89886442596,154516.0
62904.90895829402,154533.0
62904.91905216208,154490.0
62904.92914603013,154494.0
62904.93923989819,154470.0
62904.94933376624,154461.0
62904.959427634305,154439.0
62904.96952150236,154417.0
62904.979615370416,154404.0
62904.98970923847,154396.0
62904.99980310653,154431.0
62905.00989697459,154390.0
62905.019990842644,154441.0
62905.0300847107,154415.0
62905.04017857876,154418.0
62905.05027244682,154427.0
62905.06036631487,154404.0
62905.07046018293,154424.0
62905.08055405099,154432.0
62905.090647919045,154442.0
62905.1007417871,154426.0
62905.110835655156,154439.0
62905.12092952321,154457.0
62905.13102339127,154494.0
62905.14111725933,154494.0
62905.151211127384,154454.0
62905.16130499544,154462.0
62905.1713988635,154457.0
62905.18149273156,154443.0
62905.19158659961,154489.0
62905.20168046767,154454.0
62905.21177433573,154459.0
62905.221868203786,154460.0
62905.23196207184,154462.0
62905.242055939896,154461.0
62905.25214980796,154478.0
62905.262243676014,154480.0
62905.27233754407,154490.0
62905.282431412124,154483.0
62905.29252528018,154434.0
62905.30261914824,154449.0
62905.3127130163,154496.0
62905.32280688435,154469.0
62905.33290075241,154452.0
62905.34299462047,154468.0
62905.353088488526,154479.0
62905.36318235658,154491.0
62905.373276224636,154522.0
62905.3833700927,154522.0
62905.393463960754,154524.0
62905.40355782881,154516.0
62905.413651696865,154499.0
62905.42374556493,154550.0
62905.43383943298,154519.0
62905.44393330104,154539.0
62905.45402716909,154480.0
62905.46412103715,154529.0
62905.47421490521,154552.0
62905.484308773266,154529.0
62905.49440264132,154553.0
62905.50449650938,154545.0
62905.51459037744,154553.0
62905.524684245494,154531.0
62905.53477811355,154567.0
62905.544871981605,154539.0
62905.55496584967,154550.0
62905.56505971772,154522.0
62905.57515358578,154571.0
62905.58524745383,154573.0
62905.59534132189,154595.0
62905.60543518995,154532.0
62905.615529058006,154577.0
62905.62562292606,154575.0
62905.63571679412,154593.0
62905.64581066218,154598.0
62905.655904530235,154557.0
62905.66599839829,154542.0
62905.676092266345,154489.0
62905.68618613441,154484.0
62905.69628000246,154483.0
62905.70637387052,154484.0
62905.71646773857,154465.0
62905.726561606636,154432.0
62905.73665547469,154448.0
62905.74674934275,154436.0
62905.7568432108,154482.0
62905.76693707886,154430.0
62905.77703094692,154456.0
62905.787124814975,154445.0
62905.79721868303,154463.0
62905.807312551085,154450.0
62905.81740641915,154473.0
62905.8275002872,154463.0
62905.83759415526,154459.0
62905.847688023314,154502.0
62905.85778189138,154507.0
62905.86787575943,154486.0
62905.87796962749,154477.0
62905.88806349554,154489.0
62905.898157363605,154498.0
62905.90825123166,154478.0
62905.918345099715,154469.0
62905.92843896777,154535.0
62905.938532835826,154503.0
62905.94862670389,154476.0
62905.95872057194,154474.0
62905.96881444,154508.0
62905.978908308054,154492.0
62905.98900217612,154495.0
62905.99909604417,154506.0
62906.00918991223,154460.0
62906.01928378028,154494.0
62906.029377648345,154473.0
62906.0394715164,154499.0
62906.049565384455,154512.0
62906.05965925251,154524.0
62906.06975312057,154526.0
62906.07984698863,154495.0
62906.089940856684,154504.0
62906.10003472474,154499.0
62906.110128592794,154532.0
62906.12022246086,154583.0
62906.13031632891,154547.0
62906.14041019697,154532.0
62906.15050406502,154542.0
62906.160597933085,154561.0
62906.17069180114,154535.0
62906.180785669196,154552.0
62906.19087953725,154568.0
62906.20097340531,154564.0
62906.21106727337,154567.0
62906.221161141424,154586.0
62906.23125500948,154586.0
62906.24134887754,154592.0
62906.2514427456,154603.0
62906.26153661365,154568.0
62906.27163048171,154602.0
62906.28172434976,154602.0
62906.291818217825,154628.0
62906.30191208588,154600.0
62906.312005953936,154619.0
62906.32209982199,154625.0
62906.332193690054,154618.0
62906.34228755811,154638.0
62906.352381426164,154617.0
62906.36247529422,154632.0
62906.37256916228,154650.0
62906.38266303034,154641.0
62906.39275689839,154624.0
62906.40285076645,154612.0
62906.4129446345,154616.0
62906.423038502566,154636.0
62906.43313237062,154650.0
62906.443226238676,154644.0
62906.45332010673,154649.0
62906.463413974794,154632.0
62906.47350784285,154639.0
62906.483601710905,154660.0
62906.49369557896,154593.0
62906.50378944702,154579.0
62906.51388331508,154551.0
62906.52397718313,154514.0
62906.53407105119,154473.0
62906.54416491925,154471.0
62906.554258787306,154479.0
62906.56435265536,154493.0
62906.57444652342,154503.0
62906.58454039147,154458.0
62906.594634259534,154488.0
62906.60472812759,154476.0
62906.614821995645,154461.0
62906.6249158637,154506.0
62906.63500973176,154484.0
62906.64510359982,154486.0
62906.65519746787,154469.0
62906.66529133593,154487.0
62906.67538520399,154454.0
62906.685479072046,154487.0
62906.6955729401,154525.0
62906.70566680816,154501.0
62906.71576067622,154504.0
62906.725854544275,154520.0
62906.73594841233,154502.0
62906.746042280385,154483.0
62906.75613614844,154521.0
62906.7662300165,154517.0
62906.77632388456,154510.0
62906.78641775261,154512.0
62906.79651162067,154504.0
62906.80660548873,154497.0
62906.81669935679,154487.0
62906.82679322484,154522.0
62906.8368870929,154525.0
62906.84698096096,154514.0
62906.857074829015,154518.0
62906.86716869707,154514.0
62906.877262565125,154511.0
62906.88735643319,154522.0
62906.89745030124,154531.0
62906.9075441693,154500.0
62906.917638037354,154546.0
62906.92773190541,154508.0
62906.93782577347,154520.0
62906.94791964153,154538.0
62906.95801350958,154548.0
62906.96810737764,154557.0
62906.9782012457,154533.0
62906.988295113755,154571.0
62906.99838898181,154581.0
62907.008482849866,154580.0
62907.01857671793,154572.0
62907.02867058598,154556.0
62907.03876445404,154551.0
62907.048858322094,154582.0
62907.05895219016,154570.0
62907.06904605821,154571.0
62907.07913992627,154619.0
62907.08923379432,154590.0
62907.09932766238,154576.0
62907.10942153044,154592.0
62907.119515398495,154616.0
62907.12960926655,154609.0
62907.139703134606,154594.0
62907.14979700267,154641.0
62907.159890870724,154584.0
62907.16998473878,154628.0
62907.180078606834,154605.0
62907.1901724749,154619.0
62907.20026634295,154623.0
62907.21036021101,154620.0
62907.22045407906,154618.0
62907.23054794712,154608.0
62907.24064181518,154654.0
62907.250735683236,154634.0
62907.26082955129,154646.0
62907.270923419346,154649.0
62907.28101728741,154659.0
62907.291111155464,154669.0
62907.30120502352,154671.0
62907.311298891575,154692.0
62907.32139275964,154657.0
62907.33148662769,154672.0
62907.34158049575,154658.0
62907.3516743638,154617.0
62907.361768231865,154601.0
62907.37186209992,154605.0
62907.381955967976,154561.0
62907.39204983603,154534.0
62907.40214370409,154554.0
62907.41223757215,154514.0
62907.422331440204,154507.0
62907.43242530826,154497.0
62907.442519176315,154490.0
62907.45261304438,154466.0
62907.46270691243,154511.0
62907.47280078049,154492.0
62907.48289464854,154471.0
62907.492988516606,154498.0
62907.50308238466,154502.0
62907.513176252716,154513.0
62907.52327012077,154517.0
62907.533363988834,154488.0
62907.54345785689,154503.0
62907.553551724945,154498.0
62907.563645593,154528.0
62907.573739461055,154485.0
62907.58383332912,154498.0
62907.59392719717,154526.0
62907.60402106523,154496.0
62907.61411493328,154493.0
62907.624208801346,154510.0
62907.6343026694,154542.0
62907.64439653746,154515.0
62907.65449040551,154530.0
62907.664584273574,154514.0
62907.67467814163,154487.0
62907.684772009685,154501.0
62907.69486587774,154491.0
62907.7049597458,154523.0
62907.71505361386,154500.0
62907.72514748191,154545.0
62907.73524134997,154521.0
62907.745335218024,154514.0
62907.755429086086,154503.0
62907.76552295414,154562.0
62907.7756168222,154528.0
62907.78571069025,154537.0
62907.795804558315,154558.0
62907.80589842637,154514.0
62907.815992294425,154543.0
62907.82608616248,154538.0
62907.83618003054,154563.0
62907.8462738986,154586.0
62907.85636776665,154565.0
62907.86646163471,154520.0
62907.87655550277,154571.0
62907.88664937083,154557.0
62907.89674323888,154573.0
62907.90683710694,154616.0
62907.91693097499,154599.0
62907.927024843055,154588.0
62907.93711871111,154578.0
62907.947212579165,154603.0
62907.95730644722,154600.0
62907.96740031528,154608.0
62907.97749418334,154600.0
62907.987588051394,154626.0
62907.99768191945,154602.0
62908.00777578751,154608.0
62908.01786965557,154632.0
62908.02796352362,154606.0
62908.03805739168,154616.0
62908.04815125973,154600.0
62908.058245127795,154639.0
62908.06833899585,154641.0
62908.078432863906,154647.0
62908.08852673196,154678.0
62908.09862060002,154614.0
62908.10871446808,154663.0
62908.118808336134,154660.0
62908.12890220419,154615.0
62908.13899607225,154677.0
62908.14908994031,154652.0
62908.15918380836,154669.0
62908.16927767642,154672.0
62908.17937154448,154692.0
62908.189465412535,154665.0
62908.19955928059,154681.0
62908.209653148646,154685.0
62908.2197470167,154675.0
62908.229840884764,154693.0
62908.23993475282,154651.0
62908.250028620874,154614.0
62908.26012248893,154570.0
62908.27021635699,154597.0
62908.28031022505,154547.0
62908.2904040931,154530.0
62908.30049796116,154540.0
62908.31059182922,154515.0
62908.320685697276,154517.0
62908.33077956533,154506.0
62908.340873433386,154518.0
62908.35096730145,154531.0
62908.361061169504,154533.0
62908.37115503756,154522.0
62908.381248905614,154502.0
62908.39134277367,154496.0
62908.40143664173,154565.0
62908.41153050979,154531.0
