time,ppg
63478.94492704948,108823.0
63478.95492496286,108830.0
63478.964922876236,108863.0
63478.97492078962,108845.0
63478.984918703,108847.0
63478.99491661637,108876.0
63479.00491452975,108831.0
63479.014912443134,108845.0
63479.02491035651,108848.0
63479.03490826989,108862.0
63479.04490618327,108817.0
63479.05490409664,108879.0
63479.064902010025,108853.0
63479.074899923406,108835.0
63479.08489783679,108855.0
63479.09489575016,108842.0
63479.10489366354,108867.0
63479.11489157692,108866.0
63479.1248894903,108869.0
63479.13488740368,108804.0
63479.14488531706,108859.0
63479.15488323043,108870.0
63479.16488114381,108865.0
63479.174879057195,108872.0
63479.18487697057,108889.0
63479.19487488395,108903.0
63479.20487279733,108905.0
63479.214870710704,108857.0
63479.224868624086,108901.0
63479.23486653747,108901.0
63479.24486445084,108902.0
63479.25486236422,108872.0
63479.2648602776,108842.0
63479.27485819098,108831.0
63479.28485610436,108841.0
63479.29485401774,108812.0
63479.30485193111,108810.0
63479.31484984449,108784.0
63479.324847757875,108801.0
63479.33484567125,108757.0
63479.34484358463,108771.0
63479.35484149801,108766.0
63479.364839411384,108751.0
63479.374837324765,108771.0
63479.38483523815,108770.0
63479.39483315152,108785.0
63479.4048310649,108769.0
63479.41482897828,108752.0
63479.424826891656,108767.0
63479.43482480504,108798.0
63479.44482271842,108738.0
63479.45482063179,108750.0
63479.46481854517,108775.0
63479.474816458554,108748.0
63479.48481437193,108747.0
63479.49481228531,108800.0
63479.50481019869,108794.0
63479.514808112064,108815.0
63479.524806025445,108804.0
63479.53480393883,108758.0
63479.5448018522,108785.0
63479.55479976558,108764.0
63479.56479767896,108783.0
63479.574795592336,108792.0
63479.58479350572,108803.0
63479.5947914191,108760.0
63479.60478933247,108809.0
63479.61478724585,108775.0
63479.624785159234,108779.0
63479.634783072615,108811.0
63479.64478098599,108824.0
63479.65477889937,108820.0
63479.66477681275,108833.0
63479.674774726125,108795.0
63479.684772639506,108806.0
63479.69477055289,108815.0
63479.70476846626,108821.0
63479.71476637964,108824.0
63479.72476429302,108836.0
63479.7347622064,108799.0
63479.74476011978,108807.0
63479.75475803316,108832.0
63479.76475594653,108839.0
63479.774753859914,108848.0
63479.784751773295,108806.0
63479.79474968667,108831.0
63479.80474760005,108826.0
63479.81474551343,108826.0
63479.824743426805,108848.0
63479.834741340186,108846.0
63479.84473925357,108863.0
63479.85473716694,108871.0
63479.86473508032,108828.0
63479.8747329937,108859.0
63479.88473090708,108856.0
63479.89472882046,108868.0
63479.90472673384,108866.0
63479.91472464721,108854.0
63479.924722560594,108871.0
63479.934720473975,108837.0
63479.94471838735,108868.0
63479.95471630073,108869.0
63479.96471421411,108888.0
63479.974712127485,108900.0
63479.984710040866,108893.0
63479.99470795425,108878.0
63480.00470586762,108868.0
63480.014703781,108890.0
63480.02470169438,108877.0
63480.03469960776,108891.0
63480.04469752114,108869.0
63480.05469543452,108878.0
63480.06469334789,108900.0
63480.074691261274,108886.0
63480.084689174655,108886.0
63480.09468708803,108900.0
63480.10468500141,108901.0
63480.11468291479,108908.0
63480.124680828165,108905.0
63480.134678741546,108899.0
63480.14467665493,108918.0
63480.1546745683,108914.0
63480.16467248168,108911.0
63480.17467039506,108927.0
63480.18466830844,108904.0
63480.19466622182,108853.0
63480.2046641352,108864.0
63480.21466204857,108818.0
63480.224659961954,108852.0
63480.234657875335,108827.0
63480.244655788716,108816.0
63480.25465370209,108798.0
63480.26465161547,108810.0
63480.27464952885,108800.0
63480.284647442226,108789.0
63480.29464535561,108799.0
63480.30464326899,108810.0
63480.31464118236,108822.0
63480.32463909574,108792.0
63480.334637009124,108760.0
63480.3446349225,108811.0
63480.35463283588,108749.0
63480.36463074926,108768.0
63480.374628662634,108765.0
63480.384626576015,108810.0
63480.394624489396,108792.0
63480.40462240277,108785.0
63480.41462031615,108775.0
63480.42461822953,108822.0
63480.434616142906,108788.0
63480.44461405629,108799.0
63480.45461196967,108760.0
63480.46460988304,108809.0
63480.47460779642,108766.0
63480.484605709804,108820.0
63480.49460362318,108797.0
63480.50460153656,108796.0
63480.51459944994,108816.0
63480.524597363314,108813.0
63480.534595276695,108787.0
63480.544593190076,108834.0
63480.55459110345,108789.0
63480.56458901683,108807.0
63480.57458693021,108831.0
63480.584584843586,108783.0
63480.59458275697,108809.0
63480.60458067035,108811.0
63480.61457858372,108818.0
63480.6245764971,108811.0
63480.634574410484,108857.0
63480.64457232386,108836.0
63480.65457023724,108822.0
63480.66456815062,108850.0
63480.67456606399,108794.0
63480.684563977375,108838.0
63480.694561890756,108845.0
63480.70455980413,108820.0
63480.71455771751,108845.0
63480.72455563089,108835.0
63480.734553544266,108838.0
63480.74455145765,108877.0
63480.75454937103,108821.0
63480.7645472844,108846.0
63480.77454519778,108855.0
63480.784543111164,108853.0
63480.794541024545,108869.0
63480.80453893792,108867.0
63480.8145368513,108849.0
63480.82453476468,108834.0
63480.834532678055,108886.0
63480.844530591436,108872.0
63480.85452850482,108865.0
63480.86452641819,108885.0
63480.87452433157,108858.0
63480.88452224495,108863.0
63480.89452015833,108871.0
63480.90451807171,108879.0
63480.91451598509,108892.0
63480.92451389846,108891.0
63480.93451181184,108868.0
63480.944509725225,108907.0
63480.9545076386,108898.0
63480.96450555198,108895.0
63480.97450346536,108902.0
63480.984501378734,108895.0
63480.994499292116,108866.0
63481.0044972055,108917.0
63481.01449511887,108913.0
63481.02449303225,108914.0
63481.03449094563,108914.0
63481.04448885901,108906.0
63481.05448677239,108923.0
63481.06448468577,108932.0
63481.07448259914,108906.0
63481.08448051252,108936.0
63481.094478425905,108919.0
63481.10447633928,108912.0
63481.11447425266,108904.0
63481.12447216604,108898.0
63481.134470079414,108861.0
63481.144467992795,108836.0
63481.15446590618,108854.0
63481.16446381955,108825.0
63481.17446173293,108820.0
63481.18445964631,108839.0
63481.194457559686,108812.0
63481.20445547307,108827.0
63481.21445338645,108817.0
63481.22445129982,108786.0
63481.2344492132,108799.0
63481.244447126584,108791.0
63481.25444503996,108791.0
63481.26444295334,108812.0
63481.27444086672,108788.0
63481.284438780094,108807.0
63481.294436693475,108808.0
63481.30443460686,108832.0
63481.31443252023,108814.0
63481.32443043361,108798.0
63481.33442834699,108817.0
63481.344426260366,108826.0
63481.35442417375,108844.0
63481.36442208713,108792.0
63481.3744200005,108830.0
63481.38441791388,108818.0
63481.394415827264,108800.0
63481.404413740645,108791.0
63481.41441165402,108833.0
63481.4244095674,108847.0
63481.43440748078,108858.0
63481.444405394155,108826.0
63481.454403307536,108824.0
63481.46440122092,108829.0
63481.47439913429,108843.0
63481.48439704767,108823.0
63481.49439496105,108840.0
63481.50439287443,108858.0
63481.51439078781,108811.0
63481.52438870119,108870.0
63481.53438661456,108838.0
63481.544384527944,108832.0
63481.554382441325,108865.0
63481.5643803547,108827.0
63481.57437826808,108866.0
63481.58437618146,108842.0
63481.594374094835,108823.0
63481.604372008216,108840.0
63481.6143699216,108863.0
63481.62436783497,108875.0
63481.63436574835,108877.0
63481.64436366173,108856.0
63481.65436157511,108873.0
63481.66435948849,108895.0
63481.67435740187,108838.0
63481.68435531524,108875.0
63481.694353228624,108887.0
63481.704351142005,108869.0
63481.71434905538,108906.0
63481.72434696876,108912.0
63481.73434488214,108889.0
63481.744342795515,108887.0
63481.754340708896,108897.0
63481.76433862228,108864.0
63481.77433653565,108893.0
63481.78433444903,108906.0
63481.79433236241,108879.0
63481.80433027579,108885.0
63481.81432818917,108898.0
63481.82432610255,108894.0
63481.83432401592,108902.0
63481.844321929304,108864.0
63481.854319842685,108887.0
63481.86431775606,108918.0
63481.87431566944,108957.0
63481.88431358282,108908.0
63481.894311496195,108909.0
63481.904309409576,108915.0
63481.91430732296,108863.0
63481.92430523633,108897.0
63481.93430314971,108948.0
63481.94430106309,108920.0
63481.954298976474,108959.0
63481.96429688985,108913.0
63481.97429480323,108921.0
63481.98429271661,108940.0
63481.994290629984,108948.0
63482.004288543365,108931.0
63482.014286456746,108957.0
63482.02428437012,108941.0
63482.0342822835,108912.0
63482.04428019688,108949.0
63482.054278110256,108878.0
63482.06427602364,108908.0
63482.07427393702,108875.0
63482.08427185039,108889.0
63482.09426976377,108836.0
63482.104267677154,108863.0
63482.11426559053,108874.0
63482.12426350391,108842.0
63482.13426141729,108849.0
63482.144259330664,108842.0
63482.154257244045,108827.0
63482.164255157426,108863.0
63482.1742530708,108823.0
63482.18425098418,108835.0
63482.19424889756,108851.0
63482.204246810936,108826.0
63482.21424472432,108831.0
63482.2242426377,108839.0
63482.23424055107,108821.0
63482.24423846445,108831.0
63482.254236377834,108828.0
63482.26423429121,108843.0
63482.27423220459,108827.0
63482.28423011797,108885.0
63482.294228031344,108829.0
63482.304225944725,108853.0
63482.314223858106,108826.0
63482.32422177148,108824.0
63482.33421968486,108857.0
63482.34421759824,108842.0
63482.354215511616,108857.0
63482.364213425,108857.0
63482.37421133838,108846.0
63482.38420925175,108857.0
63482.39420716513,108851.0
63482.404205078514,108836.0
63482.41420299189,108832.0
63482.42420090527,108838.0
63482.43419881865,108855.0
63482.44419673202,108834.0
63482.454194645405,108879.0
63482.464192558786,108839.0
63482.47419047216,108854.0
63482.48418838554,108877.0
63482.49418629892,108851.0
63482.504184212296,108829.0
63482.51418212568,108874.0
63482.52418003906,108865.0
63482.53417795243,108901.0
63482.54417586581,108861.0
63482.554173779194,108879.0
63482.564171692575,108882.0
63482.57416960595,108887.0
63482.58416751933,108849.0
63482.59416543271,108892.0
63482.604163346085,108914.0
63482.614161259466,108871.0
63482.62415917285,108912.0
63482.63415708622,108901.0
63482.6441549996,108890.0
63482.65415291298,108914.0
63482.66415082636,108874.0
63482.67414873974,108910.0
63482.68414665312,108870.0
63482.69414456649,108932.0
63482.70414247987,108919.0
63482.714140393255,108906.0
63482.72413830663,108879.0
63482.73413622001,108929.0
63482.74413413339,108916.0
63482.754132046764,108912.0
63482.764129960146,108915.0
63482.77412787353,108932.0
63482.7841257869,108920.0
63482.79412370028,108931.0
63482.80412161366,108934.0
63482.81411952704,108911.0
63482.82411744042,108923.0
63482.8341153538,108939.0
63482.84411326717,108889.0
63482.85411118055,108947.0
63482.864109093935,108947.0
63482.87410700731,108937.0
63482.88410492069,108934.0
63482.89410283407,108951.0
63482.904100747444,108944.0
63482.914098660825,108964.0
63482.92409657421,108976.0
63482.93409448758,108988.0
63482.94409240096,108992.0
63482.95409031434,108965.0
63482.964088227716,108929.0
63482.9740861411,108893.0
63482.98408405448,108934.0
63482.99408196785,108878.0
63483.00407988123,108904.0
63483.014077794614,108901.0
63483.02407570799,108869.0
63483.03407362137,108839.0
63483.04407153475,108876.0
63483.054069448124,108890.0
63483.064067361505,108874.0
63483.07406527489,108866.0
63483.08406318826,108865.0
63483.09406110164,108884.0
63483.10405901502,108848.0
63483.1140569284,108832.0
63483.12405484178,108870.0
63483.13405275516,108850.0
63483.14405066854,108887.0
63483.15404858191,108853.0
63483.164046495294,108885.0
63483.174044408675,108869.0
63483.18404232205,108917.0
63483.19404023543,108873.0
63483.20403814881,108906.0
63483.214036062185,108872.0
63483.224033975566,108898.0
63483.23403188895,108888.0
63483.24402980232,108903.0
63483.2540277157,108885.0
63483.26402562908,108899.0
63483.27402354246,108932.0
63483.28402145584,108899.0
63483.29401936922,108922.0
63483.30401728259,108915.0
63483.314015195974,108922.0
63483.324013109355,108895.0
63483.33401102273,108903.0
63483.34400893611,108910.0
63483.35400684949,108892.0
63483.364004762865,108909.0
63483.374002676246,108904.0
63483.38400058963,108903.0
63483.393998503,108903.0
63483.40399641638,108925.0
63483.41399432976,108920.0
63483.42399224314,108901.0
63483.43399015652,108917.0
63483.4439880699,108927.0
63483.45398598327,108928.0
63483.463983896654,108962.0
63483.473981810035,108947.0
63483.48397972341,108945.0
63483.49397763679,108936.0
63483.50397555017,108902.0
63483.513973463545,108973.0
63483.523971376926,108958.0
63483.53396929031,108938.0
63483.54396720368,108922.0
63483.55396511706,108951.0
63483.56396303044,108961.0
63483.57396094382,108975.0
63483.5839588572,108958.0
63483.59395677058,109003.0
63483.60395468395,108970.0
63483.613952597334,108975.0
63483.623950510715,109004.0
63483.63394842409,108992.0
63483.64394633747,108994.0
63483.65394425085,108971.0
63483.663942164225,108994.0
63483.673940077606,108947.0
63483.68393799099,109006.0
63483.69393590437,108988.0
63483.70393381774,109015.0
63483.71393173112,108980.0
63483.723929644504,108997.0
63483.73392755788,108996.0
63483.74392547126,108983.0
63483.75392338464,109011.0
63483.763921298014,108983.0
63483.773919211395,108984.0
63483.783917124776,109009.0
63483.79391503815,109023.0
63483.80391295153,109027.0
63483.81391086491,109027.0
63483.823908778286,109022.0
63483.83390669167,109016.0
63483.84390460505,109044.0
63483.85390251842,109047.0
63483.8639004318,109012.0
63483.873898345184,109006.0
63483.88389625856,109052.0
63483.89389417194,109016.0
63483.90389208532,108975.0
63483.913889998694,108991.0
63483.923887912075,108949.0
63483.933885825456,108956.0
63483.94388373883,108953.0
63483.95388165221,108922.0
63483.96387956559,108933.0
63483.973877478966,108912.0
63483.98387539235,108889.0
63483.99387330573,108912.0
63484.0038712191,108892.0
63484.01386913248,108903.0
63484.023867045864,108869.0
63484.03386495924,108859.0
63484.04386287262,108875.0
63484.053860786,108872.0
63484.063858699374,108891.0
63484.073856612755,108869.0
63484.083854526136,108863.0
63484.09385243951,108902.0
63484.10385035289,108877.0
63484.11384826627,108919.0
63484.123846179646,108903.0
63484.13384409303,108897.0
63484.14384200641,108900.0
63484.15383991978,108897.0
63484.16383783316,108900.0
63484.173835746544,108909.0
63484.18383365992,108928.0
63484.1938315733,108859.0
63484.20382948668,108929.0
63484.21382740005,108909.0
63484.223825313435,108887.0
63484.233823226816,108928.0
63484.24382114019,108900.0
63484.25381905357,108919.0
63484.26381696695,108927.0
63484.27381488033,108884.0
63484.28381279371,108930.0
63484.29381070709,108916.0
63484.30380862047,108893.0
63484.31380653384,108911.0
63484.323804447224,108939.0
63484.333802360605,108902.0
63484.34380027398,108931.0
63484.35379818736,108904.0
63484.36379610074,108918.0
63484.373794014115,108952.0
63484.383791927496,108927.0
63484.39378984088,108927.0
63484.40378775425,108962.0
63484.41378566763,108944.0
63484.42378358101,108944.0
63484.43378149439,108965.0
63484.44377940777,108928.0
63484.45377732115,108962.0
63484.46377523452,108944.0
63484.4737731479,108942.0
63484.483771061285,108960.0
63484.49376897466,108973.0
63484.50376688804,108955.0
63484.51376480142,108975.0
63484.523762714794,108989.0
63484.533760628176,108944.0
63484.54375854156,108980.0
63484.55375645493,108980.0
63484.56375436831,108954.0
63484.57375228169,108973.0
63484.58375019507,108981.0
63484.59374810845,108957.0
63484.60374602183,108970.0
63484.6137439352,108968.0
63484.62374184858,108992.0
63484.633739761965,109004.0
63484.64373767534,108979.0
63484.65373558872,109004.0
63484.6637335021,108980.0
63484.673731415474,109011.0
63484.683729328855,108993.0
63484.69372724224,109018.0
63484.70372515561,108990.0
63484.71372306899,108959.0
63484.72372098237,108999.0
63484.733718895746,108965.0
63484.74371680913,109018.0
63484.75371472251,109002.0
63484.76371263588,109002.0
63484.77371054926,109007.0
63484.783708462644,109022.0
63484.79370637602,109015.0
63484.8037042894,109018.0
63484.81370220278,109036.0
63484.82370011616,109011.0
63484.833698029535,109017.0
63484.84369594292,109016.0
63484.8536938563,108982.0
63484.86369176967,108975.0
63484.87368968305,108990.0
63484.88368759643,108943.0
63484.89368550981,108951.0
63484.90368342319,108924.0
63484.91368133657,108892.0
63484.92367924994,108925.0
63484.933677163324,108865.0
63484.943675076705,108892.0
63484.95367299008,108871.0
63484.96367090346,108855.0
63484.97366881684,108907.0
63484.983666730215,108887.0
63484.993664643596,108873.0
63485.00366255698,108867.0
63485.01366047035,108918.0
63485.02365838373,108870.0
63485.03365629711,108906.0
63485.04365421049,108907.0
63485.05365212387,108907.0
63485.06365003725,108916.0
63485.07364795062,108910.0
63485.083645864004,108890.0
63485.093643777385,108925.0
63485.10364169076,108913.0
63485.11363960414,108896.0
63485.12363751752,108907.0
63485.133635430895,108930.0
63485.143633344276,108919.0
63485.15363125766,108905.0
63485.16362917103,108901.0
63485.17362708441,108944.0
63485.18362499779,108934.0
63485.19362291117,108915.0
63485.20362082455,108897.0
63485.21361873793,108934.0
63485.2236166513,108915.0
63485.233614564684,108908.0
63485.243612478065,108930.0
63485.25361039144,108905.0
63485.26360830482,108944.0
63485.2736062182,108932.0
63485.283604131575,108904.0
63485.293602044956,108892.0
63485.30359995834,108957.0
63485.31359787171,108930.0
63485.32359578509,108972.0
63485.33359369847,108972.0
63485.34359161185,108924.0
63485.35358952523,108949.0
63485.36358743861,108977.0
63485.37358535198,108908.0
63485.383583265364,108940.0
63485.393581178745,108958.0
63485.40357909212,108957.0
63485.4135770055,108965.0
63485.42357491888,108975.0
63485.43357283226,108973.0
63485.443570745636,108942.0
63485.45356865902,108964.0
63485.4635665724,108980.0
63485.47356448577,108962.0
63485.48356239915,108962.0
63485.493560312534,108970.0
63485.50355822591,108997.0
63485.51355613929,108975.0
63485.52355405267,108986.0
63485.533551966044,108987.0
63485.543549879425,108964.0
63485.553547792806,108987.0
63485.56354570618,108976.0
63485.57354361956,108973.0
63485.58354153294,109006.0
63485.593539446316,108995.0
63485.6035373597,109001.0
63485.61353527308,108970.0
63485.62353318645,109010.0
63485.63353109983,108963.0
63485.643529013214,109001.0
63485.65352692659,109025.0
63485.66352483997,109023.0
63485.67352275335,109003.0
63485.683520666724,109032.0
63485.693518580105,109012.0
63485.703516493486,108989.0
63485.71351440686,109047.0
63485.72351232024,109018.0
63485.73351023362,109046.0
63485.743508146996,109019.0
63485.75350606038,109018.0
63485.76350397376,109044.0
63485.77350188713,108988.0
63485.78349980051,108990.0
63485.793497713894,109008.0
63485.80349562727,109000.0
63485.81349354065,108955.0
63485.82349145403,108970.0
63485.833489367404,108989.0
63485.843487280785,108958.0
63485.853485194166,108971.0
63485.86348310754,108938.0
63485.87348102092,108935.0
63485.8834789343,108916.0
63485.893476847676,108919.0
63485.90347476106,108903.0
63485.91347267444,108889.0
63485.92347058781,108910.0
63485.93346850119,108920.0
63485.943466414574,108897.0
63485.95346432795,108896.0
63485.96346224133,108907.0
63485.97346015471,108936.0
63485.98345806809,108904.0
63485.993455981465,108910.0
63486.003453894846,108922.0
63486.01345180823,108931.0
63486.0234497216,108947.0
63486.03344763498,108887.0
63486.04344554836,108926.0
63486.05344346174,108905.0
63486.06344137512,108957.0
63486.0734392885,108953.0
63486.08343720187,108934.0
63486.093435115254,108903.0
63486.103433028635,108949.0
63486.11343094201,108934.0
63486.12342885539,108946.0
63486.13342676877,108941.0
63486.143424682145,108966.0
63486.153422595526,108918.0
63486.16342050891,108930.0
63486.17341842228,108950.0
63486.18341633566,108928.0
63486.19341424904,108919.0
63486.20341216242,108943.0
63486.2134100758,108940.0
63486.22340798918,108913.0
63486.23340590255,108919.0
63486.24340381593,108945.0
63486.253401729315,108961.0
63486.26339964269,108959.0
63486.27339755607,108948.0
63486.28339546945,108957.0
63486.293393382824,108910.0
63486.303391296206,108966.0
63486.31338920959,108949.0
63486.32338712296,108950.0
63486.33338503634,108986.0
63486.34338294972,108993.0
63486.3533808631,108994.0
63486.36337877648,108959.0
63486.37337668986,108992.0
63486.38337460323,108974.0
63486.39337251661,108955.0
63486.403370429995,108951.0
63486.41336834337,108972.0
63486.42336625675,108988.0
63486.43336417013,108958.0
63486.443362083504,108975.0
63486.453359996885,108984.0
63486.46335791027,108956.0
63486.47335582364,108965.0
63486.48335373702,108976.0
63486.4933516504,108989.0
63486.503349563776,108977.0
63486.51334747716,108956.0
63486.52334539054,109008.0
63486.53334330391,108987.0
63486.54334121729,108976.0
63486.553339130674,108970.0
63486.56333704405,108945.0
63486.57333495743,108986.0
63486.58333287081,109018.0
63486.59333078419,109011.0
63486.603328697565,108998.0
63486.61332661095,109008.0
63486.62332452433,109027.0
63486.6333224377,108987.0
63486.64332035108,109032.0
63486.65331826446,109013.0
63486.66331617784,109014.0
63486.67331409122,109046.0
63486.6833120046,109049.0
63486.69330991797,109016.0
63486.703307831354,109018.0
63486.713305744735,109030.0
63486.72330365811,108985.0
63486.73330157149,109000.0
63486.74329948487,109006.0
63486.753297398245,108960.0
63486.763295311626,108987.0
63486.77329322501,108947.0
63486.78329113838,108934.0
63486.79328905176,108926.0
63486.80328696514,108902.0
63486.81328487852,108927.0
63486.8232827919,108937.0
63486.83328070528,108906.0
63486.84327861865,108942.0
63486.853276532034,108928.0
63486.863274445415,108916.0
63486.87327235879,108923.0
63486.88327027217,108905.0
63486.89326818555,108931.0
63486.903266098925,108946.0
63486.913264012306,108915.0
63486.92326192569,108929.0
63486.93325983906,108941.0
63486.94325775244,108945.0
63486.95325566582,108975.0
63486.9632535792,108926.0
63486.97325149258,108945.0
63486.98324940596,108921.0
63486.99324731933,108986.0
63487.003245232714,108949.0
63487.013243146095,108947.0
63487.02324105947,108961.0
63487.03323897285,108949.0
63487.04323688623,108908.0
63487.053234799605,108919.0
63487.063232712986,108956.0
63487.07323062637,108977.0
63487.08322853974,108943.0
63487.09322645312,108998.0
63487.1032243665,108962.0
63487.11322227988,108967.0
63487.12322019326,108967.0
63487.13321810664,108962.0
63487.14321602002,108961.0
63487.153213933394,108957.0
63487.163211846775,109006.0
63487.173209760156,108958.0
63487.18320767353,108984.0
63487.19320558691,108978.0
63487.20320350029,108967.0
63487.213201413666,108950.0
63487.22319932705,108963.0
63487.23319724043,108966.0
63487.2431951538,108985.0
63487.25319306718,108985.0
63487.263190980564,109001.0
63487.27318889394,108993.0
63487.28318680732,109034.0
63487.2931847207,109024.0
63487.303182634074,109005.0
63487.313180547455,109009.0
63487.323178460836,108985.0
63487.33317637421,108993.0
63487.34317428759,109014.0
63487.35317220097,109003.0
63487.363170114346,109032.0
63487.37316802773,108991.0
63487.38316594111,109011.0
63487.39316385448,109038.0
63487.40316176786,108990.0
63487.413159681244,109016.0
63487.42315759462,109018.0
63487.433155508,109018.0
63487.44315342138,109021.0
63487.453151334754,109018.0
63487.463149248135,109023.0
63487.473147161516,109007.0
63487.48314507489,109004.0
63487.49314298827,109012.0
63487.50314090165,109015.0
63487.513138815026,109060.0
63487.52313672841,109012.0
63487.53313464179,109028.0
63487.54313255516,109028.0
63487.55313046854,109009.0
63487.563128381924,108992.0
63487.5731262953,109018.0
63487.58312420868,109035.0
63487.59312212206,109047.0
63487.603120035434,109028.0
63487.613117948815,109037.0
63487.623115862196,109034.0
63487.63311377557,109014.0
63487.64311168895,109014.0
63487.65310960233,109042.0
63487.663107515706,108992.0
63487.67310542909,108948.0
63487.68310334247,108989.0
63487.69310125584,108950.0
63487.70309916922,108941.0
63487.713097082604,108934.0
63487.72309499598,108907.0
63487.73309290936,108943.0
63487.74309082274,108915.0
63487.75308873612,108942.0
63487.763086649495,108936.0
63487.773084562876,108905.0
63487.78308247626,108918.0
63487.79308038963,108905.0
63487.80307830301,108948.0
63487.81307621639,108908.0
63487.82307412977,108903.0
63487.83307204315,108914.0
63487.84306995653,108898.0
63487.8530678699,108929.0
63487.863065783284,108898.0
63487.873063696665,108918.0
63487.88306161004,108951.0
63487.89305952342,108905.0
63487.9030574368,108914.0
63487.913055350175,108939.0
63487.923053263556,108953.0
63487.93305117694,108929.0
63487.94304909031,108914.0
63487.95304700369,108940.0
63487.96304491707,108937.0
63487.97304283045,108951.0
63487.98304074383,108915.0
63487.99303865721,108932.0
63488.00303657058,108929.0
63488.01303448396,108922.0
63488.023032397345,108951.0
63488.03303031072,108925.0
63488.0430282241,108917.0
63488.05302613748,108964.0
63488.063024050854,108925.0
63488.073021964236,108943.0
63488.08301987762,108908.0
63488.09301779099,108972.0
63488.10301570437,108962.0
63488.11301361775,108956.0
63488.12301153113,108943.0
63488.13300944451,108969.0
63488.14300735789,108953.0
63488.15300527126,108941.0
63488.16300318464,108937.0
63488.173001098025,108976.0
63488.1829990114,108961.0
63488.19299692478,108972.0
63488.20299483816,108986.0
63488.212992751534,108964.0
63488.222990664915,108992.0
63488.2329885783,108978.0
63488.24298649167,108956.0
63488.25298440505,108966.0
63488.26298231843,108987.0
63488.272980231806,108986.0
63488.28297814519,108976.0
63488.29297605857,109003.0
63488.30297397195,108965.0
63488.31297188532,108991.0
63488.322969798704,108990.0
63488.332967712086,109003.0
63488.34296562546,109026.0
63488.35296353884,108987.0
63488.36296145222,108996.0
63488.372959365595,108999.0
63488.38295727898,109005.0
63488.39295519236,108997.0
63488.40295310573,108991.0
63488.41295101911,108998.0
63488.42294893249,108964.0
63488.43294684587,108991.0
63488.44294475925,109010.0
63488.45294267263,109013.0
63488.462940586,109029.0
63488.472938499384,108996.0
63488.482936412765,109029.0
63488.49293432614,109035.0
63488.50293223952,109017.0
63488.5129301529,109028.0
63488.522928066275,109022.0
63488.532925979656,109029.0
63488.54292389304,109019.0
63488.55292180641,109037.0
63488.56291971979,109017.0
63488.57291763317,109003.0
63488.58291554655,109062.0
63488.59291345993,108994.0
63488.60291137331,109006.0
63488.61290928668,109022.0
63488.622907200064,108958.0
63488.632905113445,108976.0
63488.64290302682,108957.0
63488.6529009402,108943.0
63488.66289885358,108952.0
63488.672896766955,108913.0
63488.682894680336,108924.0
63488.69289259372,108919.0
63488.70289050709,108925.0
63488.71288842047,108930.0
63488.72288633385,108918.0
63488.73288424723,108904.0
63488.74288216061,108912.0
63488.75288007399,108900.0
63488.76287798736,108922.0
63488.772875900744,108891.0
63488.782873814125,108932.0
63488.7928717275,108912.0
63488.80286964088,108912.0
63488.81286755426,108925.0
63488.822865467635,108893.0
63488.832863381016,108937.0
63488.8428612944,108934.0
63488.85285920777,108977.0
63488.86285712115,108949.0
63488.87285503453,108955.0
63488.88285294791,108935.0
63488.89285086129,108925.0
63488.90284877467,108941.0
63488.91284668805,108909.0
63488.922844601424,108934.0
63488.932842514805,108952.0
63488.942840428186,108934.0
63488.95283834156,108955.0
63488.96283625494,108930.0
63488.97283416832,108900.0
63488.982832081696,108939.0
63488.99282999508,108941.0
63489.00282790846,108952.0
63489.01282582183,108925.0
63489.02282373521,108976.0
63489.032821648594,108957.0
63489.04281956197,108961.0
63489.05281747535,108931.0
63489.06281538873,108989.0
63489.072813302104,108956.0
63489.082811215485,108944.0
63489.092809128866,108950.0
63489.10280704224,108959.0
63489.11280495562,108952.0
63489.122802869,108969.0
63489.132800782376,108973.0
63489.14279869576,108959.0
63489.15279660914,108989.0
63489.16279452251,108955.0
63489.17279243589,108975.0
63489.182790349274,108955.0
63489.19278826265,108991.0
63489.20278617603,108972.0
63489.21278408941,108991.0
63489.222782002784,108976.0
63489.232779916165,108950.0
63489.242777829546,109010.0
63489.25277574292,108986.0
63489.2627736563,108991.0
63489.27277156968,108977.0
63489.282769483056,108998.0
63489.29276739644,109000.0
63489.30276530982,108985.0
63489.31276322319,109005.0
63489.32276113657,108970.0
63489.332759049954,108998.0
63489.34275696333,109018.0
63489.35275487671,108971.0
63489.36275279009,109004.0
63489.372750703464,109003.0
63489.382748616845,109023.0
63489.392746530226,109019.0
63489.4027444436,108980.0
63489.41274235698,109021.0
63489.42274027036,108973.0
63489.432738183736,109041.0
63489.44273609712,109026.0
63489.4527340105,108999.0
63489.46273192388,108982.0
63489.47272983725,109015.0
63489.482727750634,109030.0
63489.492725664015,109020.0
63489.50272357739,109021.0
63489.51272149077,109044.0
63489.52271940415,109064.0
63489.532717317525,109021.0
63489.542715230906,109010.0
63489.55271314429,109000.0
63489.56271105766,108988.0
63489.57270897104,108967.0
63489.58270688442,108983.0
63489.5927047978,108938.0
63489.60270271118,108949.0
63489.61270062456,108937.0
63489.62269853793,108917.0
63489.632696451314,108933.0
63489.642694364695,108924.0
63489.65269227807,108924.0
63489.66269019145,108933.0
63489.67268810483,108906.0
63489.682686018205,108898.0
63489.692683931586,108927.0
63489.70268184497,108909.0
63489.71267975834,108940.0
63489.72267767172,108904.0
63489.7326755851,108904.0
63489.74267349848,108892.0
63489.75267141186,108902.0
63489.76266932524,108899.0
63489.77266723861,108948.0
63489.78266515199,108928.0
63489.792663065375,108937.0
63489.80266097875,108956.0
63489.81265889213,108906.0
63489.82265680551,108938.0
63489.832654718884,108902.0
63489.842652632266,108953.0
63489.85265054565,108953.0
63489.86264845902,108920.0
63489.8726463724,108884.0
63489.88264428578,108916.0
63489.89264219916,108898.0
63489.90264011254,108927.0
63489.91263802592,108952.0
63489.92263593929,108920.0
63489.93263385267,108917.0
63489.942631766055,108939.0
63489.95262967943,108933.0
63489.96262759281,108956.0
63489.97262550619,108955.0
63489.982623419564,108952.0
63489.992621332945,108971.0
63490.00261924633,108938.0
63490.0126171597,108975.0
63490.02261507308,108948.0
63490.03261298646,108965.0
63490.042610899836,108964.0
63490.05260881322,108964.0
63490.0626067266,108961.0
63490.07260463998,108951.0
63490.08260255335,108941.0
63490.092600466734,108960.0
63490.102598380116,108966.0
63490.11259629349,108951.0
63490.12259420687,108967.0
63490.13259212025,108963.0
63490.142590033625,108950.0
63490.15258794701,108970.0
63490.16258586039,108952.0
63490.17258377376,108985.0
63490.18258168714,108976.0
63490.19257960052,108981.0
63490.2025775139,108966.0
63490.21257542728,108967.0
63490.22257334066,108992.0
63490.23257125403,108987.0
63490.242569167414,108942.0
63490.252567080795,108975.0
63490.26256499417,108983.0
63490.27256290755,108985.0
63490.28256082093,108994.0
63490.292558734305,108959.0
63490.302556647686,108982.0
63490.31255456107,109013.0
63490.32255247444,108979.0
63490.33255038782,109002.0
63490.3425483012,109003.0
63490.35254621458,109012.0
63490.36254412796,109019.0
63490.37254204134,108981.0
63490.38253995471,109015.0
63490.392537868094,109010.0
63490.402535781475,109005.0
63490.41253369485,108967.0
63490.42253160823,109022.0
63490.43252952161,108999.0
63490.442527434985,108951.0
63490.452525348366,108991.0
63490.46252326175,108944.0
63490.47252117512,108939.0
63490.4825190885,108909.0
63490.49251700188,108924.0
63490.50251491526,108935.0
63490.51251282864,108938.0
63490.52251074202,108897.0
63490.53250865539,108909.0
63490.542506568774,108935.0
63490.552504482155,108911.0
63490.56250239553,108913.0
63490.57250030891,108886.0
63490.58249822229,108889.0
63490.592496135665,108907.0
63490.602494049046,108930.0
63490.61249196243,108908.0
63490.62248987581,108929.0
63490.63248778918,108923.0
63490.64248570256,108893.0
63490.652483615944,108909.0
63490.66248152932,108902.0
63490.6724794427,108926.0
63490.68247735608,108924.0
63490.692475269454,108936.0
63490.702473182835,108931.0
63490.712471096216,108940.0
63490.72246900959,108937.0
63490.73246692297,108946.0
63490.74246483635,108919.0
63490.752462749726,108929.0
63490.76246066311,108916.0
63490.77245857649,108956.0
63490.78245648986,108927.0
63490.79245440324,108939.0
63490.802452316624,108962.0
63490.81245023,108914.0
63490.82244814338,108926.0
63490.83244605676,108933.0
63490.842443970134,108952.0
63490.852441883515,108946.0
63490.862439796896,108953.0
63490.87243771027,108958.0
63490.88243562365,108952.0
63490.89243353703,108945.0
63490.902431450406,108969.0
63490.91242936379,108958.0
63490.92242727717,108926.0
63490.93242519054,108956.0
63490.94242310392,108973.0
63490.952421017304,108968.0
63490.96241893068,108948.0
63490.97241684406,109006.0
63490.98241475744,108958.0
63490.992412670814,108976.0
63491.002410584195,108947.0
63491.012408497576,108980.0
63491.02240641095,108998.0
63491.03240432433,108982.0
63491.04240223771,108973.0
63491.052400151086,109007.0
63491.06239806447,108996.0
63491.07239597785,108964.0
63491.08239389122,108974.0
63491.0923918046,108962.0
63491.102389717984,108954.0
63491.11238763136,109002.0
63491.12238554474,108993.0
63491.13238345812,108987.0
63491.142381371494,109025.0
63491.152379284875,109002.0
63491.162377198256,109017.0
63491.17237511163,108993.0
63491.18237302501,108998.0
63491.19237093839,109029.0
63491.202368851766,109050.0
63491.21236676515,109017.0
63491.22236467853,109029.0
63491.23236259191,109029.0
63491.24236050528,109026.0
63491.252358418664,109013.0
63491.262356332045,109056.0
63491.27235424542,109023.0
63491.2823521588,109044.0
63491.29235007218,109052.0
63491.302347985555,109029.0
63491.312345898936,109066.0
63491.32234381232,109027.0
63491.33234172569,108968.0
63491.34233963907,109028.0
63491.35233755245,108993.0
63491.36233546583,108994.0
63491.37233337921,108981.0
63491.38233129259,108945.0
63491.39232920596,108972.0
63491.402327119344,108943.0
63491.412325032725,108915.0
63491.4223229461,108910.0
63491.43232085948,108938.0
63491.44231877286,108920.0
63491.452316686235,108902.0
63491.462314599616,108947.0
63491.472312513,108865.0
63491.48231042637,108888.0
63491.49230833975,108891.0
63491.50230625313,108909.0
63491.51230416651,108890.0
63491.52230207989,108902.0
63491.53229999327,108903.0
63491.54229790664,108911.0
63491.55229582002,108915.0
63491.562293733405,108891.0
63491.57229164678,108898.0
63491.58228956016,108919.0
63491.59228747354,108906.0
63491.602285386914,108908.0
63491.612283300296,108935.0
63491.62228121368,108865.0
63491.63227912705,108940.0
63491.64227704043,108919.0
63491.65227495381,108925.0
63491.66227286719,108926.0
63491.67227078057,108891.0
63491.68226869395,108918.0
63491.69226660732,108932.0
63491.7022645207,108873.0
63491.712262434085,108903.0
63491.72226034746,108902.0
63491.73225826084,108884.0
63491.74225617422,108902.0
63491.752254087594,108931.0
63491.762252000975,108912.0
63491.77224991436,108930.0
63491.78224782774,108953.0
63491.79224574111,108926.0
63491.80224365449,108964.0
63491.81224156787,108932.0
63491.82223948125,108933.0
63491.83223739463,108972.0
63491.84223530801,108942.0
63491.85223322138,108943.0
63491.862231134764,108939.0
63491.872229048146,108926.0
63491.88222696152,108966.0
63491.8922248749,108943.0
63491.90222278828,108936.0
63491.912220701655,108946.0
63491.92221861504,108959.0
63491.93221652842,108958.0
63491.94221444179,108936.0
63491.95221235517,108984.0
63491.96221026855,108947.0
63491.97220818193,108953.0
63491.98220609531,108974.0
63491.99220400869,108927.0
63492.00220192206,108967.0
63492.012199835444,108955.0
63492.022197748825,108944.0
63492.0321956622,108938.0
63492.04219357558,108973.0
63492.05219148896,108961.0
63492.062189402335,108977.0
63492.072187315716,108965.0
63492.0821852291,108966.0
63492.09218314247,108965.0
63492.10218105585,108949.0
63492.11217896923,108965.0
63492.12217688261,109020.0
63492.13217479599,108994.0
63492.14217270937,108977.0
63492.15217062274,109003.0
63492.162168536124,108974.0
63492.172166449505,108998.0
63492.18216436288,108981.0
63492.19216227626,108987.0
63492.20216018964,109006.0
63492.212158103015,109001.0
63492.222156016396,108976.0
63492.23215392978,108997.0
63492.24215184315,109022.0
63492.25214975653,108999.0
63492.26214766991,108966.0
63492.27214558329,108980.0
63492.28214349667,108944.0
63492.29214141005,108938.0
63492.30213932342,108943.0
63492.312137236804,108901.0
63492.322135150185,108934.0
63492.33213306356,108904.0
63492.34213097694,108888.0
63492.35212889032,108916.0
63492.362126803695,108908.0
63492.372124717076,108893.0
63492.38212263046,108888.0
63492.39212054384,108917.0
63492.40211845721,108906.0
63492.41211637059,108892.0
63492.422114283974,108859.0
63492.43211219735,108878.0
63492.44211011073,108896.0
63492.45210802411,108853.0
63492.462105937484,108883.0
63492.472103850865,108899.0
63492.482101764246,108900.0
63492.49209967762,108913.0
63492.502097591,108904.0
63492.51209550438,108882.0
63492.522093417756,108931.0
63492.53209133114,108889.0
63492.54208924452,108897.0
63492.55208715789,108889.0
63492.56208507127,108916.0
63492.572082984654,108903.0
63492.58208089803,108897.0
63492.59207881141,108892.0
63492.60207672479,108875.0
63492.612074638164,108908.0
63492.622072551545,108904.0
63492.632070464926,108910.0
63492.6420683783,108925.0
63492.65206629168,108895.0
63492.66206420506,108896.0
63492.672062118436,108907.0
63492.68206003182,108914.0
63492.6920579452,108918.0
63492.70205585857,108914.0
63492.71205377195,108924.0
63492.722051685334,108910.0
63492.73204959871,108901.0
63492.74204751209,108931.0
63492.75204542547,108926.0
63492.762043338844,108961.0
63492.772041252225,108917.0
63492.782039165606,108932.0
63492.79203707898,108974.0
63492.80203499236,108922.0
63492.81203290574,108956.0
63492.822030819116,108945.0
63492.8320287325,108912.0
63492.84202664588,108956.0
63492.85202455925,108951.0
63492.86202247263,108953.0
63492.872020386014,108927.0
63492.88201829939,108944.0
63492.89201621277,108942.0
63492.90201412615,108955.0
63492.912012039524,108951.0
63492.922009952905,108935.0
63492.932007866286,108973.0
63492.94200577967,108956.0
63492.95200369304,108981.0
63492.96200160642,108951.0
63492.9719995198,108941.0
63492.98199743318,108968.0
63492.99199534656,108980.0
63493.00199325994,108985.0
63493.01199117331,108970.0
63493.021989086694,108969.0
63493.031987000075,108963.0
63493.04198491345,108973.0
63493.05198282683,109001.0
63493.06198074021,108991.0
63493.071978653585,108969.0
63493.081976566966,108963.0
63493.09197448035,108959.0
63493.10197239372,108944.0
63493.1119703071,109006.0
63493.12196822048,108964.0
63493.13196613386,109009.0
63493.14196404724,109019.0
63493.15196196062,108993.0
63493.16195987399,109024.0
63493.171957787374,109017.0
63493.181955700755,108974.0
63493.19195361413,108982.0
63493.20195152751,108926.0
63493.21194944089,108961.0
63493.221947354265,108950.0
63493.231945267646,108949.0
63493.24194318103,108923.0
63493.2519410944,108890.0
63493.26193900778,108898.0
63493.27193692116,108899.0
63493.28193483454,108880.0
63493.29193274792,108921.0
63493.3019306613,108913.0
63493.31192857467,108887.0
63493.32192648805,108907.0
63493.331924401435,108918.0
63493.34192231481,108907.0
63493.35192022819,108886.0
63493.36191814157,108901.0
63493.371916054944,108888.0
63493.381913968326,108908.0
63493.39191188171,108874.0
63493.40190979508,108889.0
63493.41190770846,108894.0
63493.42190562184,108873.0
63493.43190353522,108894.0
63493.4419014486,108878.0
63493.45189936198,108873.0
63493.46189727535,108904.0
63493.47189518873,108894.0
63493.481893102115,108902.0
63493.49189101549,108917.0
63493.50188892887,108916.0
63493.51188684225,108895.0
63493.521884755624,108865.0
63493.531882669005,108873.0
63493.54188058239,108886.0
63493.55187849577,108895.0
63493.56187640914,108912.0
63493.57187432252,108896.0
63493.5818722359,108935.0
63493.59187014928,108869.0
63493.60186806266,108885.0
63493.61186597604,108851.0
63493.62186388941,108908.0
63493.631861802794,108915.0
63493.641859716176,108923.0
63493.65185762955,108925.0
63493.66185554293,108890.0
63493.67185345631,108913.0
63493.681851369685,108908.0
63493.69184928307,108921.0
63493.70184719645,108957.0
63493.71184510982,108924.0
63493.7218430232,108941.0
63493.73184093658,108941.0
63493.74183884996,108930.0
63493.75183676334,108929.0
63493.76183467672,108943.0
63493.77183259009,108968.0
63493.781830503474,108899.0
63493.791828416855,108954.0
63493.80182633023,108939.0
63493.81182424361,108919.0
63493.82182215699,108940.0
63493.831820070365,108936.0
63493.841817983746,108943.0
63493.85181589713,108956.0
63493.8618138105,108901.0
63493.87181172388,108970.0
63493.88180963726,108939.0
63493.89180755064,108915.0
63493.90180546402,108955.0
63493.9118033774,108968.0
63493.92180129077,108955.0
63493.931799204154,108952.0
63493.941797117535,108945.0
63493.95179503091,108955.0
63493.96179294429,108957.0
63493.97179085767,108976.0
63493.981788771045,108949.0
63493.991786684426,108968.0
63494.00178459781,108961.0
63494.01178251118,108940.0
63494.02178042456,108937.0
63494.03177833794,108934.0
63494.04177625132,108973.0
63494.0517741647,108984.0
63494.06177207808,108975.0
63494.07176999145,108968.0
63494.081767904834,108969.0
63494.091765818215,108958.0
63494.101763731596,108953.0
63494.11176164497,108986.0
63494.12175955835,108958.0
63494.13175747173,108892.0
63494.141755385106,108908.0
63494.15175329849,108907.0
63494.16175121187,108907.0
63494.17174912524,108895.0
63494.18174703862,108876.0
63494.191744952004,108856.0
63494.20174286538,108885.0
63494.21174077876,108899.0
63494.22173869214,108885.0
63494.231736605514,108888.0
63494.241734518895,108881.0
63494.251732432276,108884.0
63494.26173034565,108874.0
63494.27172825903,108843.0
63494.28172617241,108880.0
63494.291724085786,108900.0
63494.30172199917,108856.0
63494.31171991255,108898.0
63494.32171782592,108886.0
63494.3317157393,108883.0
63494.341713652684,108903.0
63494.35171156606,108880.0
63494.36170947944,108890.0
63494.37170739282,108869.0
63494.381705306194,108909.0
63494.391703219575,108892.0
63494.401701132956,108882.0
63494.41169904633,108873.0
63494.42169695971,108869.0
63494.43169487309,108910.0
63494.441692786466,108891.0
63494.45169069985,108892.0
63494.46168861323,108898.0
63494.4716865266,108889.0
63494.48168443998,108897.0
63494.491682353364,108903.0
63494.50168026674,108886.0
63494.51167818012,108905.0
63494.5216760935,108911.0
63494.531674006874,108902.0
63494.541671920255,108871.0
63494.551669833636,108907.0
63494.56166774701,108900.0
63494.57166566039,108918.0
63494.58166357377,108907.0
63494.591661487146,108895.0
63494.60165940053,108927.0
63494.61165731391,108927.0
63494.62165522728,108933.0
63494.63165314066,108936.0
63494.641651054044,108887.0
63494.65164896742,108922.0
63494.6616468808,108932.0
63494.67164479418,108935.0
63494.68164270756,108900.0
63494.691640620935,108937.0
63494.701638534316,108948.0
63494.7116364477,108905.0
63494.72163436107,108950.0
63494.73163227445,108931.0
63494.74163018783,108936.0
63494.75162810121,108973.0
63494.76162601459,108928.0
63494.77162392797,108948.0
63494.78162184134,108940.0
63494.791619754724,108919.0
63494.801617668105,108954.0
63494.81161558148,108954.0
63494.82161349486,108944.0
63494.83161140824,108951.0
63494.841609321615,108974.0
63494.851607234996,108961.0
63494.86160514838,108953.0
63494.87160306175,108990.0
63494.88160097513,108942.0
63494.89159888851,108981.0
63494.90159680189,108992.0
63494.91159471527,108949.0
63494.92159262865,108981.0
63494.93159054202,108984.0
63494.941588455404,108965.0
63494.951586368785,108953.0
63494.96158428216,109017.0
63494.97158219554,109000.0
63494.98158010892,108967.0
63494.991578022295,109020.0
63495.001575935676,108959.0
63495.01157384906,108985.0
63495.02157176243,108982.0
63495.03156967581,108971.0
63495.04156758919,108987.0
63495.05156550257,108913.0
63495.06156341595,108881.0
63495.07156132933,108900.0
63495.0815592427,108914.0
63495.09155715608,108899.0
63495.101555069465,108891.0
63495.11155298284,108905.0
63495.12155089622,108868.0
63495.1315488096,108862.0
63495.141546722974,108873.0
63495.151544636356,108885.0
63495.16154254974,108897.0
63495.17154046311,108849.0
63495.18153837649,108852.0
63495.19153628987,108874.0
63495.20153420325,108852.0
63495.21153211663,108884.0
63495.22153003001,108884.0
63495.23152794338,108872.0
63495.24152585676,108865.0
63495.251523770145,108860.0
63495.261521683526,108882.0
63495.2715195969,108882.0
63495.28151751028,108913.0
63495.29151542366,108849.0
63495.301513337035,108895.0
63495.31151125042,108891.0
63495.3215091638,108871.0
63495.33150707717,108891.0
63495.34150499055,108882.0
63495.35150290393,108880.0
63495.36150081731,108901.0
63495.37149873069,108884.0
63495.38149664407,108902.0
63495.39149455744,108887.0
63495.401492470824,108897.0
63495.411490384206,108895.0
63495.42148829758,108905.0
63495.43148621096,108927.0
63495.44148412434,108876.0
63495.451482037715,108881.0
63495.4614799511,108901.0
63495.47147786448,108880.0
63495.48147577785,108929.0
63495.49147369123,108901.0
63495.50147160461,108918.0
63495.51146951799,108917.0
63495.52146743137,108899.0
63495.53146534475,108929.0
63495.54146325812,108918.0
63495.551461171504,108996.0
63495.561459084885,108953.0
63495.57145699826,108942.0
63495.58145491164,108899.0
63495.59145282502,108921.0
63495.601450738395,108918.0
63495.611448651776,108903.0
63495.62144656516,108939.0
63495.63144447853,108958.0
63495.64144239191,108916.0
63495.65144030529,108980.0
63495.66143821867,108944.0
63495.67143613205,108924.0
63495.68143404543,108932.0
63495.6914319588,108940.0
63495.701429872184,108948.0
63495.711427785565,108943.0
63495.72142569894,108945.0
63495.73142361232,108930.0
63495.7414215257,108968.0
63495.751419439075,108948.0
63495.761417352456,108966.0
63495.77141526584,108943.0
63495.78141317921,108918.0
63495.79141109259,108969.0
63495.80140900597,108970.0
63495.811406919354,108953.0
63495.82140483273,108989.0
63495.83140274611,108977.0
63495.84140065949,108934.0
63495.851398572864,108973.0
63495.861396486245,108969.0
63495.871394399626,108976.0
63495.881392313,108995.0
63495.89139022638,109003.0
63495.90138813976,108963.0
63495.911386053136,109007.0
63495.92138396652,108993.0
63495.9313818799,109023.0
63495.94137979327,108990.0
63495.95137770665,108998.0
63495.961375620034,109000.0
63495.97137353341,109003.0
63495.98137144679,108984.0
63495.99136936017,108959.0
63496.001367273544,108916.0
63496.011365186925,108952.0
63496.021363100306,108937.0
63496.03136101368,108912.0
63496.04135892706,108893.0
63496.05135684044,108909.0
63496.061354753816,108911.0
63496.0713526672,108904.0
63496.08135058058,108892.0
63496.09134849395,108892.0
63496.10134640733,108867.0
63496.111344320714,108845.0
63496.12134223409,108846.0
63496.13134014747,108881.0
63496.14133806085,108875.0
63496.151335974224,108880.0
63496.161333887605,108876.0
63496.171331800986,108897.0
63496.18132971436,108889.0
63496.19132762774,108888.0
63496.20132554112,108865.0
63496.211323454496,108892.0
63496.22132136788,108902.0
63496.23131928126,108895.0
63496.24131719463,108853.0
63496.25131510801,108862.0
63496.261313021394,108870.0
63496.27131093477,108902.0
63496.28130884815,108873.0
63496.29130676153,108903.0
63496.301304674904,108935.0
63496.311302588285,108901.0
63496.321300501666,108903.0
63496.33129841504,108927.0
63496.34129632842,108900.0
63496.3512942418,108917.0
63496.361292155176,108927.0
63496.37129006856,108909.0
63496.38128798194,108927.0
63496.39128589531,108905.0
63496.40128380869,108902.0
63496.411281722074,108912.0
63496.421279635455,108942.0
63496.43127754883,108898.0
63496.44127546221,108943.0
63496.45127337559,108933.0
63496.461271288965,108950.0
63496.471269202346,108935.0
63496.48126711573,108938.0
63496.4912650291,108928.0
63496.50126294248,108941.0
63496.51126085586,108937.0
63496.52125876924,108944.0
63496.53125668262,108907.0
63496.541254596,108956.0
63496.55125250937,108965.0
63496.561250422754,108969.0
63496.571248336135,108957.0
63496.58124624951,108986.0
63496.59124416289,108949.0
63496.60124207627,108968.0
63496.611239989645,108948.0
63496.621237903026,108969.0
63496.63123581641,108984.0
63496.64123372978,108980.0
63496.65123164316,108954.0
63496.66122955654,108997.0
63496.67122746992,108964.0
63496.6812253833,108973.0
63496.69122329668,108960.0
63496.70122121005,108994.0
63496.711219123434,108961.0
63496.721217036815,108988.0
63496.73121495019,108984.0
63496.74121286357,109023.0
63496.75121077695,108957.0
63496.761208690325,108989.0
63496.771206603706,108962.0
63496.78120451709,109007.0
63496.79120243046,108978.0
63496.80120034384,108999.0
63496.81119825722,109009.0
63496.8211961706,108996.0
63496.83119408398,109022.0
63496.84119199736,109032.0
63496.85118991073,109026.0
63496.86118782411,109036.0
63496.871185737495,109035.0
63496.88118365087,109030.0
63496.89118156425,109026.0
63496.90117947763,109039.0
63496.911177391004,109024.0
63496.921175304386,109004.0
63496.93117321777,108980.0
63496.94117113114,108962.0
63496.95116904452,108987.0
63496.9611669579,108962.0
63496.971164871284,108966.0
63496.98116278466,108881.0
63496.99116069804,108908.0
63497.00115861142,108924.0
63497.01115652479,108905.0
63497.021154438175,108924.0
63497.031152351556,108918.0
63497.04115026493,108907.0
63497.05114817831,108908.0
63497.06114609169,108910.0
63497.071144005065,108936.0
63497.08114191845,108915.0
63497.09113983183,108894.0
63497.1011377452,108909.0
63497.11113565858,108885.0
63497.12113357196,108937.0
63497.13113148534,108926.0
63497.14112939872,108908.0
63497.1511273121,108950.0
63497.16112522547,108907.0
63497.171123138854,108903.0
63497.181121052236,108956.0
63497.19111896561,108916.0
63497.20111687899,108949.0
63497.21111479237,108933.0
63497.221112705745,108927.0
63497.23111061913,108927.0
63497.24110853251,108935.0
63497.25110644588,108935.0
63497.26110435926,108909.0
63497.27110227264,108950.0
63497.28110018602,108948.0
63497.2910980994,108927.0
63497.30109601278,108924.0
63497.31109392615,108934.0
63497.321091839534,108949.0
63497.331089752915,108946.0
63497.34108766629,108927.0
63497.35108557967,108902.0
63497.36108349305,108937.0
63497.371081406425,108950.0
63497.381079319806,108969.0
63497.39107723319,108980.0
63497.40107514656,108973.0
63497.41107305994,108956.0
63497.42107097332,108965.0
63497.4310688867,108964.0
63497.44106680008,108992.0
63497.45106471346,108973.0
63497.46106262683,108952.0
63497.471060540214,109014.0
63497.481058453595,108990.0
63497.49105636697,108986.0
63497.50105428035,108977.0
63497.51105219373,108953.0
63497.521050107105,108967.0
63497.531048020486,108993.0
63497.54104593387,109019.0
63497.55104384724,108992.0
63497.56104176062,108999.0
63497.571039674,109004.0
63497.581037587384,108988.0
63497.59103550076,109018.0
63497.60103341414,108999.0
63497.61103132752,109014.0
63497.621029240894,109021.0
63497.631027154275,108993.0
63497.641025067656,109020.0
63497.65102298103,109012.0
63497.66102089441,109005.0
63497.67101880779,109033.0
63497.681016721166,109001.0
63497.69101463455,109022.0
63497.70101254793,109016.0
63497.7110104613,108991.0
63497.72100837468,109000.0
63497.731006288064,109015.0
63497.74100420144,109015.0
63497.75100211482,109001.0
63497.7610000282,109053.0
63497.770997941574,109011.0
63497.780995854955,109027.0
63497.790993768336,109058.0
63497.80099168171,109025.0
63497.81098959509,109058.0
63497.82098750847,109044.0
63497.830985421846,109023.0
63497.84098333523,109028.0
63497.85098124861,109009.0
63497.86097916198,109010.0
63497.87097707536,108981.0
63497.880974988744,109003.0
63497.89097290212,108974.0
63497.9009708155,108980.0
63497.91096872888,108958.0
63497.920966642254,108937.0
63497.930964555635,108955.0
63497.940962469016,108960.0
63497.95096038239,108966.0
63497.96095829577,108956.0
63497.97095620915,108937.0
63497.980954122526,108954.0
63497.99095203591,108957.0
63498.00094994929,108964.0
63498.01094786266,108949.0
63498.02094577604,108950.0
63498.030943689424,108979.0
63498.0409416028,108931.0
63498.05093951618,108973.0
63498.06093742956,108945.0
63498.070935342934,108937.0
63498.080933256315,108979.0
63498.090931169696,108934.0
63498.10092908307,108930.0
63498.11092699645,108931.0
63498.12092490983,108931.0
63498.13092282321,108945.0
63498.14092073659,108964.0
63498.15091864997,108949.0
63498.16091656335,108927.0
63498.17091447672,108969.0
63498.180912390104,108958.0
63498.190910303485,108966.0
63498.20090821686,108997.0
63498.21090613024,108936.0
63498.22090404362,108950.0
63498.230901956995,108927.0
63498.240899870376,108925.0
63498.25089778376,108971.0
63498.26089569713,108971.0
63498.27089361051,108939.0
63498.28089152389,108956.0
63498.29088943727,108960.0
63498.30088735065,108981.0
63498.31088526403,108998.0
63498.3208831774,109008.0
63498.330881090784,108952.0
63498.340879004165,108980.0
63498.35087691754,108994.0
63498.36087483092,108958.0
63498.3708727443,108951.0
63498.380870657675,108986.0
63498.390868571056,108981.0
63498.40086648444,109006.0
63498.41086439781,108975.0
63498.42086231119,108981.0
63498.43086022457,109005.0
63498.44085813795,109013.0
63498.45085605133,108964.0
63498.46085396471,108978.0
63498.47085187808,108990.0
63498.480849791464,108973.0
63498.490847704845,109001.0
63498.50084561822,108990.0
63498.5108435316,108994.0
63498.52084144498,109016.0
63498.530839358355,109023.0
63498.540837271736,109010.0
63498.55083518512,109013.0
63498.56083309849,109007.0
63498.57083101187,109024.0
63498.58082892525,109026.0
63498.59082683863,109022.0
63498.60082475201,109023.0
63498.61082266539,109007.0
63498.62082057876,109015.0
63498.63081849214,109035.0
63498.640816405525,109050.0
63498.6508143189,109016.0
63498.66081223228,109051.0
63498.67081014566,109036.0
63498.680808059034,109023.0
63498.690805972416,109054.0
63498.7008038858,109029.0
63498.71080179917,109050.0
63498.72079971255,109075.0
63498.73079762593,109050.0
63498.740795539314,109051.0
63498.75079345269,109060.0
63498.76079136607,109065.0
63498.77078927945,109027.0
63498.78078719282,109059.0
63498.790785106205,109026.0
63498.800783019586,108983.0
63498.81078093296,109022.0
63498.82077884634,108978.0
63498.83077675972,108992.0
63498.840774673095,108956.0
63498.85077258648,108974.0
63498.86077049986,108929.0
63498.87076841323,108949.0
63498.88076632661,108964.0
63498.89076423999,108953.0
63498.90076215337,108956.0
63498.91076006675,108931.0
63498.92075798013,108950.0
63498.9307558935,108927.0
63498.940753806884,108928.0
63498.950751720266,108947.0
63498.96074963364,108941.0
63498.97074754702,108928.0
63498.9807454604,108954.0
63498.990743373775,108936.0
63499.00074128716,108916.0
63499.01073920054,108961.0
63499.02073711391,108932.0
63499.03073502729,108956.0
63499.04073294067,108925.0
63499.05073085405,108970.0
63499.06072876743,108940.0
63499.07072668081,108973.0
63499.08072459418,108961.0
63499.090722507564,108947.0
63499.100720420945,108968.0
63499.11071833432,108926.0
63499.1207162477,108959.0
63499.13071416108,108941.0
63499.140712074455,108994.0
63499.150709987836,108941.0
63499.16070790122,108985.0
63499.17070581459,108946.0
63499.18070372797,108944.0
63499.19070164135,108974.0
63499.20069955473,108971.0
63499.21069746811,108944.0
63499.22069538149,108994.0
63499.23069329486,108965.0
63499.240691208244,108994.0
63499.250689121625,108968.0
63499.260687035,108969.0
63499.27068494838,108957.0
63499.28068286176,108991.0
63499.29068077514,109001.0
63499.300678688516,109008.0
63499.3106766019,109027.0
63499.32067451528,108995.0
63499.33067242865,109004.0
63499.34067034203,109010.0
63499.350668255414,108981.0
63499.36066616879,108998.0
63499.37066408217,109023.0
63499.38066199555,109014.0
63499.390659908924,109014.0
63499.400657822305,109008.0
63499.410655735686,108997.0
63499.42065364906,109003.0
63499.43065156244,108958.0
63499.44064947582,108997.0
63499.450647389196,109007.0
63499.46064530258,109032.0
63499.47064321596,109051.0
63499.48064112933,109027.0
63499.49063904271,109006.0
63499.500636956094,109013.0
63499.51063486947,109031.0
63499.52063278285,109025.0
63499.53063069623,109024.0
63499.540628609604,109039.0
63499.550626522985,109054.0
63499.560624436366,109025.0
63499.57062234974,109025.0
63499.58062026312,109020.0
63499.5906181765,109038.0
63499.600616089876,109045.0
63499.61061400326,109015.0
63499.62061191664,109016.0
63499.63060983001,109046.0
63499.64060774339,109056.0
63499.650605656774,109045.0
63499.66060357015,109040.0
63499.67060148353,109052.0
63499.68059939691,109075.0
63499.690597310284,109080.0
63499.700595223665,109056.0
63499.710593137046,109093.0
63499.72059105042,109077.0
63499.7305889638,109070.0
63499.74058687718,109067.0
63499.750584790556,109025.0
63499.76058270394,109010.0
63499.77058061732,109028.0
63499.78057853069,109030.0
63499.79057644407,109027.0
63499.800574357454,108990.0
63499.81057227083,108988.0
63499.82057018421,108978.0
63499.83056809759,108952.0
63499.840566010964,108977.0
63499.850563924345,108966.0
63499.860561837726,108968.0
63499.8705597511,108968.0
63499.88055766448,108970.0
63499.89055557786,108964.0
63499.90055349124,108951.0
63499.91055140462,108969.0
63499.920549318,108928.0
63499.93054723138,108954.0
63499.94054514475,108940.0
63499.950543058134,108943.0
63499.960540971515,108988.0
63499.97053888489,108958.0
63499.98053679827,108961.0
63499.99053471165,108942.0
63500.000532625025,109002.0
63500.010530538406,108981.0
63500.02052845179,108957.0
63500.03052636516,108998.0
63500.04052427854,108982.0
63500.05052219192,108975.0
63500.0605201053,108980.0
63500.07051801868,108970.0
63500.08051593206,108971.0
63500.09051384543,108990.0
63500.100511758814,108939.0
63500.110509672195,108998.0
63500.12050758557,108982.0
63500.13050549895,108981.0
63500.14050341233,108956.0
63500.150501325705,108964.0
63500.160499239086,108989.0
63500.17049715247,108981.0
63500.18049506584,108971.0
63500.19049297922,108990.0
63500.2004908926,108993.0
63500.21048880598,109007.0
63500.22048671936,109014.0
63500.23048463274,109010.0
63500.24048254611,109009.0
63500.250480459494,109014.0
63500.260478372875,109030.0
63500.27047628625,108987.0
63500.28047419963,109033.0
63500.29047211301,109016.0
63500.300470026385,109021.0
63500.310467939766,109004.0
63500.32046585315,109021.0
63500.33046376652,109026.0
63500.3404616799,109042.0
63500.35045959328,109026.0
63500.36045750666,109047.0
63500.37045542004,109018.0
63500.38045333342,109042.0
63500.39045124679,109032.0
63500.40044916017,109061.0
63500.410447073555,109041.0
63500.42044498693,109039.0
63500.43044290031,109080.0
63500.44044081369,109029.0
63500.45043872707,109066.0
63500.460436640446,109057.0
63500.47043455383,109062.0
63500.48043246721,109059.0
63500.49043038058,109009.0
63500.50042829396,109051.0
63500.510426207344,109025.0
63500.52042412072,109058.0
63500.5304220341,109052.0
63500.54041994748,109060.0
63500.55041786085,109051.0
63500.560415774235,109040.0
63500.570413687616,109082.0
63500.58041160099,109071.0
63500.59040951437,109082.0
63500.60040742775,109091.0
63500.610405341125,109067.0
63500.62040325451,109095.0
63500.63040116789,109061.0
63500.64039908126,109051.0
63500.65039699464,109113.0
63500.66039490802,109095.0
63500.6703928214,109078.0
63500.68039073478,109065.0
63500.69038864816,109076.0
63500.70038656153,109094.0
63500.710384474914,109084.0
63500.720382388296,109081.0
63500.73038030167,109067.0
63500.74037821505,109094.0
63500.75037612843,109039.0
63500.760374041805,109004.0
63500.77037195519,109040.0
63500.78036986857,109027.0
63500.79036778194,109000.0
63500.80036569532,108995.0
63500.8103636087,108980.0
63500.82036152208,108989.0
63500.83035943546,108970.0
63500.84035734884,108971.0
63500.85035526221,108951.0
63500.860353175594,108972.0
63500.870351088975,108999.0
63500.88034900235,108983.0
63500.89034691573,108994.0
63500.90034482911,108982.0
63500.910342742485,108948.0
63500.920340655866,108965.0
63500.93033856925,108973.0
63500.94033648262,108985.0
63500.950334396,109000.0
63500.96033230938,108994.0
63500.97033022276,108993.0
63500.98032813614,108997.0
63500.99032604952,109008.0
63501.00032396289,108984.0
63501.010321876274,109024.0
63501.020319789655,109021.0
63501.03031770303,109000.0
63501.04031561641,108990.0
63501.05031352979,109004.0
63501.06031144317,109003.0
63501.070309356546,109007.0
63501.08030726993,108975.0
63501.09030518331,109015.0
63501.10030309668,108991.0
63501.11030101006,109016.0
63501.120298923444,108996.0
63501.13029683682,108989.0
63501.1402947502,108991.0
63501.15029266358,109013.0
63501.160290576954,108995.0
63501.170288490335,108989.0
63501.180286403716,109015.0
63501.19028431709,109012.0
63501.20028223047,109007.0
63501.21028014385,109033.0
63501.220278057226,109006.0
63501.23027597061,109026.0
63501.24027388399,109030.0
63501.25027179736,109003.0
63501.26026971074,108988.0
63501.270267624124,109045.0
63501.2802655375,108999.0
63501.29026345088,109049.0
63501.30026136426,109046.0
63501.310259277634,109032.0
63501.320257191015,109047.0
63501.330255104396,109057.0
63501.34025301777,109023.0
63501.35025093115,109042.0
63501.36024884453,109083.0
63501.370246757906,109045.0
63501.38024467129,109080.0
63501.39024258467,109057.0
63501.40024049804,109037.0
63501.41023841142,109072.0
63501.420236324804,109046.0
63501.43023423818,109043.0
63501.44023215156,109002.0
63501.45023006494,109085.0
63501.460227978314,109053.0
63501.470225891695,109063.0
63501.480223805076,109055.0
63501.49022171845,109066.0
63501.50021963183,109059.0
63501.51021754521,109063.0
63501.520215458586,109063.0
63501.53021337197,109102.0
63501.54021128535,109047.0
63501.55020919872,109025.0
63501.5602071121,109029.0
63501.570205025484,109023.0
63501.58020293886,109049.0
63501.59020085224,109027.0
63501.60019876562,109036.0
63501.610196679,108988.0
63501.620194592375,109037.0
63501.630192505756,109016.0
63501.64019041914,109014.0
63501.65018833251,109041.0
63501.66018624589,109013.0
63501.67018415927,109012.0
63501.68018207265,109000.0
63501.69017998603,108994.0
63501.70017789941,109030.0
63501.71017581278,109023.0
63501.720173726164,108995.0
63501.730171639545,109014.0
63501.74016955292,109022.0
63501.7501674663,108979.0
63501.76016537968,109004.0
63501.770163293055,108975.0
63501.780161206436,108985.0
63501.79015911982,109024.0
63501.80015703319,109005.0
63501.81015494657,108985.0
63501.82015285995,109013.0
63501.83015077333,108993.0
63501.84014868671,109015.0
63501.85014660009,108970.0
63501.86014451346,109005.0
63501.870142426844,109038.0
63501.880140340225,109026.0
63501.8901382536,109022.0
63501.90013616698,109027.0
63501.91013408036,109071.0
63501.920131993735,109060.0
63501.930129907116,109039.0
63501.9401278205,109069.0
63501.95012573387,109076.0
63501.96012364725,109057.0
63501.97012156063,109107.0
63501.98011947401,109065.0
63501.99011738739,109103.0
63502.00011530077,109081.0
63502.01011321414,109062.0
63502.020111127524,109042.0
63502.030109040905,109110.0
63502.04010695428,109090.0
63502.05010486766,109091.0
63502.06010278104,109090.0
63502.070100694415,109092.0
63502.080098607796,109119.0
63502.09009652118,109103.0
63502.10009443455,109082.0
63502.11009234793,109143.0
63502.12009026131,109136.0
63502.13008817469,109123.0
63502.14008608807,109138.0
63502.15008400145,109151.0
63502.16008191482,109151.0
63502.1700798282,109146.0
63502.180077741585,109164.0
63502.19007565496,109123.0
63502.20007356834,109186.0
63502.21007148172,109173.0
63502.2200693951,109166.0
63502.230067308476,109196.0
63502.24006522186,109178.0
63502.25006313524,109160.0
63502.26006104861,109192.0
63502.27005896199,109153.0
63502.280056875374,109180.0
63502.29005478875,109214.0
63502.30005270213,109182.0
63502.31005061551,109173.0
63502.32004852888,109191.0
63502.330046442265,109180.0
63502.340044355646,109216.0
63502.35004226902,109209.0
63502.3600401824,109176.0
63502.37003809578,109169.0
63502.380036009155,109217.0
63502.39003392254,109188.0
63502.40003183592,109195.0
63502.41002974929,109187.0
63502.42002766267,109166.0
63502.43002557605,109159.0
63502.44002348943,109190.0
63502.45002140281,109196.0
63502.46001931619,109198.0
63502.47001722956,109192.0
63502.480015142944,109180.0
63502.490013056326,109199.0
63502.5000109697,109211.0
63502.51000888308,109179.0
63502.52000679646,109216.0
63502.530004709835,109207.0
63502.54000262322,109205.0
63502.5500005366,109229.0
63502.55999844997,109219.0
63502.56999636335,109198.0
63502.57999427673,109209.0
63502.58999219011,109189.0
63502.59999010349,109178.0
63502.60998801687,109215.0
63502.61998593024,109192.0
63502.629983843624,109136.0
63502.639981757005,109173.0
63502.64997967038,109133.0
63502.65997758376,109140.0
63502.66997549714,109106.0
63502.679973410515,109077.0
63502.689971323896,109080.0
63502.69996923728,109039.0
63502.70996715065,109053.0
63502.71996506403,109040.0
63502.72996297741,109049.0
63502.73996089079,109025.0
63502.74995880417,109033.0
63502.75995671755,109042.0
63502.76995463093,109039.0
63502.779952544304,109017.0
63502.789950457685,109045.0
63502.79994837107,109020.0
63502.80994628444,109041.0
63502.81994419782,109033.0
63502.8299421112,109058.0
63502.839940024576,109029.0
63502.84993793796,109051.0
63502.85993585134,109025.0
63502.86993376471,109078.0
63502.87993167809,109049.0
63502.889929591474,109045.0
63502.89992750485,109070.0
63502.90992541823,109018.0
63502.91992333161,109022.0
63502.929921244984,109062.0
63502.939919158365,109084.0
63502.949917071746,109085.0
63502.95991498512,109053.0
63502.9699128985,109058.0
63502.97991081188,109049.0
63502.989908725256,109078.0
63502.99990663864,109050.0
63503.00990455202,109040.0
63503.01990246539,109045.0
63503.02990037877,109091.0
63503.039898292154,109053.0
63503.04989620553,109080.0
63503.05989411891,109058.0
63503.06989203229,109080.0
63503.079889945664,109074.0
63503.089887859045,109088.0
63503.099885772426,109098.0
63503.1098836858,109057.0
63503.11988159918,109124.0
63503.12987951256,109087.0
63503.139877425936,109068.0
63503.14987533932,109095.0
63503.1598732527,109089.0
63503.16987116607,109086.0
63503.17986907945,109112.0
63503.189866992834,109088.0
63503.19986490621,109104.0
63503.20986281959,109092.0
63503.21986073297,109109.0
63503.229858646344,109144.0
63503.239856559725,109144.0
63503.249854473106,109083.0
63503.25985238648,109114.0
63503.26985029986,109132.0
63503.27984821324,109140.0
63503.289846126616,109149.0
63503.29984404,109132.0
63503.30984195338,109109.0
63503.31983986675,109133.0
63503.32983778013,109113.0
63503.339835693514,109134.0
63503.34983360689,109149.0
63503.35983152027,109121.0
63503.36982943365,109140.0
63503.37982734703,109144.0
63503.389825260405,109136.0
63503.399823173786,109172.0
63503.40982108717,109153.0
63503.41981900054,109145.0
63503.42981691392,109136.0
63503.4398148273,109181.0
63503.44981274068,109140.0
63503.45981065406,109161.0
63503.46980856744,109139.0
63503.47980648081,109183.0
63503.489804394194,109157.0
63503.499802307575,109155.0
63503.50980022095,109171.0
63503.51979813433,109177.0
63503.52979604771,109180.0
63503.539793961085,109139.0
63503.549791874466,109168.0
63503.55978978785,109156.0
63503.56978770122,109127.0
63503.5797856146,109134.0
63503.58978352798,109115.0
63503.59978144136,109120.0
63503.60977935474,109115.0
63503.61977726812,109071.0
63503.62977518149,109062.0
63503.639773094874,109061.0
63503.649771008255,109052.0
63503.65976892163,109053.0
63503.66976683501,108983.0
63503.67976474839,109041.0
63503.689762661765,109054.0
63503.699760575146,109044.0
63503.70975848853,109071.0
63503.7197564019,109031.0
63503.72975431528,109065.0
63503.73975222866,109028.0
63503.74975014204,109071.0
63503.75974805542,109011.0
63503.7697459688,109041.0
63503.77974388217,109026.0
63503.789741795554,109074.0
63503.799739708935,109054.0
63503.80973762231,109073.0
63503.81973553569,109020.0
63503.82973344907,109061.0
63503.839731362445,109029.0
63503.849729275826,109048.0
63503.85972718921,109069.0
63503.86972510258,109067.0
63503.87972301596,109057.0
63503.88972092934,109060.0
63503.89971884272,109089.0
63503.9097167561,109064.0
63503.91971466948,109080.0
63503.92971258286,109086.0
63503.93971049623,109050.0
63503.949708409615,109049.0
63503.959706322996,109069.0
63503.96970423637,109052.0
63503.97970214975,109081.0
63503.98970006313,109089.0
63503.999697976506,109068.0
63504.00969588989,109067.0
63504.01969380327,109083.0
63504.02969171664,109091.0
63504.03968963002,109096.0
63504.049687543404,109079.0
63504.05968545678,109092.0
63504.06968337016,109107.0
63504.07968128354,109111.0
63504.08967919691,109084.0
63504.099677110295,109125.0
63504.109675023676,109119.0
63504.11967293705,109085.0
63504.12967085043,109138.0
63504.13966876381,109110.0
63504.149666677185,109107.0
63504.15966459057,109098.0
63504.16966250395,109112.0
63504.17966041732,109091.0
63504.1896583307,109128.0
63504.19965624408,109156.0
63504.20965415746,109113.0
63504.21965207084,109150.0
63504.22964998422,109135.0
63504.23964789759,109111.0
63504.249645810974,109138.0
63504.259643724356,109099.0
63504.26964163773,109126.0
63504.27963955111,109145.0
63504.28963746449,109101.0
63504.299635377865,109154.0
63504.30963329125,109136.0
63504.31963120463,109128.0
63504.329629118,109172.0
63504.33962703138,109122.0
63504.34962494476,109145.0
63504.35962285814,109110.0
63504.36962077152,109161.0
63504.3796186849,109134.0
63504.38961659827,109155.0
63504.399614511654,109168.0
63504.409612425035,109179.0
63504.41961033841,109172.0
63504.42960825179,109132.0
63504.43960616517,109166.0
63504.449604078545,109176.0
63504.459601991926,109169.0
63504.46959990531,109156.0
63504.47959781868,109171.0
63504.48959573206,109150.0
63504.49959364544,109171.0
63504.50959155882,109154.0
63504.5195894722,109161.0
63504.52958738558,109112.0
63504.53958529896,109162.0
63504.549583212334,109115.0
63504.559581125715,109115.0
63504.5695790391,109077.0
63504.57957695247,109069.0
63504.58957486585,109096.0
63504.59957277923,109069.0
63504.609570692606,109032.0
63504.61956860599,109065.0
63504.62956651937,109040.0
63504.63956443274,109059.0
63504.64956234612,109070.0
63504.659560259504,109039.0
63504.66955817288,109065.0
63504.67955608626,109065.0
63504.68955399964,109027.0
63504.699551913014,109017.0
63504.709549826395,109045.0
63504.719547739776,109056.0
63504.72954565315,109031.0
63504.73954356653,109078.0
63504.74954147991,109033.0
63504.759539393286,109065.0
63504.76953730667,109061.0
63504.77953522005,109045.0
63504.78953313342,109084.0
63504.7995310468,109068.0
63504.809528960184,109059.0
63504.81952687356,109070.0
63504.82952478694,109071.0
63504.83952270032,109065.0
63504.849520613694,109030.0
63504.859518527075,109055.0
63504.869516440456,109042.0
63504.87951435383,109069.0
63504.88951226721,109079.0
63504.89951018059,109062.0
63504.909508093966,109091.0
63504.91950600735,109069.0
63504.92950392073,109047.0
63504.9395018341,109032.0
63504.94949974748,109082.0
63504.959497660864,109074.0
63504.96949557424,109090.0
63504.97949348762,109076.0
63504.989491401,109083.0
63504.999489314374,109090.0
63505.009487227755,109080.0
63505.019485141136,109083.0
63505.02948305451,109101.0
63505.03948096789,109092.0
63505.04947888127,109067.0
63505.059476794646,109109.0
63505.06947470803,109094.0
63505.07947262141,109101.0
63505.08947053479,109104.0
63505.09946844816,109086.0
63505.109466361544,109125.0
63505.119464274925,109118.0
63505.1294621883,109091.0
63505.13946010168,109101.0
63505.14945801506,109123.0
63505.159455928435,109092.0
63505.169453841816,109110.0
63505.1794517552,109112.0
63505.18944966857,109099.0
63505.19944758195,109118.0
63505.20944549533,109121.0
63505.21944340871,109088.0
63505.22944132209,109122.0
63505.23943923547,109134.0
63505.24943714884,109107.0
63505.259435062224,109126.0
63505.269432975605,109103.0
63505.27943088898,109092.0
63505.28942880236,109125.0
63505.29942671574,109145.0
63505.309424629115,109112.0
63505.319422542496,109154.0
63505.32942045588,109126.0
63505.33941836925,109093.0
63505.34941628263,109117.0
63505.35941419601,109120.0
63505.36941210939,109145.0
63505.37941002277,109140.0
63505.38940793615,109131.0
63505.39940584952,109167.0
63505.409403762904,109137.0
63505.419401676285,109125.0
63505.42939958966,109125.0
63505.43939750304,109152.0
63505.44939541642,109142.0
63505.459393329795,109096.0
63505.469391243176,109134.0
63505.47938915656,109076.0
63505.48938706993,109081.0
63505.49938498331,109048.0
63505.50938289669,109036.0
63505.51938081007,109019.0
63505.52937872345,109049.0
63505.53937663683,109050.0
63505.5493745502,109043.0
63505.559372463584,109057.0
63505.569370376965,109054.0
63505.57936829034,109051.0
63505.58936620372,109055.0
63505.5993641171,109071.0
63505.609362030475,109054.0
63505.619359943856,109031.0
63505.62935785724,109051.0
63505.63935577061,109087.0
63505.64935368399,109052.0
63505.65935159737,109038.0
63505.66934951075,109076.0
63505.67934742413,109051.0
63505.68934533751,109072.0
63505.69934325089,109039.0
63505.70934116426,109044.0
63505.719339077645,109077.0
63505.729336991026,109083.0
63505.7393349044,109060.0
63505.74933281778,109047.0
63505.75933073116,109077.0
63505.769328644536,109054.0
63505.77932655792,109068.0
63505.7893244713,109098.0
63505.79932238467,109052.0
63505.80932029805,109067.0
63505.819318211434,109077.0
63505.82931612481,109059.0
63505.83931403819,109072.0
63505.84931195157,109118.0
63505.85930986494,109082.0
63505.869307778325,109069.0
63505.879305691706,109100.0
63505.88930360508,109078.0
63505.89930151846,109092.0
63505.90929943184,109093.0
63505.919297345215,109099.0
63505.9292952586,109111.0
63505.93929317198,109096.0
63505.94929108535,109112.0
63505.95928899873,109104.0
63505.96928691211,109081.0
63505.97928482549,109108.0
63505.98928273887,109113.0
63505.99928065225,109103.0
63506.00927856562,109101.0
63506.019276479004,109124.0
63506.029274392386,109108.0
63506.03927230576,109093.0
63506.04927021914,109094.0
63506.05926813252,109113.0
63506.069266045895,109078.0
63506.07926395928,109080.0
63506.08926187266,109140.0
63506.09925978603,109120.0
63506.10925769941,109109.0
63506.11925561279,109155.0
63506.12925352617,109143.0
63506.13925143955,109134.0
63506.14924935293,109128.0
63506.1592472663,109114.0
63506.169245179684,109133.0
63506.179243093065,109148.0
63506.18924100644,109159.0
63506.19923891982,109148.0
63506.2092368332,109119.0
63506.219234746575,109161.0
63506.229232659956,109184.0
63506.23923057334,109164.0
63506.24922848672,109168.0
63506.25922640009,109154.0
63506.26922431347,109179.0
63506.279222226854,109133.0
63506.28922014023,109155.0
63506.29921805361,109161.0
63506.30921596699,109158.0
63506.319213880364,109134.0
63506.329211793745,109120.0
63506.33920970713,109136.0
63506.3492076205,109105.0
63506.35920553388,109087.0
63506.36920344726,109111.0
63506.379201360636,109084.0
63506.38919927402,109075.0
63506.3991971874,109056.0
63506.40919510077,109078.0
63506.41919301415,109038.0
63506.429190927534,109044.0
63506.43918884091,109055.0
63506.44918675429,109013.0
63506.45918466767,109033.0
63506.469182581044,109031.0
63506.479180494425,109006.0
63506.489178407806,109061.0
63506.49917632118,109052.0
63506.50917423456,109031.0
63506.51917214794,109016.0
63506.529170061316,109048.0
63506.5391679747,109050.0
63506.54916588808,109045.0
63506.55916380145,109049.0
63506.56916171483,109058.0
63506.579159628214,109025.0
63506.58915754159,109022.0
63506.59915545497,109028.0
63506.60915336835,109038.0
63506.619151281724,109004.0
63506.629149195105,109044.0
63506.639147108486,109068.0
63506.64914502186,109047.0
63506.65914293524,109047.0
63506.66914084862,109053.0
63506.679138761996,109054.0
63506.68913667538,109041.0
63506.69913458876,109056.0
63506.70913250213,109055.0
63506.71913041551,109037.0
63506.729128328894,109065.0
63506.73912624227,109027.0
63506.74912415565,109059.0
63506.75912206903,109073.0
63506.769119982404,109081.0
63506.779117895785,109052.0
63506.789115809166,109067.0
63506.79911372255,109056.0
63506.80911163592,109048.0
63506.8191095493,109095.0
63506.82910746268,109078.0
63506.83910537606,109081.0
63506.84910328944,109034.0
63506.85910120282,109070.0
63506.86909911619,109070.0
63506.879097029574,109085.0
63506.889094942955,109097.0
63506.89909285633,109090.0
63506.90909076971,109081.0
63506.91908868309,109087.0
63506.929086596465,109057.0
63506.939084509846,109119.0
63506.94908242323,109100.0
63506.9590803366,109128.0
63506.96907824998,109111.0
63506.97907616336,109065.0
63506.98907407674,109080.0
63506.99907199012,109101.0
63507.0090699035,109081.0
63507.01906781687,109130.0
63507.029065730254,109117.0
63507.039063643635,109113.0
63507.04906155701,109118.0
63507.05905947039,109123.0
63507.06905738377,109123.0
63507.079055297145,109138.0
63507.089053210526,109146.0
63507.09905112391,109127.0
63507.10904903728,109159.0
63507.11904695066,109132.0
63507.12904486404,109110.0
63507.13904277742,109150.0
63507.1490406908,109164.0
63507.15903860418,109146.0
63507.16903651755,109149.0
63507.179034430934,109127.0
63507.189032344315,109145.0
63507.19903025769,109145.0
63507.20902817107,109158.0
63507.21902608445,109149.0
63507.229023997825,109172.0
63507.239021911206,109144.0
63507.24901982459,109086.0
63507.25901773796,109091.0
63507.26901565134,109084.0
63507.27901356472,109081.0
63507.2890114781,109095.0
63507.29900939148,109050.0
63507.30900730486,109068.0
63507.31900521823,109041.0
63507.329003131614,109020.0
63507.339001044995,109029.0
63507.34899895837,109012.0
63507.35899687175,109029.0
63507.36899478513,109047.0
63507.378992698505,109041.0
63507.388990611886,109016.0
63507.39898852527,109025.0
63507.40898643865,109023.0
63507.41898435202,109011.0
63507.4289822654,109047.0
63507.438980178784,109037.0
63507.44897809216,109014.0
63507.45897600554,109066.0
63507.46897391892,109041.0
63507.47897183229,109057.0
63507.488969745675,109065.0
63507.498967659056,109036.0
63507.50896557243,109032.0
63507.51896348581,109073.0
63507.52896139919,109071.0
63507.538959312566,109078.0
63507.54895722595,109083.0
63507.55895513933,109067.0
63507.5689530527,109076.0
63507.57895096608,109089.0
63507.588948879464,109062.0
63507.59894679284,109076.0
63507.60894470622,109109.0
63507.6189426196,109059.0
63507.62894053297,109118.0
63507.638938446355,109084.0
63507.648936359736,109070.0
63507.65893427311,109105.0
63507.66893218649,109067.0
63507.67893009987,109112.0
63507.688928013245,109106.0
63507.69892592663,109074.0
63507.70892384001,109100.0
63507.71892175338,109104.0
63507.72891966676,109114.0
63507.73891758014,109110.0
63507.74891549352,109143.0
63507.7589134069,109092.0
63507.76891132028,109125.0
63507.77890923365,109125.0
63507.788907147034,109106.0
63507.798905060416,109139.0
63507.80890297379,109127.0
63507.81890088717,109118.0
63507.82889880055,109128.0
63507.838896713925,109108.0
63507.84889462731,109143.0
63507.85889254069,109102.0
63507.86889045406,109127.0
63507.87888836744,109140.0
63507.88888628082,109135.0
63507.8988841942,109137.0
63507.90888210758,109118.0
63507.91888002096,109162.0
63507.92887793433,109143.0
63507.938875847714,109126.0
63507.948873761095,109165.0
63507.95887167448,109128.0
63507.96886958785,109152.0
63507.97886750123,109164.0
63507.98886541461,109144.0
63507.998863327986,109150.0
63508.00886124137,109162.0
63508.01885915475,109198.0
63508.02885706812,109132.0
63508.0388549815,109180.0
63508.048852894884,109176.0
63508.05885080826,109162.0
63508.06884872164,109211.0
63508.07884663502,109183.0
63508.088844548394,109187.0
63508.098842461775,109191.0
63508.10884037516,109178.0
63508.11883828853,109212.0
63508.12883620191,109190.0
63508.13883411529,109160.0
63508.148832028666,109189.0
63508.15882994205,109142.0
63508.16882785543,109141.0
63508.1788257688,109127.0
63508.18882368218,109123.0
63508.198821595564,109074.0
63508.20881950894,109086.0
63508.21881742232,109111.0
63508.2288153357,109055.0
63508.238813249074,109087.0
63508.248811162455,109059.0
63508.258809075836,109026.0
63508.26880698921,109039.0
63508.27880490259,109031.0
63508.28880281597,109053.0
63508.298800729346,109067.0
63508.30879864273,109040.0
63508.31879655611,109028.0
63508.32879446948,109032.0
63508.33879238286,109066.0
63508.348790296244,109018.0
63508.35878820962,109075.0
63508.368786123,109067.0
63508.37878403638,109040.0
63508.388781949754,109077.0
63508.398779863135,109047.0
63508.408777776516,109057.0
63508.41877568989,109063.0
63508.42877360327,109058.0
63508.43877151665,109018.0
63508.448769430026,109085.0
63508.45876734341,109048.0
63508.46876525679,109053.0
63508.47876317016,109050.0
63508.48876108354,109056.0
63508.498758996924,109060.0
63508.5087569103,109074.0
63508.51875482368,109027.0
63508.52875273706,109069.0
63508.538750650434,109060.0
63508.548748563815,109057.0
63508.558746477196,109066.0
63508.56874439058,109046.0
63508.57874230395,109044.0
63508.58874021733,109064.0
63508.59873813071,109078.0
63508.60873604409,109046.0
63508.61873395747,109086.0
63508.62873187085,109134.0
63508.63872978422,109078.0
63508.648727697604,109109.0
63508.658725610985,109097.0
63508.66872352436,109086.0
63508.67872143774,109084.0
63508.68871935112,109094.0
63508.698717264495,109098.0
63508.708715177876,109149.0
63508.71871309126,109090.0
63508.72871100463,109091.0
63508.73870891801,109097.0
63508.74870683139,109112.0
63508.75870474477,109092.0
63508.76870265815,109096.0
63508.77870057153,109107.0
63508.7886984849,109068.0
63508.798696398284,109124.0
63508.808694311665,109081.0
63508.81869222504,109115.0
63508.82869013842,109114.0
63508.8386880518,109077.0
63508.848685965175,109089.0
63508.858683878556,109112.0
63508.86868179194,109174.0
63508.87867970531,109143.0
63508.88867761869,109118.0
63508.89867553207,109126.0
63508.90867344545,109139.0
63508.91867135883,109162.0
63508.92866927221,109110.0
63508.93866718558,109138.0
63508.948665098964,109171.0
63508.958663012345,109110.0
63508.96866092572,109174.0
63508.9786588391,109124.0
63508.98865675248,109124.0
63508.998654665855,109137.0
63509.008652579236,109115.0
63509.01865049262,109115.0
63509.02864840599,109070.0
63509.03864631937,109104.0
63509.04864423275,109075.0
63509.05864214613,109057.0
63509.06864005951,109058.0
63509.07863797289,109056.0
63509.08863588626,109020.0
63509.098633799644,109017.0
63509.108631713025,109042.0
63509.118629626406,109054.0
63509.12862753978,109037.0
63509.13862545316,109048.0
63509.14862336654,109032.0
63509.158621279916,109047.0
63509.1686191933,109040.0
63509.17861710668,109012.0
63509.18861502005,109046.0
63509.19861293343,109040.0
63509.208610846814,109062.0
63509.21860876019,109021.0
63509.22860667357,109051.0
63509.23860458695,109047.0
63509.24860250032,109025.0
63509.258600413705,109032.0
63509.268598327086,109056.0
63509.27859624046,109057.0
63509.28859415384,109075.0
63509.29859206722,109051.0
63509.308589980596,109058.0
63509.31858789398,109044.0
63509.32858580736,109054.0
63509.33858372073,109033.0
63509.34858163411,109045.0
63509.358579547494,109077.0
63509.36857746087,109021.0
63509.37857537425,109079.0
63509.38857328763,109047.0
63509.398571201,109066.0
63509.408569114385,109085.0
63509.418567027766,109086.0
63509.42856494114,109064.0
63509.43856285452,109061.0
63509.4485607679,109046.0
63509.458558681275,109098.0
63509.46855659466,109073.0
63509.47855450804,109068.0
63509.48855242141,109089.0
63509.49855033479,109053.0
63509.50854824817,109052.0
63509.51854616155,109064.0
63509.52854407493,109078.0
63509.53854198831,109070.0
63509.54853990168,109097.0
63509.558537815064,109088.0
63509.568535728446,109109.0
63509.57853364182,109118.0
63509.5885315552,109097.0
63509.59852946858,109087.0
63509.608527381955,109089.0
63509.61852529534,109080.0
63509.62852320872,109080.0
63509.63852112209,109071.0
63509.64851903547,109119.0
63509.65851694885,109082.0
63509.66851486223,109106.0
63509.67851277561,109084.0
63509.68851068899,109100.0
63509.69850860236,109143.0
63509.708506515744,109117.0
63509.718504429125,109084.0
63509.72850234251,109120.0
63509.73850025588,109105.0
63509.74849816926,109111.0
63509.75849608264,109137.0
63509.768493996016,109084.0
63509.7784919094,109139.0
63509.78848982278,109130.0
63509.79848773615,109146.0
63509.80848564953,109166.0
63509.818483562914,109135.0
63509.82848147629,109129.0
63509.83847938967,109144.0
63509.84847730305,109123.0
63509.858475216424,109156.0
63509.868473129805,109103.0
63509.87847104319,109120.0
63509.88846895656,109067.0
63509.89846686994,109116.0
63509.90846478332,109038.0
63509.918462696696,109049.0
63509.92846061008,109095.0
63509.93845852346,109032.0
63509.94845643683,109022.0
63509.95845435021,109025.0
63509.968452263594,109013.0
63509.97845017697,109026.0
63509.98844809035,109024.0
63509.99844600373,109028.0
63510.008443917104,109017.0
63510.018441830485,109015.0
63510.028439743866,109043.0
63510.03843765724,109016.0
63510.04843557062,109005.0
63510.058433484,109025.0
63510.068431397376,109018.0
63510.07842931076,109023.0
63510.08842722414,109006.0
63510.09842513751,109062.0
63510.10842305089,109053.0
63510.118420964274,109041.0
63510.12841887765,109045.0
63510.13841679103,109020.0
63510.14841470441,109056.0
63510.158412617784,109041.0
63510.168410531165,109049.0
63510.178408444546,109067.0
63510.18840635792,109056.0
63510.1984042713,109049.0
63510.20840218468,109032.0
63510.218400098056,109059.0
63510.22839801144,109061.0
63510.23839592482,109059.0
63510.24839383819,109051.0
63510.25839175157,109008.0
63510.268389664954,109067.0
63510.278387578335,109054.0
63510.28838549171,109044.0
63510.29838340509,109111.0
63510.30838131847,109083.0
63510.318379231845,109061.0
63510.328377145226,109063.0
63510.33837505861,109038.0
63510.34837297198,109094.0
63510.35837088536,109084.0
63510.36836879874,109080.0
63510.37836671212,109074.0
63510.3883646255,109093.0
63510.39836253888,109069.0
63510.40836045225,109090.0
63510.418358365634,109104.0
63510.428356279015,109066.0
63510.43835419239,109114.0
63510.44835210577,109078.0
63510.45835001915,109076.0
63510.468347932525,109108.0
63510.478345845906,109076.0
63510.48834375929,109104.0
63510.49834167266,109090.0
63510.50833958604,109117.0
63510.51833749942,109133.0
63510.5283354128,109118.0
63510.53833332618,109103.0
63510.54833123956,109110.0
63510.55832915293,109132.0
63510.568327066314,109097.0
63510.578324979695,109113.0
63510.58832289307,109101.0
63510.59832080645,109101.0
63510.60831871983,109135.0
63510.618316633205,109116.0
63510.628314546586,109113.0
63510.63831245997,109167.0
63510.64831037334,109134.0
63510.65830828672,109107.0
63510.6683062001,109159.0
63510.67830411348,109123.0
63510.68830202686,109147.0
63510.69829994024,109169.0
63510.70829785361,109148.0
63510.718295766994,109146.0
63510.728293680375,109145.0
63510.73829159375,109165.0
63510.74828950713,109124.0
63510.75828742051,109158.0
63510.768285333885,109115.0
63510.778283247266,109093.0
63510.78828116065,109126.0
63510.79827907402,109055.0
63510.8082769874,109070.0
63510.81827490078,109040.0
63510.82827281416,109005.0
63510.83827072754,109032.0
63510.84826864092,109041.0
63510.85826655429,109060.0
63510.868264467674,109038.0
63510.878262381055,109050.0
63510.888260294436,109057.0
63510.89825820781,109046.0
63510.90825612119,109023.0
63510.91825403457,109038.0
63510.928251947946,109051.0
63510.93824986133,109066.0
63510.94824777471,109028.0
63510.95824568808,109071.0
63510.96824360146,109079.0
63510.978241514844,109053.0
63510.98823942822,109062.0
63510.9982373416,109071.0
63511.00823525498,109064.0
63511.01823316835,109051.0
63511.028231081735,109107.0
63511.038228995116,109076.0
63511.04822690849,109077.0
63511.05822482187,109080.0
63511.06822273525,109057.0
63511.078220648626,109105.0
63511.08821856201,109064.0
63511.09821647539,109096.0
63511.10821438876,109106.0
63511.11821230214,109102.0
63511.128210215524,109076.0
63511.1382081289,109088.0
63511.14820604228,109113.0
63511.15820395566,109064.0
63511.16820186903,109123.0
63511.178199782415,109097.0
63511.188197695796,109100.0
63511.19819560917,109134.0
63511.20819352255,109090.0
63511.21819143593,109100.0
63511.228189349305,109073.0
63511.23818726269,109099.0
63511.24818517607,109110.0
63511.25818308944,109111.0
63511.26818100282,109106.0
63511.2781789162,109124.0
63511.28817682958,109102.0
63511.29817474296,109110.0
63511.30817265634,109102.0
63511.31817056971,109106.0
63511.328168483094,109110.0
63511.338166396476,109110.0
63511.34816430985,109103.0
63511.35816222323,109066.0
63511.36816013661,109138.0
63511.378158049985,109098.0
63511.38815596337,109082.0
63511.39815387675,109141.0
63511.40815179012,109094.0
63511.4181497035,109108.0
63511.42814761688,109130.0
63511.438145530265,109076.0
63511.44814344364,109136.0
63511.45814135702,109121.0
63511.4681392704,109100.0
63511.478137183774,109106.0
63511.488135097155,109125.0
63511.49813301054,109119.0
63511.50813092391,109063.0
63511.51812883729,109130.0
63511.52812675067,109082.0
63511.538124664046,109125.0
63511.54812257743,109121.0
63511.55812049081,109099.0
63511.56811840418,109135.0
63511.57811631756,109127.0
63511.588114230944,109114.0
63511.59811214432,109105.0
63511.6081100577,109099.0
63511.61810797108,109132.0
63511.628105884454,109175.0
63511.638103797835,109105.0
63511.64810171122,109111.0
63511.65809962459,109129.0
63511.66809753797,109108.0
63511.67809545135,109089.0
63511.688093364726,109097.0
63511.69809127811,109066.0
63511.70808919149,109058.0
63511.71808710486,109076.0
63511.72808501824,109032.0
63511.738082931624,109051.0
63511.748080845,109027.0
63511.75807875838,108985.0
63511.76807667176,108991.0
63511.778074585134,109031.0
63511.788072498515,109027.0
63511.798070411896,109027.0
63511.80806832527,109052.0
63511.81806623865,109012.0
63511.82806415203,109032.0
63511.838062065406,109004.0
63511.84805997879,108993.0
63511.85805789217,109064.0
63511.86805580554,109037.0
63511.87805371892,109021.0
63511.888051632304,109042.0
63511.89804954568,109017.0
63511.90804745906,109020.0
63511.91804537244,109021.0
63511.928043285814,109026.0
63511.938041199195,109010.0
63511.948039112576,109035.0
63511.95803702595,109007.0
63511.96803493933,109029.0
63511.97803285271,109044.0
63511.988030766086,109033.0
63511.99802867947,109007.0
63512.00802659285,109037.0
63512.01802450622,109017.0
63512.0280224196,109063.0
63512.038020332984,109044.0
63512.048018246365,109033.0
63512.05801615974,109059.0
63512.06801407312,109029.0
63512.0780119865,109039.0
63512.088009899875,109046.0
63512.098007813256,109016.0
63512.10800572664,109052.0
63512.11800364001,109028.0
63512.12800155339,109082.0
63512.13799946677,109042.0
63512.14799738015,109050.0
63512.15799529353,108997.0
63512.16799320691,109024.0
63512.17799112028,109034.0
63512.187989033664,109040.0
63512.197986947045,109069.0
63512.20798486042,109075.0
63512.2179827738,109052.0
63512.22798068718,109064.0
63512.237978600555,109071.0
63512.247976513936,109046.0
63512.25797442732,109074.0
63512.26797234069,109066.0
63512.27797025407,109041.0
63512.28796816745,109034.0
63512.29796608083,109078.0
63512.30796399421,109062.0
63512.31796190759,109053.0
63512.32795982096,109103.0
63512.337957734344,109078.0
63512.347955647725,109064.0
63512.3579535611,109040.0
63512.36795147448,109060.0
63512.37794938786,109072.0
63512.387947301235,109076.0
63512.397945214616,109061.0
63512.407943128,109075.0
63512.41794104137,109101.0
63512.42793895475,109061.0
63512.43793686813,109075.0
63512.44793478151,109046.0
63512.45793269489,109104.0
63512.46793060827,109119.0
63512.47792852164,109099.0
63512.487926435024,109062.0
63512.497924348405,109110.0
63512.50792226178,109087.0
63512.51792017516,109114.0
63512.52791808854,109072.0
63512.537916001915,109103.0
63512.547913915296,109123.0
63512.55791182868,109123.0
63512.56790974205,109088.0
63512.57790765543,109069.0
63512.58790556881,109054.0
63512.597903482194,109078.0
63512.60790139557,109062.0
63512.61789930895,109075.0
63512.62789722233,109031.0
63512.637895135704,109042.0
63512.647893049085,109039.0
63512.657890962466,109043.0
63512.66788887584,109026.0
63512.67788678922,109024.0
63512.6878847026,108986.0
63512.697882615976,109012.0
63512.70788052936,109039.0
63512.71787844274,109017.0
63512.72787635611,109013.0
63512.73787426949,109044.0
63512.747872182874,109028.0
63512.75787009625,109027.0
63512.76786800963,108998.0
63512.77786592301,109026.0
63512.78786383638,109028.0
63512.797861749765,109030.0
63512.807859663146,109033.0
63512.81785757652,109057.0
63512.8278554899,108992.0
63512.83785340328,109029.0
63512.847851316656,109029.0
63512.85784923004,109010.0
63512.86784714342,109013.0
63512.87784505679,109040.0
63512.88784297017,109044.0
63512.897840883554,109039.0
63512.90783879693,109041.0
63512.91783671031,109027.0
63512.92783462369,109010.0
63512.93783253706,109004.0
63512.947830450445,108998.0
63512.957828363826,109013.0
63512.9678262772,108991.0
63512.97782419058,109054.0
63512.98782210396,109030.0
63512.997820017335,109027.0
63513.00781793072,109043.0
63513.0178158441,109000.0
63513.02781375747,109038.0
63513.03781167085,109037.0
63513.04780958423,109059.0
63513.05780749761,109066.0
63513.06780541099,109059.0
63513.07780332437,109032.0
63513.08780123774,109017.0
63513.097799151124,109037.0
63513.107797064506,109017.0
63513.11779497788,109049.0
63513.12779289126,109056.0
63513.13779080464,109042.0
63513.147788718015,109034.0
63513.1577866314,109072.0
63513.16778454478,109041.0
63513.17778245815,109005.0
63513.18778037153,109034.0
63513.19777828491,109052.0
63513.207776198295,109048.0
63513.21777411167,109064.0
63513.22777202505,109045.0
63513.23776993843,109066.0
63513.247767851804,109050.0
63513.257765765185,109033.0
63513.26776367857,109052.0
63513.27776159194,109044.0
63513.28775950532,109061.0
63513.2977574187,109084.0
63513.307755332076,109045.0
63513.31775324546,109086.0
63513.32775115884,109045.0
63513.33774907221,109066.0
63513.34774698559,109050.0
63513.357744898974,109033.0
63513.36774281235,109052.0
63513.37774072573,109044.0
63513.38773863911,109061.0
63513.397736552484,109084.0
63513.407734465865,109045.0
63513.41773237925,109086.0
63513.42773029262,109076.0
63513.437728206,109034.0
63513.44772611938,109043.0
63513.457724032756,109034.0
63513.46772194614,109067.0
63513.47771985952,109043.0
63513.48771777289,109062.0
63513.49771568627,109067.0
63513.507713599654,109078.0
63513.51771151303,109095.0
63513.52770942641,109070.0
63513.53770733979,109111.0
63513.547705253164,109084.0
63513.557703166545,109099.0
63513.567701079926,109044.0
63513.5776989933,109031.0
63513.58769690668,109068.0
63513.59769482006,109037.0
63513.607692733436,109007.0
63513.61769064682,108995.0
63513.6276885602,109004.0
63513.63768647357,109019.0
63513.64768438695,109029.0
63513.657682300334,109010.0
63513.66768021371,109018.0
63513.67767812709,109021.0
63513.68767604047,109010.0
63513.697673953844,109032.0
63513.707671867225,109004.0
63513.717669780606,109001.0
63513.72766769398,109034.0
63513.73766560736,109017.0
63513.74766352074,109002.0
63513.75766143412,109040.0
63513.7676593475,109029.0
63513.77765726088,108983.0
63513.78765517426,109013.0
63513.79765308763,108975.0
63513.807651001014,108994.0
63513.817648914395,109030.0
63513.82764682777,109026.0
63513.83764474115,109016.0
63513.84764265453,109000.0
63513.857640567905,109023.0
63513.867638481286,109014.0
63513.87763639467,109018.0
63513.88763430804,109055.0
63513.89763222142,109004.0
63513.9076301348,109031.0
63513.91762804818,109019.0
63513.92762596156,109018.0
63513.93762387494,109057.0
63513.94762178831,109008.0
63513.957619701694,109028.0
63513.967617615075,108981.0
63513.97761552845,109022.0
63513.98761344183,109049.0
63513.99761135521,109032.0
63514.007609268585,109018.0
63514.017607181966,109042.0
63514.02760509535,109049.0
63514.03760300872,109036.0
63514.0476009221,109009.0
63514.05759883548,109042.0
63514.06759674886,109034.0
63514.07759466224,109046.0
63514.08759257562,109064.0
63514.09759048899,109036.0
63514.107588402374,109071.0
63514.117586315755,109038.0
63514.12758422913,109027.0
63514.13758214251,109016.0
63514.14758005589,109063.0
63514.157577969265,109053.0
63514.167575882646,109050.0
63514.17757379603,109039.0
63514.1875717094,109065.0
63514.19756962278,109071.0
63514.20756753616,109085.0
63514.21756544954,109037.0
63514.22756336292,109097.0
63514.2375612763,109069.0
63514.24755918967,109059.0
63514.257557103054,109074.0
63514.267555016435,109045.0
63514.27755292981,109073.0
63514.28755084319,109070.0
63514.29754875657,109071.0
63514.307546669945,109053.0
63514.317544583326,109071.0
63514.32754249671,109089.0
63514.33754041008,109075.0
63514.34753832346,109092.0
63514.35753623684,109082.0
63514.367534150224,109114.0
63514.3775320636,109041.0
63514.38752997698,109063.0
63514.39752789036,109080.0
63514.407525803734,109093.0
63514.417523717115,109084.0
63514.427521630496,109120.0
63514.43751954387,109100.0
63514.44751745725,109096.0
63514.45751537063,109131.0
63514.467513284006,109079.0
63514.47751119739,109096.0
63514.48750911077,109046.0
63514.49750702414,109107.0
63514.50750493752,109076.0
63514.517502850904,109033.0
63514.52750076428,109037.0
63514.53749867766,109030.0
63514.54749659104,109044.0
63514.55749450441,109017.0
63514.567492417795,109023.0
63514.577490331176,109004.0
63514.58748824455,109012.0
63514.59748615793,109011.0
63514.60748407131,109024.0
63514.617481984686,109016.0
63514.62747989807,109020.0
63514.63747781145,109016.0
63514.64747572482,108970.0
63514.6574736382,108973.0
63514.667471551584,108976.0
63514.67746946496,109038.0
63514.68746737834,109008.0
63514.69746529172,109001.0
63514.70746320509,108985.0
63514.717461118475,109025.0
63514.727459031856,109015.0
63514.73745694523,109026.0
63514.74745485861,109035.0
63514.75745277199,108980.0
63514.767450685365,109018.0
63514.77744859875,109026.0
63514.78744651213,109012.0
63514.7974444255,109007.0
63514.80744233888,109019.0
63514.81744025226,109039.0
63514.82743816564,109011.0
63514.83743607902,109034.0
63514.8474339924,109021.0
63514.85743190577,109012.0
63514.867429819154,109049.0
63514.877427732536,109021.0
63514.88742564591,109021.0
63514.89742355929,109032.0
63514.90742147267,109025.0
63514.91741938605,109048.0
63514.92741729943,109029.0
63514.93741521281,109029.0
63514.94741312619,109028.0
63514.95741103956,109051.0
63514.96740895294,109044.0
63514.977406866325,109026.0
63514.9874047797,109032.0
63514.99740269308,109013.0
63515.00740060646,109062.0
63515.017398519834,109071.0
63515.027396433215,109053.0
63515.0373943466,109054.0
63515.04739225997,109036.0
63515.05739017335,109024.0
63515.06738808673,109064.0
63515.077386000106,109045.0
63515.08738391349,109060.0
63515.09738182687,109084.0
63515.10737974024,109066.0
63515.11737765362,109055.0
63515.127375567004,109067.0
63515.13737348038,109060.0
63515.14737139376,109038.0
63515.15736930714,109097.0
63515.167367220514,109061.0
63515.177365133895,109027.0
63515.18736304728,109054.0
63515.19736096065,109029.0
63515.20735887403,109069.0
63515.21735678741,109081.0
63515.227354700786,109056.0
63515.23735261417,109030.0
63515.24735052755,109115.0
63515.25734844092,109077.0
63515.2673463543,109103.0
63515.277344267684,109067.0
63515.28734218106,109083.0
63515.29734009444,109094.0
63515.30733800782,109120.0
63515.317335921194,109059.0
63515.327333834575,109118.0
63515.337331747956,109097.0
63515.34732966133,109105.0
63515.35732757471,109120.0
63515.36732548809,109081.0
63515.377323401466,109109.0
63515.38732131485,109103.0
63515.39731922823,109093.0
63515.4073171416,109073.0
63515.41731505498,109111.0
63515.427312968364,109117.0
63515.43731088174,109087.0
63515.44730879512,109103.0
63515.4573067085,109069.0
63515.467304621874,109031.0
63515.477302535255,109073.0
63515.487300448636,109049.0
63515.49729836201,109038.0
63515.50729627539,109063.0
63515.51729418877,109036.0
63515.52729210215,109051.0
63515.53729001553,109040.0
63515.54728792891,109050.0
63515.55728584229,109016.0
63515.56728375566,109008.0
63515.577281669044,109029.0
63515.587279582425,108996.0
63515.5972774958,109023.0
63515.60727540918,109007.0
63515.61727332256,109032.0
63515.627271235935,109043.0
63515.637269149316,109024.0
63515.6472670627,109023.0
63515.65726497607,109047.0
63515.66726288945,109045.0
63515.67726080283,109071.0
63515.68725871621,109023.0
63515.69725662959,109059.0
63515.70725454297,109073.0
63515.71725245634,109049.0
63515.727250369724,109072.0
63515.737248283105,109052.0
63515.74724619648,109064.0
63515.75724410986,109043.0
63515.76724202324,109032.0
63515.777239936615,109056.0
63515.787237849996,109041.0
63515.79723576338,109046.0
63515.80723367675,109030.0
63515.81723159013,109043.0
63515.82722950351,109005.0
63515.83722741689,109078.0
63515.84722533027,109046.0
63515.85722324365,109053.0
63515.86722115702,109039.0
63515.877219070404,109069.0
63515.887216983785,109047.0
63515.89721489716,109028.0
63515.90721281054,109073.0
63515.91721072392,109087.0
63515.927208637295,109083.0
63515.937206550676,109076.0
63515.94720446406,109077.0
63515.95720237743,109057.0
63515.96720029081,109074.0
63515.97719820419,109037.0
63515.98719611757,109071.0
63515.99719403095,109081.0
63516.00719194433,109109.0
63516.0171898577,109088.0
63516.027187771084,109080.0
63516.037185684465,109080.0
63516.04718359784,109075.0
63516.05718151122,109091.0
63516.0671794246,109089.0
63516.07717733798,109069.0
63516.087175251356,109117.0
63516.09717316474,109071.0
63516.10717107812,109090.0
63516.11716899149,109073.0
63516.12716690487,109090.0
63516.137164818254,109101.0
63516.14716273163,109092.0
63516.15716064501,109108.0
63516.16715855839,109087.0
63516.177156471764,109074.0
63516.187154385145,109091.0
63516.197152298526,109115.0
63516.2071502119,109103.0
63516.21714812528,109114.0
63516.22714603866,109097.0
63516.237143952036,109102.0
63516.24714186542,109094.0
63516.2571397788,109079.0
63516.26713769217,109104.0
63516.27713560555,109098.0
63516.287133518934,109143.0
63516.29713143231,109101.0
63516.30712934569,109120.0
63516.31712725907,109127.0
63516.32712517244,109111.0
63516.337123085825,109141.0
63516.347120999206,109118.0
63516.35711891258,109103.0
63516.36711682596,109106.0
63516.37711473934,109060.0
63516.387112652716,109083.0
63516.3971105661,109092.0
63516.40710847948,109015.0
63516.41710639285,109044.0
63516.42710430623,109054.0
63516.437102219614,109070.0
63516.44710013299,109037.0
63516.45709804637,109033.0
63516.46709595975,109055.0
63516.47709387312,109032.0
63516.487091786505,109036.0
63516.497089699886,109062.0
63516.50708761326,109044.0
63516.51708552664,109013.0
63516.52708344002,109053.0
63516.537081353395,109050.0
63516.54707926678,109025.0
63516.55707718016,109051.0
63516.56707509353,109075.0
63516.57707300691,109053.0
63516.58707092029,109065.0
63516.59706883367,109055.0
63516.60706674705,109040.0
63516.61706466043,109040.0
63516.6270625738,109038.0
63516.637060487184,109071.0
63516.647058400566,109039.0
63516.65705631394,109081.0
63516.66705422732,109030.0
63516.6770521407,109065.0
63516.68705005408,109050.0
63516.69704796746,109043.0
63516.70704588084,109059.0
63516.71704379422,109064.0
63516.72704170759,109065.0
63516.73703962097,109053.0
63516.747037534355,109063.0
63516.75703544773,109078.0
63516.76703336111,109072.0
63516.77703127449,109044.0
63516.787029187864,109068.0
63516.797027101245,109073.0
63516.80702501463,109085.0
63516.817022928,109068.0
63516.82702084138,109104.0
63516.83701875476,109079.0
63516.847016668136,109062.0
63516.85701458152,109090.0
63516.8670124949,109067.0
63516.87701040827,109074.0
63516.88700832165,109103.0
63516.897006235034,109080.0
63516.90700414841,109106.0
63516.91700206179,109096.0
63516.92699997517,109070.0
63516.936997888544,109075.0
63516.946995801925,109126.0
63516.95699371531,109106.0
63516.96699162868,109107.0
63516.97698954206,109139.0
63516.98698745544,109078.0
63516.996985368816,109101.0
63517.0069832822,109123.0
63517.01698119558,109083.0
63517.02697910895,109140.0
63517.03697702233,109082.0
63517.046974935714,109120.0
63517.05697284909,109096.0
63517.06697076247,109080.0
63517.07696867585,109122.0
63517.086966589224,109130.0
63517.096964502605,109124.0
63517.106962415986,109125.0
63517.11696032936,109145.0
63517.12695824274,109113.0
63517.13695615612,109101.0
63517.146954069496,109110.0
63517.15695198288,109141.0
63517.16694989626,109131.0
63517.17694780963,109154.0
63517.18694572301,109108.0
63517.196943636394,109132.0
63517.20694154977,109128.0
63517.21693946315,109125.0
63517.22693737653,109113.0
63517.23693528991,109151.0
63517.246933203285,109155.0
63517.256931116666,109160.0
63517.26692903005,109146.0
63517.27692694342,109137.0
63517.2869248568,109118.0
63517.29692277018,109085.0
63517.30692068356,109083.0
63517.31691859694,109090.0
63517.32691651032,109074.0
63517.33691442369,109058.0
63517.346912337074,109072.0
63517.356910250455,109052.0
63517.36690816383,109070.0
63517.37690607721,109065.0
63517.38690399059,109048.0
63517.396901903965,109082.0
63517.406899817346,109069.0
63517.41689773073,109066.0
63517.4268956441,109093.0
63517.43689355748,109088.0
63517.44689147086,109056.0
63517.45688938424,109064.0
63517.46688729762,109078.0
63517.476885211,109064.0
63517.48688312437,109061.0
63517.496881037754,109048.0
63517.506878951135,109052.0
63517.51687686451,109030.0
63517.52687477789,109085.0
63517.53687269127,109079.0
63517.546870604645,109071.0
63517.556868518026,109104.0
63517.56686643141,109057.0
63517.57686434478,109082.0
63517.58686225816,109075.0
63517.59686017154,109043.0
63517.60685808492,109088.0
63517.6168559983,109065.0
63517.62685391168,109044.0
63517.63685182505,109092.0
63517.646849738434,109080.0
63517.656847651815,109060.0
63517.66684556519,109067.0
63517.67684347857,109060.0
63517.68684139195,109080.0
63517.696839305325,109101.0
63517.706837218706,109075.0
63517.71683513209,109103.0
63517.72683304546,109079.0
63517.73683095884,109076.0
63517.74682887222,109084.0
63517.7568267856,109083.0
63517.76682469898,109108.0
63517.77682261236,109123.0
63517.78682052573,109103.0
63517.796818439114,109115.0
63517.806816352495,109108.0
63517.816814265876,109089.0
63517.82681217925,109138.0
63517.83681009263,109087.0
63517.84680800601,109104.0
63517.856805919386,109069.0
63517.86680383277,109130.0
63517.87680174615,109107.0
63517.88679965952,109119.0
63517.8967975729,109108.0
63517.906795486284,109094.0
63517.91679339966,109125.0
63517.92679131304,109105.0
63517.93678922642,109110.0
63517.946787139794,109132.0
63517.956785053175,109134.0
63517.966782966556,109141.0
63517.97678087993,109115.0
63517.98677879331,109114.0
63517.99677670669,109118.0
63518.006774620066,109155.0
63518.01677253345,109131.0
63518.02677044683,109087.0
63518.0367683602,109108.0
63518.04676627358,109130.0
63518.056764186964,109139.0
63518.06676210034,109123.0
63518.07676001372,109112.0
63518.0867579271,109159.0
63518.09675584047,109135.0
63518.106753753855,109105.0
63518.116751667236,109153.0
63518.12674958061,109132.0
63518.13674749399,109156.0
63518.14674540737,109153.0
63518.156743320746,109144.0
63518.16674123413,109162.0
63518.17673914751,109158.0
63518.18673706088,109188.0
63518.19673497426,109107.0
63518.206732887644,109132.0
63518.21673080102,109146.0
63518.2267287144,109127.0
63518.23672662778,109121.0
63518.24672454115,109107.0
63518.256722454535,109110.0
63518.266720367916,109108.0
63518.27671828129,109073.0
63518.28671619467,109112.0
63518.29671410805,109087.0
63518.306712021425,109067.0
63518.31670993481,109081.0
63518.32670784819,109068.0
63518.33670576156,109085.0
63518.34670367494,109079.0
63518.35670158832,109032.0
63518.3666995017,109062.0
63518.37669741508,109077.0
63518.38669532846,109109.0
63518.39669324184,109064.0
63518.406691155215,109063.0
63518.416689068596,109087.0
63518.42668698198,109060.0
63518.43668489535,109112.0
63518.44668280873,109100.0
63518.45668072211,109089.0
63518.46667863549,109118.0
63518.47667654887,109072.0
63518.48667446225,109104.0
63518.49667237562,109095.0
63518.506670289,109094.0
63518.516668202385,109074.0
63518.52666611576,109106.0
63518.53666402914,109088.0
63518.54666194252,109073.0
63518.556659855894,109078.0
63518.566657769275,109095.0
63518.57665568266,109096.0
63518.58665359603,109079.0
63518.59665150941,109059.0
63518.60664942279,109120.0
63518.616647336166,109097.0
63518.62664524955,109099.0
63518.63664316293,109103.0
63518.6466410763,109110.0
63518.65663898968,109121.0
63518.666636903065,109106.0
63518.67663481644,109097.0
63518.68663272982,109110.0
63518.6966306432,109118.0
63518.706628556574,109130.0
63518.716626469955,109103.0
63518.72662438334,109147.0
63518.73662229671,109131.0
63518.74662021009,109141.0
63518.75661812347,109099.0
63518.766616036846,109145.0
63518.77661395023,109127.0
63518.78661186361,109136.0
63518.79660977698,109138.0
63518.80660769036,109144.0
63518.816605603744,109126.0
63518.82660351712,109146.0
63518.8366014305,109173.0
63518.84659934388,109132.0
63518.856597257254,109158.0
63518.866595170635,109146.0
63518.876593084016,109178.0
63518.88659099739,109117.0
63518.89658891077,109165.0
63518.90658682415,109136.0
63518.916584737526,109158.0
63518.92658265091,109179.0
63518.93658056429,109169.0
63518.94657847767,109155.0
63518.95657639104,109180.0
63518.966574304424,109143.0
63518.976572217805,109191.0
63518.98657013118,109156.0
63518.99656804456,109172.0
63519.00656595794,109190.0
63519.016563871315,109158.0
63519.026561784696,109148.0
63519.03655969808,109153.0
63519.04655761145,109146.0
63519.05655552483,109158.0
63519.06655343821,109178.0
63519.07655135159,109204.0
63519.08654926497,109153.0
63519.09654717835,109205.0
63519.10654509172,109172.0
63519.116543005104,109150.0
63519.126540918485,109205.0
63519.13653883186,109181.0
63519.14653674524,109178.0
63519.15653465862,109209.0
63519.166532571995,109165.0
63519.176530485376,109161.0
63519.18652839876,109154.0
63519.19652631213,109172.0
63519.20652422551,109142.0
63519.21652213889,109137.0
63519.22652005227,109138.0
63519.23651796565,109096.0
63519.24651587903,109093.0
63519.2565137924,109126.0
63519.266511705784,109131.0
63519.276509619165,109113.0
63519.28650753254,109085.0
63519.29650544592,109127.0
63519.3065033593,109096.0
63519.316501272675,109125.0
63519.326499186056,109131.0
63519.33649709944,109104.0
63519.34649501281,109129.0
63519.35649292619,109129.0
63519.36649083957,109100.0
63519.37648875295,109110.0
63519.38648666633,109159.0
63519.39648457971,109135.0
63519.40648249308,109131.0
63519.416480406464,109178.0
63519.426478319845,109096.0
63519.43647623322,109135.0
63519.4464741466,109130.0
63519.45647205998,109130.0
63519.466469973355,109127.0
63519.476467886736,109143.0
63519.48646580012,109144.0
63519.49646371349,109138.0
63519.50646162687,109170.0
63519.51645954025,109141.0
63519.52645745363,109120.0
63519.53645536701,109130.0
63519.54645328039,109136.0
63519.55645119377,109168.0
63519.566449107144,109136.0
63519.576447020525,109124.0
63519.586444933906,109141.0
63519.59644284728,109155.0
63519.60644076066,109138.0
63519.61643867404,109181.0
63519.626436587416,109190.0
63519.6364345008,109170.0
63519.64643241418,109181.0
63519.65643032755,109158.0
63519.66642824093,109185.0
63519.676426154314,109173.0
63519.68642406769,109138.0
63519.69642198107,109158.0
63519.70641989445,109138.0
63519.716417807824,109159.0
63519.726415721205,109173.0
63519.736413634586,109177.0
63519.74641154796,109144.0
63519.75640946134,109184.0
63519.76640737472,109143.0
63519.776405288096,109179.0
63519.78640320148,109156.0
63519.79640111486,109180.0
63519.80639902823,109194.0
63519.81639694161,109218.0
63519.826394854994,109151.0
63519.83639276837,109180.0
63519.84639068175,109161.0
63519.85638859513,109191.0
63519.8663865085,109194.0
63519.876384421885,109168.0
63519.886382335266,109142.0
63519.89638024864,109184.0
63519.90637816202,109148.0
63519.9163760754,109186.0
63519.926373988776,109159.0
63519.93637190216,109166.0
63519.94636981554,109163.0
63519.95636772891,109171.0
63519.96636564229,109159.0
63519.976363555674,109205.0
63519.98636146905,109195.0
63519.99635938243,109181.0
63520.00635729581,109196.0
63520.01635520918,109181.0
63520.026353122565,109197.0
63520.036351035946,109193.0
63520.04634894932,109192.0
63520.0563468627,109179.0
63520.06634477608,109211.0
63520.076342689455,109163.0
63520.08634060284,109187.0
63520.09633851622,109136.0
63520.1063364296,109122.0
63520.11633434297,109159.0
63520.12633225635,109138.0
63520.136330169735,109131.0
63520.14632808311,109106.0
63520.15632599649,109108.0
63520.16632390987,109132.0
63520.176321823245,109176.0
63520.186319736626,109145.0
63520.19631765001,109141.0
63520.20631556338,109127.0
63520.21631347676,109117.0
63520.22631139014,109095.0
63520.23630930352,109110.0
63520.2463072169,109132.0
63520.25630513028,109157.0
63520.26630304365,109115.0
63520.27630095703,109121.0
63520.286298870415,109137.0
63520.29629678379,109154.0
63520.30629469717,109120.0
63520.31629261055,109177.0
63520.326290523924,109155.0
63520.336288437305,109107.0
63520.34628635069,109161.0
63520.35628426406,109127.0
63520.36628217744,109129.0
63520.37628009082,109115.0
63520.386278004196,109119.0
63520.39627591758,109124.0
63520.40627383096,109130.0
63520.41627174433,109125.0
63520.42626965771,109120.0
63520.436267571095,109178.0
63520.44626548447,109151.0
63520.45626339785,109167.0
63520.46626131123,109135.0
63520.476259224604,109170.0
63520.486257137985,109169.0
63520.49625505137,109156.0
63520.50625296474,109134.0
63520.51625087812,109193.0
63520.5262487915,109163.0
63520.536246704876,109152.0
63520.54624461826,109166.0
63520.55624253164,109145.0
63520.56624044501,109173.0
63520.57623835839,109152.0
63520.586236271774,109186.0
63520.59623418515,109156.0
63520.60623209853,109174.0
63520.61623001191,109121.0
63520.626227925284,109169.0
63520.636225838665,109193.0
63520.646223752046,109139.0
63520.65622166542,109173.0
63520.6662195788,109152.0
63520.67621749218,109152.0
63520.686215405556,109199.0
63520.69621331894,109180.0
63520.70621123232,109182.0
63520.7162091457,109176.0
63520.72620705907,109159.0
63520.736204972454,109174.0
63520.746202885835,109175.0
63520.75620079921,109150.0
63520.76619871259,109194.0
63520.77619662597,109179.0
63520.786194539345,109189.0
63520.796192452726,109159.0
63520.80619036611,109195.0
63520.81618827948,109198.0
63520.82618619286,109169.0
63520.83618410624,109197.0
63520.84618201962,109205.0
63520.856179933,109200.0
63520.86617784638,109201.0
63520.87617575975,109208.0
63520.886173673134,109167.0
63520.896171586515,109212.0
63520.90616949989,109228.0
63520.91616741327,109194.0
63520.92616532665,109225.0
63520.936163240025,109200.0
63520.946161153406,109159.0
63520.95615906679,109192.0
63520.96615698016,109149.0
63520.97615489354,109172.0
63520.98615280692,109161.0
63520.9961507203,109120.0
63521.00614863368,109134.0
63521.01614654706,109153.0
63521.02614446043,109114.0
63521.036142373814,109110.0
63521.046140287195,109133.0
63521.05613820057,109124.0
63521.06613611395,109131.0
63521.07613402733,109122.0
63521.086131940705,109105.0
63521.096129854086,109116.0
63521.10612776747,109153.0
63521.11612568084,109148.0
63521.12612359422,109120.0
63521.1361215076,109125.0
63521.14611942098,109080.0
63521.15611733436,109077.0
63521.16611524774,109128.0
63521.17611316111,109134.0
63521.186111074494,109114.0
63521.196108987875,109167.0
63521.20610690125,109123.0
63521.21610481463,109139.0
63521.22610272801,109145.0
63521.236100641385,109118.0
63521.246098554766,109152.0
63521.25609646815,109128.0
63521.26609438153,109136.0
63521.2760922949,109168.0
63521.28609020828,109117.0
63521.296088121664,109108.0
63521.30608603504,109120.0
63521.31608394842,109159.0
63521.3260818618,109093.0
63521.336079775174,109169.0
63521.346077688555,109129.0
63521.356075601936,109123.0
63521.36607351531,109154.0
63521.37607142869,109123.0
63521.38606934207,109147.0
63521.396067255446,109174.0
63521.40606516883,109182.0
63521.41606308221,109130.0
63521.42606099558,109144.0
63521.43605890896,109163.0
63521.446056822344,109134.0
63521.45605473572,109139.0
63521.4660526491,109165.0
63521.47605056248,109168.0
63521.486048475854,109166.0
63521.496046389235,109183.0
63521.506044302616,109160.0
63521.51604221599,109196.0
63521.52604012937,109169.0
63521.53603804275,109176.0
63521.546035956126,109172.0
63521.55603386951,109184.0
63521.56603178289,109122.0
63521.57602969626,109189.0
63521.58602760964,109181.0
63521.596025523024,109168.0
63521.6060234364,109181.0
63521.61602134978,109198.0
63521.62601926316,109170.0
63521.636017176534,109159.0
63521.646015089915,109173.0
63521.656013003296,109211.0
63521.66601091667,109192.0
63521.67600883005,109155.0
63521.68600674343,109178.0
63521.696004656806,109166.0
63521.70600257019,109195.0
63521.71600048357,109161.0
63521.72599839694,109160.0
63521.73599631032,109182.0
63521.745994223704,109194.0
63521.75599213708,109185.0
63521.76599005046,109175.0
63521.77598796384,109237.0
63521.78598587721,109210.0
63521.795983790595,109195.0
63521.805981703976,109255.0
63521.81597961735,109214.0
63521.82597753073,109213.0
63521.83597544411,109208.0
63521.845973357485,109205.0
63521.85597127087,109193.0
63521.86596918425,109201.0
63521.87596709763,109203.0
63521.885965011,109135.0
63521.895962924384,109180.0
63521.905960837765,109153.0
63521.91595875114,109121.0
63521.92595666452,109178.0
63521.9359545779,109123.0
63521.945952491275,109122.0
63521.955950404656,109115.0
63521.96594831804,109122.0
63521.97594623141,109097.0
63521.98594414479,109154.0
63521.99594205817,109138.0
63522.00593997155,109149.0
63522.01593788493,109153.0
63522.02593579831,109127.0
63522.03593371168,109140.0
63522.04593162506,109113.0
63522.055929538445,109118.0
63522.06592745182,109141.0
63522.0759253652,109163.0
63522.08592327858,109130.0
63522.095921191954,109141.0
63522.105919105335,109137.0
63522.11591701872,109156.0
63522.12591493209,109165.0
63522.13591284547,109161.0
63522.14591075885,109127.0
63522.155908672226,109156.0
63522.16590658561,109180.0
63522.17590449899,109119.0
63522.18590241236,109180.0
63522.19590032574,109142.0
63522.205898239125,109109.0
63522.2158961525,109131.0
63522.22589406588,109131.0
63522.23589197926,109148.0
63522.245889892634,109134.0
63522.255887806015,109181.0
63522.2658857194,109124.0
63522.27588363277,109161.0
63522.28588154615,109171.0
63522.29587945953,109147.0
63522.305877372906,109155.0
63522.31587528629,109159.0
63522.32587319967,109176.0
63522.33587111304,109186.0
63522.34586902642,109143.0
63522.355866939804,109164.0
63522.36586485318,109165.0
63522.37586276656,109172.0
63522.38586067994,109160.0
63522.395858593314,109181.0
63522.405856506695,109207.0
63522.415854420076,109178.0
63522.42585233346,109181.0
63522.43585024683,109181.0
63522.44584816021,109160.0
63522.45584607359,109195.0
63522.46584398697,109179.0
63522.47584190035,109184.0
63522.48583981373,109213.0
63522.4958377271,109184.0
63522.505835640484,109225.0
63522.515833553865,109195.0
63522.52583146724,109223.0
63522.53582938062,109221.0
63522.545827294,109200.0
63522.555825207375,109208.0
63522.565823120756,109198.0
63522.57582103414,109235.0
63522.58581894751,109204.0
63522.59581686089,109211.0
63522.60581477427,109192.0
63522.61581268765,109196.0
63522.62581060103,109223.0
63522.63580851441,109240.0
63522.64580642778,109201.0
63522.655804341164,109234.0
63522.665802254545,109207.0
63522.67580016792,109205.0
63522.6857980813,109214.0
63522.69579599468,109198.0
63522.705793908055,109207.0
63522.715791821436,109202.0
63522.72578973482,109223.0
63522.73578764819,109212.0
63522.74578556157,109219.0
63522.75578347495,109211.0
63522.76578138833,109224.0
63522.77577930171,109214.0
63522.78577721509,109221.0
63522.79577512846,109179.0
63522.805773041844,109200.0
63522.815770955225,109150.0
63522.8257688686,109180.0
63522.83576678198,109156.0
63522.84576469536,109161.0
63522.855762608735,109141.0
63522.865760522116,109157.0
63522.8757584355,109105.0
63522.88575634887,109151.0
63522.89575426225,109129.0
63522.90575217563,109182.0
63522.91575008901,109130.0
63522.92574800239,109158.0
63522.93574591577,109144.0
63522.94574382914,109189.0
63522.955741742524,109149.0
63522.965739655905,109165.0
63522.97573756928,109134.0
63522.98573548266,109143.0
63522.99573339604,109153.0
63523.005731309415,109168.0
63523.015729222796,109154.0
63523.02572713618,109169.0
63523.03572504956,109152.0
63523.04572296293,109175.0
