time,ppg
62863.88195414137,129656.0
62863.892004790934,129640.0
62863.9020554405,129632.0
62863.91210609007,129650.0
62863.92215673964,129639.0
62863.93220738921,129656.0
62863.942258038776,129675.0
62863.95230868834,129658.0
62863.962359337915,129646.0
62863.97240998748,129673.0
62863.98246063705,129611.0
62863.99251128662,129661.0
62864.002561936184,129651.0
62864.01261258576,129636.0
62864.02266323532,129645.0
62864.03271388489,129651.0
62864.04276453446,129672.0
62864.052815184026,129635.0
62864.0628658336,129632.0
62864.072916483165,129651.0
62864.08296713273,129687.0
62864.0930177823,129644.0
62864.10306843187,129696.0
62864.11311908144,129668.0
62864.12316973101,129678.0
62864.13322038057,129683.0
62864.143271030145,129656.0
62864.15332167971,129603.0
62864.16337232928,129614.0
62864.17342297885,129601.0
62864.183473628415,129638.0
62864.19352427799,129612.0
62864.20357492755,129595.0
62864.213625577126,129646.0
62864.22367622669,129612.0
62864.23372687626,129596.0
62864.24377752583,129610.0
62864.253828175395,129611.0
62864.26387882496,129631.0
62864.27392947453,129620.0
62864.2839801241,129619.0
62864.29403077367,129608.0
62864.30408142324,129600.0
62864.3141320728,129620.0
62864.324182722376,129604.0
62864.33423337194,129558.0
62864.344284021514,129580.0
62864.35433467108,129625.0
62864.364385320645,129591.0
62864.37443597022,129630.0
62864.38448661978,129618.0
62864.394537269356,129631.0
62864.40458791892,129602.0
62864.41463856849,129623.0
62864.42468921806,129624.0
62864.434739867625,129586.0
62864.4447905172,129611.0
62864.454841166764,129597.0
62864.46489181633,129614.0
62864.4749424659,129606.0
62864.48499311547,129612.0
62864.49504376504,129621.0
62864.505094414606,129629.0
62864.51514506417,129634.0
62864.525195713744,129616.0
62864.53524636331,129598.0
62864.545297012875,129605.0
62864.55534766245,129574.0
62864.565398312014,129610.0
62864.57544896159,129646.0
62864.58549961115,129644.0
62864.59555026072,129616.0
62864.60560091029,129625.0
62864.615651559856,129601.0
62864.62570220943,129623.0
62864.635752858994,129599.0
62864.64580350856,129627.0
62864.65585415813,129620.0
62864.6659048077,129666.0
62864.67595545727,129632.0
62864.68600610684,129614.0
62864.6960567564,129592.0
62864.706107405975,129627.0
62864.71615805554,129630.0
62864.72620870511,129628.0
62864.73625935468,129632.0
62864.746310004244,129652.0
62864.75636065382,129637.0
62864.76641130338,129622.0
62864.77646195295,129643.0
62864.78651260252,129629.0
62864.796563252086,129617.0
62864.80661390166,129643.0
62864.816664551225,129634.0
62864.82671520079,129623.0
62864.83676585036,129636.0
62864.84681649993,129643.0
62864.8568671495,129656.0
62864.86691779907,129674.0
62864.87696844863,129639.0
62864.887019098205,129674.0
62864.89706974777,129666.0
62864.90712039734,129632.0
62864.91717104691,129641.0
62864.927221696475,129662.0
62864.93727234605,129648.0
62864.94732299561,129661.0
62864.957373645186,129675.0
62864.96742429475,129639.0
62864.97747494432,129658.0
62864.98752559389,129661.0
62864.997576243455,129639.0
62865.00762689302,129657.0
62865.01767754259,129667.0
62865.02772819216,129659.0
62865.03777884173,129689.0
62865.0478294913,129638.0
62865.05788014086,129669.0
62865.067930790436,129675.0
62865.07798144,129619.0
62865.088032089574,129654.0
62865.09808273914,129633.0
62865.108133388705,129637.0
62865.11818403828,129617.0
62865.12823468784,129630.0
62865.138285337416,129607.0
62865.14833598698,129570.0
62865.15838663655,129603.0
62865.16843728612,129623.0
62865.178487935686,129605.0
62865.18853858526,129596.0
62865.198589234824,129633.0
62865.20863988439,129623.0
62865.21869053396,129587.0
62865.22874118353,129575.0
62865.23879183309,129622.0
62865.248842482666,129589.0
62865.25889313223,129600.0
62865.268943781804,129607.0
62865.27899443137,129616.0
62865.289045080935,129587.0
62865.29909573051,129619.0
62865.309146380074,129599.0
62865.31919702965,129594.0
62865.32924767921,129595.0
62865.33929832878,129581.0
62865.34934897835,129587.0
62865.359399627916,129598.0
62865.36945027749,129605.0
62865.379500927054,129609.0
62865.38955157662,129608.0
62865.39960222619,129595.0
62865.40965287576,129640.0
62865.41970352533,129594.0
62865.4297541749,129605.0
62865.43980482446,129609.0
62865.449855474035,129600.0
62865.4599061236,129581.0
62865.469956773166,129614.0
62865.48000742274,129580.0
62865.490058072304,129573.0
62865.50010872188,129589.0
62865.51015937144,129607.0
62865.52021002101,129588.0
62865.53026067058,129594.0
62865.54031132015,129589.0
62865.55036196972,129616.0
62865.560412619285,129595.0
62865.57046326885,129614.0
62865.58051391842,129587.0
62865.59056456799,129621.0
62865.60061521756,129609.0
62865.61066586713,129632.0
62865.62071651669,129612.0
62865.630767166265,129618.0
62865.64081781583,129612.0
62865.6508684654,129624.0
62865.66091911497,129596.0
62865.670969764535,129635.0
62865.68102041411,129601.0
62865.69107106367,129652.0
62865.70112171324,129616.0
62865.71117236281,129635.0
62865.72122301238,129640.0
62865.73127366195,129614.0
62865.741324311515,129626.0
62865.75137496108,129679.0
62865.76142561065,129640.0
62865.77147626022,129625.0
62865.78152690979,129667.0
62865.79157755936,129663.0
62865.80162820892,129645.0
62865.811678858496,129631.0
62865.82172950806,129674.0
62865.831780157634,129639.0
62865.8418308072,129639.0
62865.851881456765,129660.0
62865.86193210634,129677.0
62865.8719827559,129651.0
62865.882033405476,129648.0
62865.89208405504,129652.0
62865.90213470461,129667.0
62865.91218535418,129636.0
62865.922236003746,129661.0
62865.93228665331,129688.0
62865.942337302884,129668.0
62865.95238795245,129678.0
62865.96243860202,129662.0
62865.97248925159,129687.0
62865.98253990115,129647.0
62865.992590550726,129689.0
62866.00264120029,129663.0
62866.012691849864,129626.0
62866.02274249943,129640.0
62866.032793148996,129641.0
62866.04284379857,129639.0
62866.052894448134,129568.0
62866.06294509771,129614.0
62866.07299574727,129621.0
62866.08304639684,129605.0
62866.09309704641,129586.0
62866.103147695976,129584.0
62866.11319834555,129588.0
62866.123248995114,129612.0
62866.13329964468,129615.0
62866.14335029425,129608.0
62866.15340094382,129572.0
62866.163451593384,129594.0
62866.17350224296,129572.0
62866.18355289252,129609.0
62866.193603542095,129559.0
62866.20365419166,129594.0
62866.213704841226,129574.0
62866.2237554908,129581.0
62866.233806140364,129571.0
62866.24385678994,129603.0
62866.2539074395,129582.0
62866.26395808907,129580.0
62866.27400873864,129631.0
62866.28405938821,129582.0
62866.29411003778,129585.0
62866.304160687345,129559.0
62866.31421133691,129615.0
62866.32426198648,129582.0
62866.33431263605,129602.0
62866.34436328562,129571.0
62866.35441393519,129613.0
62866.36446458475,129571.0
62866.374515234325,129582.0
62866.38456588389,129609.0
62866.39461653346,129580.0
62866.40466718303,129575.0
62866.414717832595,129602.0
62866.42476848217,129601.0
62866.43481913173,129571.0
62866.4448697813,129590.0
62866.45492043087,129598.0
62866.46497108044,129605.0
62866.47502173001,129604.0
62866.485072379575,129567.0
62866.49512302914,129606.0
62866.50517367871,129609.0
62866.51522432828,129601.0
62866.52527497785,129587.0
62866.53532562742,129607.0
62866.54537627698,129587.0
62866.555426926556,129620.0
62866.56547757612,129612.0
62866.575528225694,129599.0
62866.58557887526,129616.0
62866.595629524825,129620.0
62866.6056801744,129594.0
62866.61573082396,129613.0
62866.62578147353,129621.0
62866.6358321231,129623.0
62866.64588277267,129598.0
62866.65593342224,129612.0
62866.665984071806,129653.0
62866.67603472137,129597.0
62866.686085370944,129633.0
62866.69613602051,129609.0
62866.70618667008,129604.0
62866.71623731965,129601.0
62866.72628796921,129587.0
62866.736338618786,129627.0
62866.74638926835,129629.0
62866.756439917925,129609.0
62866.76649056749,129646.0
62866.776541217056,129609.0
62866.78659186663,129640.0
62866.796642516194,129643.0
62866.80669316577,129655.0
62866.81674381533,129595.0
62866.8267944649,129632.0
62866.83684511447,129619.0
62866.846895764036,129638.0
62866.8569464136,129605.0
62866.866997063174,129635.0
62866.87704771274,129669.0
62866.88709836231,129635.0
62866.89714901188,129670.0
62866.907199661444,129636.0
62866.91725031102,129659.0
62866.92730096058,129639.0
62866.937351610155,129630.0
62866.94740225972,129586.0
62866.957452909286,129576.0
62866.96750355886,129561.0
62866.977554208424,129559.0
62866.987604858,129567.0
62866.99765550756,129555.0
62867.00770615713,129593.0
62867.0177568067,129565.0
62867.02780745627,129567.0
62867.03785810584,129553.0
62867.047908755405,129583.0
62867.05795940497,129568.0
62867.06801005454,129576.0
62867.07806070411,129577.0
62867.088111353674,129576.0
62867.09816200325,129543.0
62867.10821265281,129553.0
62867.118263302385,129579.0
62867.12831395195,129570.0
62867.13836460152,129535.0
62867.14841525109,129568.0
62867.158465900655,129541.0
62867.16851655023,129537.0
62867.17856719979,129593.0
62867.18861784936,129563.0
62867.19866849893,129568.0
62867.2087191485,129544.0
62867.21876979807,129587.0
62867.228820447635,129577.0
62867.2388710972,129576.0
62867.248921746774,129562.0
62867.25897239634,129569.0
62867.26902304591,129546.0
62867.27907369548,129571.0
62867.28912434504,129577.0
62867.299174994616,129560.0
62867.30922564418,129568.0
62867.31927629375,129569.0
62867.32932694332,129555.0
62867.339377592885,129538.0
62867.34942824246,129533.0
62867.35947889202,129571.0
62867.36952954159,129569.0
62867.37958019116,129549.0
62867.38963084073,129599.0
62867.3996814903,129575.0
62867.409732139866,129564.0
62867.41978278943,129546.0
62867.429833439004,129587.0
62867.43988408857,129575.0
62867.44993473814,129551.0
62867.45998538771,129558.0
62867.47003603727,129551.0
62867.480086686846,129552.0
62867.49013733641,129597.0
62867.500187985985,129612.0
62867.51023863555,129558.0
62867.520289285116,129599.0
62867.53033993469,129579.0
62867.540390584254,129606.0
62867.55044123382,129629.0
62867.56049188339,129603.0
62867.57054253296,129584.0
62867.58059318253,129585.0
62867.590643832096,129595.0
62867.60069448166,129603.0
62867.610745131235,129646.0
62867.6207957808,129583.0
62867.63084643037,129581.0
62867.64089707994,129603.0
62867.650947729504,129578.0
62867.66099837908,129613.0
62867.67104902864,129627.0
62867.681099678215,129612.0
62867.69115032778,129607.0
62867.701200977346,129630.0
62867.71125162692,129598.0
62867.721302276484,129604.0
62867.73135292606,129612.0
62867.74140357562,129637.0
62867.75145422519,129627.0
62867.76150487476,129581.0
62867.77155552433,129617.0
62867.78160617389,129583.0
62867.791656823465,129593.0
62867.80170747303,129602.0
62867.8117581226,129625.0
62867.82180877217,129576.0
62867.831859421734,129613.0
62867.84191007131,129553.0
62867.85196072087,129575.0
62867.862011370446,129578.0
62867.87206202001,129552.0
62867.88211266958,129568.0
62867.89216331915,129542.0
62867.902213968715,129539.0
62867.91226461829,129562.0
62867.92231526785,129576.0
62867.93236591742,129546.0
62867.94241656699,129547.0
62867.95246721656,129514.0
62867.96251786613,129539.0
62867.972568515695,129529.0
62867.98261916526,129497.0
62867.992669814834,129558.0
62868.0027204644,129518.0
62868.012771113965,129497.0
62868.02282176354,129508.0
62868.0328724131,129534.0
62868.042923062676,129537.0
62868.05297371224,129538.0
62868.06302436181,129516.0
62868.07307501138,129510.0
62868.083125660945,129494.0
62868.09317631052,129537.0
62868.103226960084,129520.0
62868.11327760965,129530.0
62868.12332825922,129540.0
62868.13337890879,129535.0
62868.14342955836,129510.0
62868.153480207926,129506.0
62868.16353085749,129527.0
62868.173581507064,129532.0
62868.18363215663,129528.0
62868.1936828062,129503.0
62868.20373345577,129561.0
62868.21378410533,129541.0
62868.22383475491,129547.0
62868.23388540447,129524.0
62868.24393605404,129566.0
62868.25398670361,129515.0
62868.264037353176,129546.0
62868.27408800275,129547.0
62868.284138652314,129550.0
62868.29418930188,129565.0
62868.30423995145,129542.0
62868.31429060102,129528.0
62868.32434125059,129542.0
62868.334391900156,129520.0
62868.34444254972,129551.0
62868.354493199295,129571.0
62868.36454384886,129535.0
62868.37459449843,129547.0
62868.384645148,129554.0
62868.394695797564,129577.0
62868.40474644714,129549.0
62868.4147970967,129540.0
62868.424847746275,129557.0
62868.43489839584,129566.0
62868.444949045406,129562.0
62868.45499969498,129574.0
62868.465050344545,129566.0
62868.47510099411,129541.0
62868.48515164368,129586.0
62868.49520229325,129575.0
62868.50525294282,129578.0
62868.51530359239,129541.0
62868.52535424195,129541.0
62868.535404891525,129571.0
62868.54545554109,129565.0
62868.55550619066,129568.0
62868.56555684023,129579.0
62868.575607489794,129556.0
62868.58565813937,129577.0
62868.59570878893,129586.0
62868.605759438506,129547.0
62868.61581008807,129608.0
62868.62586073764,129580.0
62868.63591138721,129578.0
62868.645962036775,129557.0
62868.65601268635,129599.0
62868.66606333591,129594.0
62868.67611398548,129594.0
62868.68616463505,129557.0
62868.69621528462,129587.0
62868.70626593418,129568.0
62868.716316583756,129589.0
62868.72636723332,129590.0
62868.736417882894,129605.0
62868.74646853246,129574.0
62868.756519182025,129603.0
62868.7665698316,129570.0
62868.77662048116,129552.0
62868.786671130736,129557.0
62868.7967217803,129575.0
62868.80677242987,129525.0
62868.81682307944,129513.0
62868.826873729005,129533.0
62868.83692437858,129522.0
62868.846975028144,129555.0
62868.85702567771,129505.0
62868.86707632728,129525.0
62868.87712697685,129518.0
62868.88717762642,129487.0
62868.897228275986,129495.0
62868.90727892555,129544.0
62868.917329575124,129508.0
62868.92738022469,129502.0
62868.937430874255,129540.0
62868.94748152383,129499.0
62868.957532173394,129509.0
62868.96758282297,129468.0
62868.97763347253,129503.0
62868.9876841221,129495.0
62868.99773477167,129497.0
62869.007785421236,129503.0
62869.01783607081,129475.0
62869.027886720374,129481.0
62869.03793736994,129499.0
62869.04798801951,129515.0
62869.05803866908,129492.0
62869.06808931865,129494.0
62869.07813996822,129491.0
62869.08819061778,129477.0
62869.098241267355,129490.0
62869.10829191692,129516.0
62869.11834256649,129507.0
62869.12839321606,129503.0
62869.138443865624,129491.0
62869.1484945152,129514.0
62869.15854516476,129498.0
62869.16859581433,129495.0
62869.1786464639,129501.0
62869.188697113466,129518.0
62869.19874776304,129481.0
62869.208798412605,129515.0
62869.21884906217,129520.0
62869.22889971174,129494.0
62869.23895036131,129498.0
62869.24900101088,129495.0
62869.25905166045,129534.0
62869.26910231001,129491.0
62869.279152959585,129522.0
62869.28920360915,129517.0
62869.29925425872,129498.0
62869.30930490829,129509.0
62869.319355557855,129512.0
62869.32940620743,129510.0
62869.33945685699,129494.0
62869.349507506566,129536.0
62869.35955815613,129516.0
62869.3696088057,129517.0
62869.37965945527,129493.0
62869.389710104835,129524.0
62869.39976075441,129532.0
62869.40981140397,129517.0
62869.41986205354,129543.0
62869.42991270311,129548.0
62869.43996335268,129503.0
62869.45001400224,129528.0
62869.460064651816,129523.0
62869.47011530138,129556.0
62869.480165950954,129502.0
62869.49021660052,129522.0
62869.500267250085,129523.0
62869.51031789966,129531.0
62869.52036854922,129516.0
62869.530419198796,129538.0
62869.54046984836,129557.0
62869.55052049793,129541.0
62869.5605711475,129567.0
62869.570621797066,129535.0
62869.58067244664,129532.0
62869.590723096204,129518.0
62869.60077374577,129582.0
62869.61082439534,129524.0
62869.62087504491,129532.0
62869.63092569448,129565.0
62869.640976344046,129531.0
62869.65102699361,129561.0
62869.661077643184,129531.0
62869.67112829275,129570.0
62869.681178942315,129544.0
62869.69122959189,129542.0
62869.701280241454,129559.0
62869.71133089103,129579.0
62869.72138154059,129544.0
62869.73143219016,129595.0
62869.74148283973,129571.0
62869.751533489296,129567.0
62869.76158413887,129537.0
62869.771634788434,129576.0
62869.781685438,129566.0
62869.79173608757,129555.0
62869.80178673714,129552.0
62869.81183738671,129530.0
62869.82188803628,129554.0
62869.83193868584,129530.0
62869.841989335415,129544.0
62869.85203998498,129494.0
62869.86209063455,129505.0
62869.87214128412,129506.0
62869.882191933684,129501.0
62869.89224258326,129477.0
62869.90229323282,129497.0
62869.91234388239,129509.0
62869.92239453196,129501.0
62869.93244518153,129499.0
62869.9424958311,129492.0
62869.952546480665,129516.0
62869.96259713023,129482.0
62869.9726477798,129492.0
62869.98269842937,129500.0
62869.99274907894,129490.0
62870.00279972851,129452.0
62870.01285037807,129510.0
62870.022901027645,129483.0
62870.03295167721,129467.0
62870.04300232678,129503.0
62870.05305297635,129498.0
62870.063103625915,129483.0
62870.07315427549,129454.0
62870.08320492505,129509.0
62870.093255574626,129521.0
62870.10330622419,129492.0
62870.11335687376,129472.0
62870.12340752333,129491.0
62870.133458172895,129457.0
62870.14350882246,129468.0
62870.15355947203,129472.0
62870.1636101216,129497.0
62870.17366077117,129474.0
62870.18371142074,129487.0
62870.1937620703,129493.0
62870.203812719876,129462.0
62870.21386336944,129477.0
62870.223914019014,129473.0
62870.23396466858,129504.0
62870.244015318145,129487.0
62870.25406596772,129486.0
62870.26411661728,129533.0
62870.274167266856,129487.0
62870.28421791642,129483.0
62870.29426856599,129486.0
62870.30431921556,129497.0
62870.314369865126,129503.0
62870.3244205147,129531.0
62870.334471164264,129538.0
62870.34452181383,129486.0
62870.3545724634,129513.0
62870.36462311297,129521.0
62870.37467376253,129534.0
62870.384724412106,129492.0
62870.39477506167,129513.0
62870.404825711244,129559.0
62870.41487636081,129500.0
62870.424927010376,129536.0
62870.43497765995,129529.0
62870.445028309514,129510.0
62870.45507895909,129498.0
62870.46512960865,129558.0
62870.47518025822,129525.0
62870.48523090779,129529.0
62870.495281557356,129555.0
62870.50533220693,129553.0
62870.515382856494,129534.0
62870.52543350606,129565.0
62870.53548415563,129571.0
62870.5455348052,129502.0
62870.55558545477,129533.0
62870.56563610434,129502.0
62870.5756867539,129515.0
62870.585737403475,129540.0
62870.59578805304,129545.0
62870.605838702606,129528.0
62870.61588935218,129579.0
62870.625940001744,129554.0
62870.63599065132,129554.0
62870.64604130088,129520.0
62870.65609195045,129530.0
62870.66614260002,129543.0
62870.67619324959,129553.0
62870.68624389916,129543.0
62870.696294548725,129526.0
62870.70634519829,129518.0
62870.71639584786,129586.0
62870.72644649743,129564.0
62870.736497147,129555.0
62870.74654779657,129567.0
62870.75659844613,129546.0
62870.766649095705,129554.0
62870.77669974527,129534.0
62870.786750394844,129590.0
62870.79680104441,129539.0
62870.806851693975,129563.0
62870.81690234355,129549.0
62870.82695299311,129516.0
62870.83700364268,129511.0
62870.84705429225,129517.0
62870.85710494182,129504.0
62870.86715559139,129503.0
62870.877206240955,129508.0
62870.88725689052,129504.0
62870.89730754009,129532.0
62870.90735818966,129513.0
62870.91740883923,129477.0
62870.9274594888,129500.0
62870.93751013836,129456.0
62870.947560787936,129515.0
62870.9576114375,129514.0
62870.967662087074,129498.0
62870.97771273664,129498.0
62870.987763386205,129519.0
62870.99781403578,129474.0
62871.00786468534,129507.0
62871.017915334916,129474.0
62871.02796598448,129486.0
62871.03801663405,129493.0
62871.04806728362,129495.0
62871.058117933186,129525.0
62871.06816858275,129501.0
62871.078219232324,129481.0
62871.08826988189,129489.0
62871.09832053146,129521.0
62871.10837118103,129519.0
62871.11842183059,129488.0
62871.128472480166,129499.0
62871.13852312973,129519.0
62871.148573779305,129483.0
62871.15862442887,129522.0
62871.168675078436,129488.0
62871.17872572801,129512.0
62871.188776377574,129494.0
62871.19882702715,129501.0
62871.20887767671,129538.0
62871.21892832628,129495.0
62871.22897897585,129475.0
62871.239029625416,129523.0
62871.24908027499,129506.0
62871.259130924554,129512.0
62871.26918157412,129495.0
62871.27923222369,129507.0
62871.28928287326,129521.0
62871.299333522824,129520.0
62871.3093841724,129514.0
62871.31943482196,129487.0
62871.329485471535,129528.0
62871.3395361211,129519.0
62871.349586770666,129509.0
62871.35963742024,129524.0
62871.369688069804,129525.0
62871.37973871938,129525.0
62871.38978936894,129550.0
62871.39984001851,129489.0
62871.40989066808,129512.0
62871.41994131765,129522.0
62871.42999196722,129548.0
62871.440042616785,129537.0
62871.45009326635,129521.0
62871.46014391592,129544.0
62871.47019456549,129525.0
62871.48024521506,129523.0
62871.49029586463,129522.0
62871.50034651419,129538.0
62871.510397163765,129538.0
62871.52044781333,129533.0
62871.5304984629,129565.0
62871.54054911247,129547.0
62871.550599762035,129501.0
62871.56065041161,129527.0
62871.57070106117,129551.0
62871.58075171074,129546.0
62871.59080236031,129535.0
62871.60085300988,129532.0
62871.61090365945,129517.0
62871.620954309015,129545.0
62871.63100495858,129530.0
62871.641055608154,129582.0
62871.65110625772,129578.0
62871.66115690729,129554.0
62871.67120755686,129552.0
62871.68125820642,129566.0
62871.691308855996,129585.0
62871.70135950556,129584.0
62871.711410155134,129554.0
62871.7214608047,129537.0
62871.731511454265,129564.0
62871.74156210384,129584.0
62871.7516127534,129525.0
62871.76166340297,129507.0
62871.77171405254,129492.0
62871.78176470211,129519.0
62871.79181535168,129506.0
62871.801866001246,129504.0
62871.81191665081,129521.0
62871.821967300384,129504.0
62871.83201794995,129502.0
62871.84206859952,129505.0
62871.85211924909,129509.0
62871.86216989865,129463.0
62871.872220548226,129507.0
62871.88227119779,129513.0
62871.892321847365,129470.0
62871.90237249693,129490.0
62871.912423146496,129502.0
62871.92247379607,129497.0
62871.932524445634,129487.0
62871.94257509521,129519.0
62871.95262574477,129491.0
62871.96267639434,129503.0
62871.97272704391,129529.0
62871.982777693476,129495.0
62871.99282834304,129506.0
62872.002878992615,129512.0
62872.01292964218,129512.0
62872.02298029175,129485.0
62872.03303094132,129507.0
62872.043081590884,129492.0
62872.05313224046,129477.0
62872.06318289002,129472.0
62872.073233539595,129502.0
62872.08328418916,129528.0
62872.093334838726,129519.0
62872.1033854883,129489.0
62872.113436137864,129500.0
62872.12348678744,129475.0
62872.133537437,129487.0
62872.14358808657,129506.0
62872.15363873614,129515.0
62872.16368938571,129520.0
62872.17374003528,129491.0
62872.183790684845,129517.0
62872.19384133441,129500.0
62872.20389198398,129517.0
62872.21394263355,129508.0
62872.223993283114,129542.0
62872.23404393269,129504.0
62872.24409458225,129519.0
62872.254145231826,129514.0
62872.26419588139,129551.0
62872.27424653096,129493.0
62872.28429718053,129526.0
62872.294347830095,129541.0
62872.30439847967,129527.0
62872.31444912923,129520.0
62872.3244997788,129532.0
62872.33455042837,129560.0
62872.34460107794,129526.0
62872.35465172751,129566.0
62872.364702377075,129548.0
62872.37475302664,129534.0
62872.384803676214,129516.0
62872.39485432578,129561.0
62872.40490497535,129550.0
62872.41495562492,129533.0
62872.42500627448,129544.0
62872.435056924056,129571.0
62872.44510757362,129551.0
62872.45515822319,129545.0
62872.46520887276,129559.0
62872.475259522325,129571.0
62872.4853101719,129567.0
62872.495360821464,129539.0
62872.50541147103,129530.0
62872.5154621206,129545.0
62872.52551277017,129572.0
62872.53556341974,129574.0
62872.545614069306,129569.0
62872.55566471887,129540.0
62872.565715368444,129577.0
62872.57576601801,129585.0
62872.58581666758,129562.0
62872.59586731715,129574.0
62872.60591796671,129572.0
62872.61596861629,129561.0
62872.62601926585,129551.0
62872.636069915425,129562.0
62872.64612056499,129557.0
62872.656171214556,129526.0
62872.66622186413,129537.0
62872.676272513694,129509.0
62872.68632316326,129493.0
62872.69637381283,129502.0
62872.7064244624,129532.0
62872.71647511197,129498.0
62872.726525761536,129472.0
62872.7365764111,129498.0
62872.746627060675,129501.0
62872.75667771024,129528.0
62872.76672835981,129510.0
62872.77677900938,129489.0
62872.786829658944,129492.0
62872.79688030852,129476.0
62872.80693095808,129467.0
62872.816981607655,129492.0
62872.82703225722,129509.0
62872.837082906786,129476.0
62872.84713355636,129514.0
62872.857184205925,129502.0
62872.8672348555,129459.0
62872.87728550506,129475.0
62872.88733615463,129468.0
62872.8973868042,129496.0
62872.90743745377,129464.0
62872.91748810333,129513.0
62872.927538752905,129524.0
62872.93758940247,129476.0
62872.94764005204,129452.0
62872.95769070161,129499.0
62872.967741351174,129478.0
62872.97779200075,129509.0
62872.98784265031,129497.0
62872.997893299886,129510.0
62873.00794394945,129517.0
62873.01799459902,129500.0
62873.02804524859,129502.0
62873.038095898155,129535.0
62873.04814654773,129500.0
62873.05819719729,129501.0
62873.06824784686,129554.0
62873.07829849643,129499.0
62873.088349146,129540.0
62873.09839979557,129515.0
62873.108450445136,129531.0
62873.1185010947,129516.0
62873.128551744274,129513.0
62873.13860239384,129521.0
62873.148653043405,129527.0
62873.15870369298,129507.0
62873.16875434254,129535.0
62873.178804992116,129497.0
62873.18885564168,129538.0
62873.19890629125,129559.0
62873.20895694082,129525.0
62873.219007590385,129527.0
62873.22905823996,129528.0
62873.239108889524,129522.0
62873.24915953909,129562.0
62873.25921018866,129542.0
62873.26926083823,129548.0
62873.2793114878,129547.0
62873.289362137366,129514.0
62873.29941278693,129556.0
62873.309463436504,129544.0
62873.31951408607,129558.0
62873.32956473564,129537.0
62873.33961538521,129572.0
62873.349666034774,129554.0
62873.35971668435,129543.0
62873.36976733391,129531.0
62873.37981798348,129570.0
62873.38986863305,129557.0
62873.399919282616,129558.0
62873.40996993219,129579.0
62873.420020581754,129519.0
62873.43007123132,129566.0
62873.44012188089,129545.0
62873.45017253046,129569.0
62873.46022318003,129576.0
62873.4702738296,129538.0
62873.48032447916,129540.0
62873.490375128735,129583.0
62873.5004257783,129551.0
62873.51047642787,129569.0
62873.52052707744,129607.0
62873.530577727004,129562.0
62873.54062837658,129557.0
62873.55067902614,129567.0
62873.560729675715,129586.0
62873.57078032528,129545.0
62873.580830974846,129554.0
62873.59088162442,129535.0
62873.600932273985,129476.0
62873.61098292355,129492.0
62873.62103357312,129496.0
62873.63108422269,129506.0
62873.64113487226,129484.0
62873.65118552183,129500.0
62873.66123617139,129514.0
62873.671286820965,129498.0
62873.68133747053,129508.0
62873.6913881201,129512.0
62873.70143876967,129496.0
62873.711489419235,129537.0
62873.72154006881,129510.0
62873.73159071837,129508.0
62873.741641367946,129495.0
62873.75169201751,129499.0
62873.76174266708,129494.0
62873.77179331665,129521.0
62873.781843966215,129479.0
62873.79189461579,129482.0
62873.80194526535,129503.0
62873.81199591492,129477.0
62873.82204656449,129523.0
62873.83209721406,129521.0
62873.84214786362,129507.0
62873.852198513196,129481.0
62873.86224916276,129492.0
62873.872299812334,129537.0
62873.8823504619,129498.0
62873.892401111465,129485.0
62873.90245176104,129499.0
62873.9125024106,129493.0
62873.922553060176,129512.0
62873.93260370974,129485.0
62873.94265435931,129536.0
62873.95270500888,129507.0
62873.962755658446,129521.0
62873.97280630802,129491.0
62873.982856957584,129496.0
62873.99290760715,129518.0
62874.00295825672,129544.0
62874.01300890629,129514.0
62874.02305955586,129504.0
62874.033110205426,129524.0
62874.04316085499,129523.0
62874.053211504564,129570.0
62874.06326215413,129557.0
62874.073312803695,129530.0
62874.08336345327,129521.0
62874.093414102834,129548.0
62874.10346475241,129517.0
62874.11351540197,129557.0
62874.12356605154,129525.0
62874.13361670111,129490.0
62874.143667350676,129516.0
62874.15371800025,129553.0
62874.163768649814,129525.0
62874.17381929938,129539.0
62874.18386994895,129577.0
62874.19392059852,129540.0
62874.20397124809,129541.0
62874.21402189766,129543.0
62874.22407254722,129537.0
62874.234123196795,129539.0
62874.24417384636,129565.0
62874.25422449593,129550.0
62874.2642751455,129523.0
62874.274325795064,129515.0
62874.28437644464,129540.0
62874.2944270942,129544.0
62874.304477743775,129564.0
62874.31452839334,129572.0
62874.32457904291,129552.0
62874.33462969248,129550.0
62874.344680342045,129539.0
62874.35473099161,129569.0
62874.36478164118,129570.0
62874.37483229075,129566.0
62874.38488294032,129553.0
62874.39493358989,129583.0
62874.40498423945,129563.0
62874.415034889025,129570.0
62874.42508553859,129548.0
62874.43513618816,129546.0
62874.44518683773,129538.0
62874.455237487295,129543.0
62874.46528813687,129516.0
62874.47533878643,129545.0
62874.485389436006,129504.0
62874.49544008557,129501.0
62874.50549073514,129496.0
62874.51554138471,129487.0
62874.525592034275,129516.0
62874.53564268385,129472.0
62874.54569333341,129495.0
62874.55574398298,129487.0
62874.56579463255,129489.0
62874.57584528212,129498.0
62874.58589593168,129499.0
62874.595946581256,129474.0
62874.60599723082,129476.0
62874.616047880394,129489.0
62874.62609852996,129497.0
62874.636149179525,129506.0
62874.6461998291,129501.0
62874.65625047866,129492.0
62874.666301128236,129484.0
62874.6763517778,129489.0
62874.68640242737,129500.0
62874.69645307694,129486.0
62874.706503726506,129501.0
62874.71655437608,129478.0
62874.726605025644,129530.0
62874.73665567521,129504.0
62874.74670632478,129498.0
62874.75675697435,129484.0
62874.76680762392,129493.0
62874.776858273486,129473.0
62874.78690892305,129500.0
62874.796959572624,129518.0
62874.80701022219,129515.0
62874.817060871756,129489.0
62874.82711152133,129502.0
62874.837162170894,129494.0
62874.84721282047,129499.0
62874.85726347003,129518.0
62874.8673141196,129496.0
62874.87736476917,129505.0
62874.887415418736,129500.0
62874.89746606831,129535.0
62874.907516717874,129511.0
62874.91756736744,129513.0
62874.92761801701,129516.0
62874.93766866658,129497.0
62874.94771931615,129514.0
62874.95776996572,129481.0
62874.96782061528,129534.0
62874.977871264855,129494.0
62874.98792191442,129518.0
62874.99797256399,129519.0
62875.00802321356,129547.0
62875.018073863124,129554.0
62875.0281245127,129517.0
62875.03817516226,129546.0
62875.04822581183,129531.0
62875.0582764614,129504.0
62875.06832711097,129520.0
62875.07837776054,129527.0
62875.088428410105,129502.0
62875.09847905967,129527.0
62875.10852970924,129530.0
62875.11858035881,129522.0
62875.12863100838,129515.0
62875.13868165795,129520.0
62875.14873230751,129525.0
62875.158782957085,129544.0
62875.16883360665,129523.0
62875.178884256224,129537.0
62875.18893490579,129508.0
62875.198985555355,129552.0
62875.20903620493,129528.0
62875.21908685449,129563.0
62875.229137504066,129543.0
62875.23918815363,129551.0
62875.2492388032,129537.0
62875.25928945277,129522.0
62875.269340102335,129507.0
62875.2793907519,129530.0
62875.28944140147,129527.0
62875.29949205104,129487.0
62875.30954270061,129527.0
62875.31959335018,129493.0
62875.32964399974,129456.0
62875.339694649316,129501.0
62875.34974529888,129498.0
62875.359795948454,129482.0
62875.36984659802,129476.0
62875.379897247585,129488.0
62875.38994789716,129454.0
62875.39999854672,129478.0
62875.410049196296,129468.0
62875.42009984586,129502.0
62875.43015049543,129483.0
62875.440201145,129480.0
62875.450251794566,129468.0
62875.46030244414,129429.0
62875.470353093704,129441.0
62875.48040374327,129453.0
62875.49045439284,129475.0
62875.50050504241,129475.0
62875.51055569197,129476.0
62875.520606341546,129456.0
62875.53065699111,129445.0
62875.540707640685,129453.0
62875.55075829025,129482.0
62875.560808939816,129474.0
62875.57085958939,129485.0
62875.580910238954,129469.0
62875.59096088853,129492.0
62875.60101153809,129467.0
62875.61106218766,129466.0
62875.62111283723,129473.0
62875.631163486796,129478.0
62875.64121413637,129479.0
62875.651264785934,129469.0
62875.6613154355,129500.0
62875.67136608507,129469.0
62875.68141673464,129465.0
62875.69146738421,129479.0
62875.70151803378,129490.0
62875.71156868334,129455.0
62875.721619332915,129484.0
62875.73166998248,129508.0
62875.741720632046,129465.0
62875.75177128162,129481.0
62875.761821931184,129496.0
62875.77187258076,129481.0
62875.78192323032,129500.0
62875.79197387989,129504.0
62875.80202452946,129496.0
62875.81207517903,129492.0
62875.8221258286,129470.0
62875.832176478165,129499.0
62875.84222712773,129486.0
62875.8522777773,129493.0
62875.86232842687,129517.0
62875.87237907644,129501.0
62875.88242972601,129474.0
62875.89248037557,129509.0
62875.902531025145,129497.0
62875.91258167471,129504.0
62875.922632324284,129507.0
62875.93268297385,129505.0
62875.942733623415,129512.0
62875.95278427299,129484.0
62875.96283492255,129471.0
62875.97288557212,129515.0
62875.98293622169,129506.0
62875.99298687126,129510.0
62876.00303752083,129536.0
62876.013088170395,129518.0
62876.02313881996,129493.0
62876.033189469534,129514.0
62876.0432401191,129538.0
62876.05329076867,129523.0
62876.06334141824,129502.0
62876.0733920678,129548.0
62876.083442717376,129557.0
62876.09349336694,129519.0
62876.103544016514,129515.0
62876.11359466608,129545.0
62876.123645315645,129551.0
62876.13369596522,129507.0
62876.14374661478,129513.0
62876.15379726436,129495.0
62876.16384791392,129489.0
62876.17389856349,129505.0
62876.18394921306,129488.0
62876.193999862626,129470.0
62876.20405051219,129449.0
62876.214101161764,129495.0
62876.22415181133,129458.0
62876.2342024609,129454.0
62876.24425311047,129474.0
62876.25430376003,129458.0
62876.264354409606,129427.0
62876.27440505917,129421.0
62876.284455708745,129463.0
62876.29450635831,129443.0
62876.304557007876,129453.0
62876.31460765745,129466.0
62876.324658307014,129454.0
62876.33470895659,129468.0
62876.34475960615,129444.0
62876.35481025572,129459.0
62876.36486090529,129432.0
62876.374911554856,129405.0
62876.38496220443,129445.0
62876.395012853995,129420.0
62876.40506350356,129458.0
62876.41511415313,129409.0
62876.4251648027,129430.0
62876.435215452264,129452.0
62876.44526610184,129423.0
62876.4553167514,129415.0
62876.465367400975,129448.0
62876.47541805054,129416.0
62876.485468700106,129447.0
62876.49551934968,129409.0
62876.505569999244,129459.0
62876.51562064882,129443.0
62876.52567129838,129419.0
62876.53572194795,129467.0
62876.54577259752,129450.0
62876.55582324709,129433.0
62876.56587389666,129471.0
62876.575924546225,129429.0
62876.58597519579,129454.0
62876.59602584536,129448.0
62876.60607649493,129467.0
62876.6161271445,129430.0
62876.62617779407,129458.0
62876.63622844363,129438.0
62876.646279093206,129452.0
62876.65632974277,129442.0
62876.66638039234,129433.0
62876.67643104191,129460.0
62876.686481691475,129436.0
62876.69653234105,129483.0
62876.70658299061,129490.0
62876.71663364018,129466.0
62876.72668428975,129448.0
62876.73673493932,129466.0
62876.74678558889,129481.0
62876.756836238455,129468.0
62876.76688688802,129449.0
62876.776937537594,129465.0
62876.78698818716,129458.0
62876.79703883673,129461.0
62876.8070894863,129496.0
62876.81714013586,129475.0
62876.827190785436,129446.0
62876.837241435,129481.0
62876.847292084574,129480.0
62876.85734273414,129484.0
62876.867393383705,129493.0
62876.87744403328,129483.0
62876.887494682844,129475.0
62876.89754533241,129463.0
62876.90759598198,129501.0
62876.91764663155,129497.0
62876.92769728112,129457.0
62876.937747930686,129474.0
62876.94779858025,129491.0
62876.957849229824,129483.0
62876.96789987939,129483.0
62876.97795052896,129518.0
62876.98800117853,129483.0
62876.99805182809,129486.0
62877.00810247767,129511.0
62877.01815312723,129479.0
62877.028203776805,129470.0
62877.03825442637,129474.0
62877.048305075936,129463.0
62877.05835572551,129454.0
62877.068406375074,129462.0
62877.07845702465,129436.0
62877.08850767421,129447.0
62877.09855832378,129404.0
62877.10860897335,129424.0
62877.118659622916,129424.0
62877.12871027248,129412.0
62877.138760922055,129395.0
62877.14881157162,129405.0
62877.15886222119,129422.0
62877.16891287076,129414.0
62877.178963520324,129431.0
62877.1890141699,129431.0
62877.19906481946,129349.0
62877.209115469035,129412.0
62877.2191661186,129393.0
62877.229216768166,129421.0
62877.23926741774,129388.0
62877.249318067305,129406.0
62877.25936871688,129360.0
62877.26941936644,129396.0
62877.27947001601,129414.0
62877.28952066558,129415.0
62877.29957131515,129448.0
62877.30962196472,129397.0
62877.319672614285,129408.0
62877.32972326385,129428.0
62877.33977391342,129408.0
62877.34982456299,129410.0
62877.359875212554,129403.0
62877.36992586213,129418.0
62877.37997651169,129422.0
62877.390027161266,129415.0
62877.40007781083,129385.0
62877.4101284604,129415.0
62877.42017910997,129437.0
62877.430229759535,129388.0
62877.44028040911,129434.0
62877.45033105867,129419.0
62877.46038170824,129450.0
62877.47043235781,129434.0
62877.48048300738,129381.0
62877.49053365695,129422.0
62877.500584306516,129438.0
62877.51063495608,129398.0
62877.520685605654,129406.0
62877.53073625522,129432.0
62877.54078690479,129418.0
62877.55083755436,129437.0
62877.56088820392,129433.0
62877.570938853496,129437.0
62877.58098950306,129414.0
62877.59104015263,129406.0
62877.6010908022,129450.0
62877.611141451765,129439.0
62877.62119210134,129422.0
62877.631242750904,129414.0
62877.64129340047,129465.0
62877.65134405004,129454.0
62877.66139469961,129433.0
62877.67144534918,129467.0
62877.681495998746,129457.0
62877.69154664831,129470.0
62877.701597297884,129451.0
62877.71164794745,129448.0
62877.72169859702,129465.0
62877.73174924659,129428.0
62877.741799896154,129446.0
62877.75185054573,129441.0
62877.76190119529,129485.0
62877.771951844865,129460.0
62877.78200249443,129458.0
62877.792053143996,129470.0
62877.80210379357,129469.0
62877.812154443134,129439.0
62877.8222050927,129455.0
62877.83225574227,129475.0
62877.84230639184,129451.0
62877.85235704141,129460.0
62877.86240769098,129435.0
62877.87245834054,129471.0
62877.882508990115,129487.0
62877.89255963968,129479.0
62877.90261028925,129459.0
62877.91266093882,129459.0
62877.922711588384,129447.0
62877.93276223796,129441.0
62877.94281288752,129479.0
62877.952863537095,129448.0
62877.96291418666,129448.0
62877.972964836226,129420.0
62877.9830154858,129424.0
62877.993066135365,129462.0
62878.00311678494,129403.0
62878.0131674345,129426.0
62878.02321808407,129392.0
62878.03326873364,129383.0
62878.04331938321,129415.0
62878.05337003277,129382.0
62878.063420682345,129396.0
62878.07347133191,129364.0
62878.08352198148,129374.0
62878.09357263105,129408.0
62878.103623280615,129395.0
62878.11367393019,129358.0
62878.12372457975,129358.0
62878.133775229326,129388.0
62878.14382587889,129387.0
62878.15387652846,129375.0
62878.16392717803,129363.0
62878.173977827595,129365.0
62878.18402847717,129378.0
62878.19407912673,129380.0
62878.2041297763,129384.0
62878.21418042587,129410.0
62878.22423107544,129398.0
62878.23428172501,129381.0
62878.244332374576,129375.0
62878.25438302414,129409.0
62878.264433673714,129347.0
62878.27448432328,129394.0
62878.284534972845,129424.0
62878.29458562242,129380.0
62878.30463627198,129387.0
62878.314686921556,129389.0
62878.32473757112,129397.0
62878.33478822069,129389.0
62878.34483887026,129376.0
62878.354889519826,129381.0
62878.3649401694,129396.0
62878.374990818964,129362.0
62878.38504146853,129395.0
62878.3950921181,129369.0
62878.40514276767,129376.0
62878.41519341724,129419.0
62878.425244066806,129408.0
62878.43529471637,129406.0
62878.445345365944,129419.0
62878.45539601551,129392.0
62878.46544666508,129421.0
62878.47549731465,129416.0
62878.485547964214,129386.0
62878.49559861379,129385.0
62878.50564926335,129384.0
62878.51569991292,129423.0
62878.52575056249,129412.0
62878.535801212056,129438.0
62878.54585186163,129400.0
62878.555902511194,129415.0
62878.56595316076,129416.0
62878.57600381033,129429.0
62878.5860544599,129405.0
62878.59610510947,129434.0
62878.60615575904,129413.0
62878.6162064086,129402.0
62878.626257058175,129413.0
62878.63630770774,129456.0
62878.64635835731,129425.0
62878.65640900688,129405.0
62878.666459656444,129445.0
62878.67651030602,129409.0
62878.68656095558,129428.0
62878.696611605155,129419.0
62878.70666225472,129458.0
62878.71671290429,129402.0
62878.72676355386,129441.0
62878.736814203425,129446.0
62878.74686485299,129436.0
62878.75691550256,129418.0
62878.76696615213,129453.0
62878.7770168017,129483.0
62878.78706745127,129441.0
62878.79711810083,129456.0
62878.807168750405,129443.0
62878.81721939997,129420.0
62878.82727004954,129452.0
62878.83732069911,129483.0
62878.847371348675,129454.0
62878.85742199825,129474.0
62878.86747264781,129455.0
62878.877523297386,129444.0
62878.88757394695,129457.0
62878.89762459652,129447.0
62878.90767524609,129481.0
62878.917725895655,129449.0
62878.92777654523,129422.0
62878.93782719479,129436.0
62878.94787784436,129428.0
62878.95792849393,129416.0
62878.9679791435,129416.0
62878.97802979306,129421.0
62878.988080442636,129412.0
62878.9981310922,129397.0
62879.008181741774,129398.0
62879.01823239134,129411.0
62879.028283040905,129392.0
62879.03833369048,129383.0
62879.04838434004,129393.0
62879.058434989616,129414.0
62879.06848563918,129348.0
62879.07853628875,129348.0
62879.08858693832,129372.0
62879.098637587886,129373.0
62879.10868823746,129372.0
62879.118738887024,129382.0
62879.12878953659,129355.0
62879.13884018616,129377.0
62879.14889083573,129371.0
62879.1589414853,129388.0
62879.168992134866,129360.0
62879.17904278443,129374.0
62879.189093434004,129394.0
62879.19914408357,129365.0
62879.20919473314,129370.0
62879.21924538271,129382.0
62879.229296032274,129369.0
62879.23934668185,129356.0
62879.24939733141,129360.0
62879.25944798098,129387.0
62879.26949863055,129407.0
62879.279549280116,129401.0
62879.28959992969,129411.0
62879.299650579254,129388.0
62879.30970122882,129364.0
62879.31975187839,129405.0
62879.32980252796,129428.0
62879.33985317753,129383.0
62879.3499038271,129373.0
62879.35995447666,129408.0
62879.370005126235,129404.0
62879.3800557758,129388.0
62879.39010642537,129363.0
62879.40015707494,129421.0
62879.410207724504,129390.0
62879.42025837408,129408.0
62879.43030902364,129393.0
62879.440359673215,129397.0
62879.45041032278,129388.0
62879.46046097235,129396.0
62879.47051162192,129421.0
62879.480562271485,129403.0
62879.49061292105,129409.0
62879.50066357062,129414.0
62879.51071422019,129393.0
62879.52076486976,129400.0
62879.53081551933,129395.0
62879.54086616889,129426.0
62879.550916818465,129428.0
62879.56096746803,129394.0
62879.571018117604,129453.0
62879.58106876717,129418.0
62879.591119416735,129410.0
62879.60117006631,129422.0
62879.61122071587,129440.0
62879.621271365446,129428.0
62879.63132201501,129448.0
62879.64137266458,129452.0
62879.65142331415,129446.0
62879.661473963715,129413.0
62879.67152461329,129443.0
62879.68157526285,129438.0
62879.69162591242,129405.0
62879.70167656199,129433.0
62879.71172721156,129442.0
62879.72177786112,129394.0
62879.731828510696,129455.0
62879.74187916026,129430.0
62879.751929809834,129432.0
62879.7619804594,129448.0
62879.772031108965,129443.0
62879.78208175854,129445.0
62879.7921324081,129445.0
62879.802183057676,129420.0
62879.81223370724,129452.0
62879.82228435681,129421.0
62879.83233500638,129455.0
62879.842385655946,129441.0
62879.85243630552,129469.0
62879.862486955084,129381.0
62879.87253760465,129416.0
62879.88258825422,129393.0
62879.89263890379,129413.0
62879.90268955336,129371.0
62879.912740202926,129396.0
62879.92279085249,129380.0
62879.932841502065,129380.0
62879.94289215163,129357.0
62879.952942801196,129395.0
62879.96299345077,129403.0
62879.973044100334,129385.0
62879.98309474991,129384.0
62879.99314539947,129410.0
62880.00319604904,129374.0
62880.01324669861,129336.0
62880.023297348176,129372.0
62880.03334799775,129382.0
62880.043398647314,129376.0
62880.05344929688,129398.0
62880.06349994645,129410.0
62880.07355059602,129391.0
62880.08360124559,129389.0
62880.09365189516,129408.0
62880.10370254472,129395.0
62880.113753194295,129381.0
62880.12380384386,129407.0
62880.13385449343,129371.0
62880.143905143,129399.0
62880.153955792564,129393.0
62880.16400644214,129396.0
62880.1740570917,129412.0
62880.18410774127,129368.0
62880.19415839084,129416.0
62880.20420904041,129399.0
62880.21425968998,129375.0
62880.224310339545,129398.0
62880.23436098911,129387.0
62880.24441163868,129387.0
62880.25446228825,129406.0
62880.26451293782,129415.0
62880.27456358739,129404.0
62880.28461423695,129394.0
62880.294664886525,129399.0
62880.30471553609,129415.0
62880.314766185664,129402.0
62880.32481683523,129409.0
62880.334867484795,129418.0
62880.34491813437,129406.0
62880.35496878393,129388.0
62880.365019433506,129416.0
62880.37507008307,129387.0
62880.38512073264,129452.0
62880.39517138221,129399.0
62880.405222031775,129425.0
62880.41527268134,129419.0
62880.425323330914,129409.0
62880.43537398048,129442.0
62880.44542463005,129440.0
62880.45547527962,129460.0
62880.46552592918,129430.0
62880.475576578756,129457.0
62880.48562722832,129445.0
62880.495677877894,129410.0
62880.50572852746,129424.0
62880.515779177025,129423.0
62880.5258298266,129421.0
62880.53588047616,129427.0
62880.54593112574,129467.0
62880.5559817753,129457.0
62880.56603242487,129440.0
62880.57608307444,129450.0
62880.586133724006,129452.0
62880.59618437358,129443.0
62880.606235023144,129443.0
62880.61628567271,129449.0
62880.62633632228,129436.0
62880.63638697185,129471.0
62880.64643762141,129470.0
62880.656488270986,129462.0
62880.66653892055,129466.0
62880.676589570125,129428.0
62880.68664021969,129477.0
62880.696690869256,129462.0
62880.70674151883,129443.0
62880.716792168394,129440.0
62880.72684281797,129410.0
62880.73689346753,129424.0
62880.7469441171,129398.0
62880.75699476667,129430.0
62880.767045416236,129407.0
62880.77709606581,129390.0
62880.787146715375,129387.0
62880.79719736494,129405.0
62880.80724801451,129382.0
62880.81729866408,129384.0
62880.82734931365,129413.0
62880.83739996322,129367.0
62880.84745061278,129372.0
62880.857501262355,129386.0
62880.86755191192,129409.0
62880.877602561486,129409.0
62880.88765321106,129382.0
62880.897703860624,129391.0
62880.9077545102,129394.0
62880.91780515976,129343.0
62880.92785580933,129383.0
62880.9379064589,129383.0
62880.94795710847,129345.0
62880.95800775804,129375.0
62880.968058407605,129374.0
62880.97810905717,129385.0
62880.98815970674,129399.0
62880.99821035631,129384.0
62881.00826100588,129382.0
62881.01831165545,129387.0
62881.02836230501,129394.0
62881.038412954586,129392.0
62881.04846360415,129378.0
62881.058514253724,129370.0
62881.06856490329,129374.0
62881.078615552855,129391.0
62881.08866620243,129382.0
62881.09871685199,129364.0
62881.10876750156,129392.0
62881.11881815113,129419.0
62881.1288688007,129385.0
62881.13891945027,129408.0
62881.148970099835,129404.0
62881.1590207494,129416.0
62881.169071398974,129385.0
62881.17912204854,129407.0
62881.18917269811,129410.0
62881.19922334768,129382.0
62881.20927399724,129386.0
62881.219324646816,129375.0
62881.22937529638,129426.0
62881.239425945954,129404.0
62881.24947659552,129384.0
62881.259527245085,129451.0
62881.26957789466,129421.0
62881.279628544224,129414.0
62881.2896791938,129431.0
62881.29972984336,129402.0
62881.30978049293,129440.0
62881.3198311425,129421.0
62881.329881792066,129401.0
62881.33993244163,129390.0
62881.349983091204,129439.0
62881.36003374077,129456.0
62881.37008439034,129445.0
62881.38013503991,129449.0
62881.39018568947,129443.0
62881.40023633905,129429.0
62881.41028698861,129431.0
62881.420337638185,129444.0
62881.43038828775,129438.0
62881.440438937316,129451.0
62881.45048958689,129480.0
62881.460540236454,129443.0
62881.47059088603,129449.0
62881.48064153559,129476.0
62881.49069218516,129444.0
62881.50074283473,129461.0
62881.510793484296,129472.0
62881.52084413387,129486.0
62881.530894783435,129437.0
62881.540945433,129485.0
62881.55099608257,129457.0
62881.56104673214,129462.0
62881.571097381704,129452.0
62881.58114803128,129437.0
62881.59119868084,129405.0
62881.601249330415,129421.0
62881.61129997998,129390.0
62881.621350629546,129395.0
62881.63140127912,129422.0
62881.641451928685,129401.0
62881.65150257826,129410.0
62881.66155322782,129373.0
62881.67160387739,129366.0
62881.68165452696,129404.0
62881.69170517653,129382.0
62881.7017558261,129379.0
62881.711806475665,129408.0
62881.72185712523,129368.0
62881.7319077748,129407.0
62881.74195842437,129376.0
62881.75200907394,129418.0
62881.76205972351,129400.0
62881.77211037307,129425.0
62881.782161022646,129359.0
62881.79221167221,129368.0
62881.80226232178,129386.0
62881.81231297135,129373.0
62881.822363620915,129402.0
62881.83241427049,129394.0
62881.84246492005,129397.0
62881.85251556962,129410.0
62881.86256621919,129406.0
62881.87261686876,129422.0
62881.88266751833,129407.0
62881.892718167896,129399.0
62881.90276881746,129386.0
62881.912819467034,129388.0
62881.9228701166,129402.0
62881.93292076617,129441.0
62881.94297141574,129407.0
62881.9530220653,129417.0
62881.963072714876,129416.0
62881.97312336444,129409.0
62881.983174014014,129429.0
62881.99322466358,129384.0
62882.003275313145,129416.0
62882.01332596272,129400.0
62882.023376612284,129410.0
62882.03342726185,129444.0
62882.04347791142,129433.0
62882.05352856099,129399.0
62882.06357921056,129432.0
62882.073629860126,129428.0
62882.08368050969,129416.0
62882.093731159264,129403.0
62882.10378180883,129432.0
62882.1138324584,129432.0
62882.12388310797,129454.0
62882.133933757534,129438.0
62882.14398440711,129459.0
62882.15403505667,129420.0
62882.164085706245,129480.0
62882.17413635581,129452.0
62882.184187005376,129457.0
62882.19423765495,129439.0
62882.204288304514,129466.0
62882.21433895409,129468.0
62882.22438960365,129443.0
62882.23444025322,129482.0
62882.24449090279,129463.0
62882.25454155236,129450.0
62882.26459220192,129457.0
62882.274642851495,129479.0
62882.28469350106,129447.0
62882.29474415063,129470.0
62882.3047948002,129443.0
62882.314845449764,129492.0
62882.32489609934,129463.0
62882.3349467489,129478.0
62882.344997398475,129480.0
62882.35504804804,129466.0
62882.365098697606,129474.0
62882.37514934718,129481.0
62882.385199996745,129436.0
62882.39525064632,129421.0
62882.40530129588,129443.0
62882.41535194545,129435.0
62882.42540259502,129419.0
62882.43545324459,129418.0
62882.44550389416,129435.0
62882.455554543725,129414.0
62882.46560519329,129404.0
62882.47565584286,129376.0
62882.48570649243,129411.0
62882.495757141995,129408.0
62882.50580779157,129426.0
62882.51585844113,129429.0
62882.525909090706,129384.0
62882.53595974027,129404.0
62882.54601038984,129386.0
62882.55606103941,129446.0
62882.566111688975,129399.0
62882.57616233855,129404.0
62882.58621298811,129415.0
62882.59626363768,129388.0
62882.60631428725,129381.0
62882.61636493682,129434.0
62882.62641558639,129415.0
62882.636466235956,129409.0
62882.64651688552,129408.0
62882.656567535094,129391.0
62882.66661818466,129418.0
62882.67666883423,129426.0
62882.6867194838,129432.0
62882.69677013336,129425.0
62882.706820782936,129415.0
62882.7168714325,129404.0
62882.72692208207,129445.0
62882.73697273164,129411.0
62882.747023381206,129430.0
62882.75707403078,129421.0
62882.767124680344,129445.0
62882.77717532991,129421.0
62882.78722597948,129425.0
62882.79727662905,129455.0
62882.80732727862,129415.0
62882.817377928186,129418.0
62882.82742857775,129430.0
62882.837479227324,129438.0
62882.84752987689,129415.0
62882.85758052646,129437.0
62882.86763117603,129437.0
62882.877681825594,129420.0
62882.88773247517,129470.0
62882.89778312473,129449.0
62882.907833774305,129447.0
62882.91788442387,129448.0
62882.927935073436,129450.0
62882.93798572301,129464.0
62882.948036372574,129453.0
62882.95808702214,129430.0
62882.96813767171,129461.0
62882.97818832128,129444.0
62882.98823897085,129453.0
62882.99828962042,129445.0
62883.00834026998,129462.0
62883.018390919555,129437.0
62883.02844156912,129462.0
62883.03849221869,129445.0
62883.04854286826,129469.0
62883.058593517824,129433.0
62883.0686441674,129461.0
62883.07869481696,129477.0
62883.088745466535,129451.0
62883.0987961161,129446.0
62883.10884676567,129460.0
62883.11889741524,129468.0
62883.128948064805,129438.0
62883.13899871438,129460.0
62883.14904936394,129477.0
62883.15910001351,129452.0
62883.16915066308,129431.0
62883.17920131265,129464.0
62883.18925196221,129431.0
62883.199302611785,129416.0
62883.20935326135,129389.0
62883.21940391092,129442.0
62883.22945456049,129391.0
62883.239505210055,129412.0
62883.24955585963,129415.0
62883.25960650919,129430.0
62883.269657158766,129391.0
62883.27970780833,129412.0
62883.2897584579,129445.0
62883.29980910747,129419.0
62883.309859757035,129425.0
62883.31991040661,129373.0
62883.32996105617,129428.0
62883.34001170574,129383.0
62883.35006235531,129423.0
62883.36011300488,129422.0
62883.37016365445,129410.0
62883.380214304016,129437.0
62883.39026495358,129440.0
62883.400315603154,129418.0
62883.41036625272,129415.0
62883.420416902285,129438.0
62883.43046755186,129440.0
62883.44051820142,129423.0
62883.450568850996,129373.0
62883.46061950056,129427.0
62883.47067015013,129436.0
62883.4807207997,129418.0
62883.490771449266,129403.0
62883.50082209884,129420.0
62883.510872748404,129405.0
62883.52092339797,129419.0
62883.53097404754,129437.0
62883.54102469711,129455.0
62883.55107534668,129415.0
62883.561125996246,129436.0
62883.57117664581,129431.0
62883.581227295384,129401.0
62883.59127794495,129398.0
62883.60132859452,129420.0
62883.61137924409,129434.0
62883.621429893654,129433.0
62883.63148054323,129461.0
62883.64153119279,129470.0
62883.65158184236,129447.0
62883.66163249193,129414.0
62883.671683141496,129459.0
62883.68173379107,129440.0
62883.691784440634,129450.0
62883.7018350902,129460.0
62883.71188573977,129491.0
62883.72193638934,129441.0
62883.73198703891,129463.0
62883.74203768848,129464.0
62883.75208833804,129491.0
62883.762138987615,129445.0
62883.77218963718,129463.0
62883.78224028675,129445.0
62883.79229093632,129467.0
62883.802341585884,129494.0
62883.81239223546,129472.0
62883.82244288502,129459.0
62883.832493534595,129440.0
62883.84254418416,129467.0
62883.85259483373,129484.0
62883.8626454833,129476.0
62883.872696132865,129456.0
62883.88274678243,129491.0
62883.892797432,129464.0
62883.90284808157,129449.0
62883.91289873114,129448.0
62883.92294938071,129397.0
62883.93300003027,129428.0
62883.943050679845,129391.0
62883.95310132941,129392.0
62883.963151978984,129383.0
62883.97320262855,129418.0
62883.983253278115,129415.0
62883.99330392769,129440.0
62884.00335457725,129425.0
62884.013405226826,129420.0
62884.02345587639,129386.0
62884.03350652596,129412.0
62884.04355717553,129388.0
62884.053607825095,129409.0
62884.06365847467,129410.0
62884.07370912423,129389.0
62884.0837597738,129417.0
62884.09381042337,129427.0
62884.10386107294,129408.0
62884.11391172251,129368.0
62884.123962372076,129393.0
62884.13401302164,129397.0
62884.144063671214,129406.0
62884.15411432078,129401.0
62884.164164970345,129441.0
62884.17421561992,129405.0
62884.18426626948,129419.0
62884.194316919056,129412.0
62884.20436756862,129406.0
62884.21441821819,129401.0
62884.22446886776,129416.0
62884.234519517326,129434.0
62884.2445701669,129423.0
62884.254620816464,129384.0
62884.26467146603,129419.0
62884.2747221156,129398.0
62884.28477276517,129426.0
62884.29482341474,129435.0
62884.304874064306,129423.0
62884.31492471387,129389.0
62884.324975363445,129415.0
62884.33502601301,129445.0
62884.34507666258,129432.0
62884.35512731215,129444.0
62884.365177961714,129408.0
62884.37522861129,129444.0
62884.38527926085,129413.0
62884.39532991042,129416.0
62884.40538055999,129431.0
62884.415431209556,129438.0
62884.42548185913,129445.0
62884.435532508694,129439.0
62884.44558315826,129430.0
62884.45563380783,129420.0
62884.4656844574,129449.0
62884.47573510697,129462.0
62884.48578575654,129458.0
62884.4958364061,129429.0
62884.505887055675,129449.0
62884.51593770524,129487.0
62884.52598835481,129418.0
62884.53603900438,129449.0
62884.546089653944,129439.0
62884.55614030352,129470.0
62884.56619095308,129473.0
62884.576241602656,129447.0
62884.58629225222,129482.0
62884.59634290179,129470.0
62884.60639355136,129488.0
62884.616444200925,129473.0
62884.62649485049,129460.0
62884.63654550006,129468.0
62884.64659614963,129443.0
62884.6566467992,129455.0
62884.66669744877,129402.0
62884.67674809833,129425.0
62884.686798747905,129404.0
62884.69684939747,129423.0
62884.706900047044,129369.0
62884.71695069661,129395.0
62884.727001346175,129402.0
62884.73705199575,129413.0
62884.74710264531,129376.0
62884.757153294886,129398.0
62884.76720394445,129405.0
62884.77725459402,129409.0
62884.78730524359,129386.0
62884.797355893155,129395.0
62884.80740654273,129362.0
62884.817457192294,129407.0
62884.82750784186,129373.0
62884.83755849143,129393.0
62884.847609141,129376.0
62884.85765979056,129366.0
62884.867710440136,129348.0
62884.8777610897,129383.0
62884.887811739274,129378.0
62884.89786238884,129364.0
62884.907913038405,129393.0
62884.91796368798,129361.0
62884.92801433754,129367.0
62884.93806498712,129357.0
62884.94811563668,129404.0
62884.95816628625,129396.0
62884.96821693582,129369.0
62884.978267585386,129395.0
62884.98831823496,129379.0
62884.998368884524,129394.0
62885.00841953409,129372.0
62885.01847018366,129380.0
62885.02852083323,129393.0
62885.0385714828,129406.0
62885.048622132366,129410.0
62885.05867278193,129412.0
62885.068723431505,129396.0
62885.07877408107,129414.0
62885.088824730636,129399.0
62885.09887538021,129391.0
62885.108926029774,129397.0
62885.11897667935,129391.0
62885.12902732891,129413.0
62885.13907797848,129426.0
62885.14912862805,129409.0
62885.159179277616,129430.0
62885.16922992719,129410.0
62885.179280576755,129419.0
62885.18933122632,129401.0
62885.19938187589,129401.0
62885.20943252546,129415.0
62885.21948317503,129422.0
62885.2295338246,129450.0
62885.23958447416,129423.0
62885.249635123735,129429.0
62885.2596857733,129447.0
62885.26973642287,129445.0
62885.27978707244,129408.0
62885.289837722004,129431.0
62885.29988837158,129447.0
62885.30993902114,129411.0
62885.31998967071,129417.0
62885.33004032028,129438.0
62885.34009096985,129427.0
62885.35014161942,129432.0
62885.360192268985,129458.0
62885.37024291855,129447.0
62885.38029356812,129465.0
62885.39034421769,129453.0
62885.40039486726,129465.0
62885.41044551683,129452.0
62885.42049616639,129435.0
62885.430546815965,129428.0
62885.44059746553,129419.0
62885.450648115104,129445.0
62885.46069876467,129431.0
62885.470749414235,129455.0
62885.48080006381,129421.0
62885.49085071337,129421.0
62885.500901362946,129381.0
62885.51095201251,129424.0
62885.52100266208,129412.0
62885.53105331165,129386.0
62885.541103961215,129381.0
62885.55115461078,129383.0
62885.561205260354,129357.0
62885.57125590992,129408.0
62885.58130655949,129367.0
62885.59135720906,129378.0
62885.60140785862,129397.0
62885.611458508196,129398.0
62885.62150915776,129390.0
62885.631559807334,129398.0
62885.6416104569,129365.0
62885.651661106465,129368.0
62885.66171175604,129384.0
62885.671762405604,129360.0
62885.68181305518,129400.0
62885.69186370474,129382.0
62885.70191435431,129384.0
62885.71196500388,129400.0
62885.722015653446,129380.0
62885.73206630302,129370.0
62885.742116952584,129378.0
62885.75216760215,129359.0
62885.76221825172,129402.0
62885.77226890129,129395.0
62885.78231955085,129388.0
62885.79237020043,129398.0
62885.80242084999,129378.0
62885.812471499565,129408.0
62885.82252214913,129399.0
62885.832572798696,129365.0
62885.84262344827,129390.0
62885.852674097834,129426.0
62885.86272474741,129390.0
62885.87277539697,129379.0
62885.88282604654,129393.0
62885.89287669611,129393.0
62885.902927345676,129401.0
62885.91297799525,129400.0
62885.923028644815,129389.0
62885.93307929438,129378.0
62885.94312994395,129414.0
62885.95318059352,129426.0
62885.96323124309,129419.0
62885.97328189266,129384.0
62885.98333254222,129387.0
62885.993383191795,129390.0
62886.00343384136,129427.0
62886.013484490926,129416.0
62886.0235351405,129432.0
62886.033585790065,129436.0
62886.04363643964,129391.0
62886.0536870892,129449.0
62886.06373773877,129470.0
62886.07378838834,129428.0
62886.08383903791,129422.0
62886.09388968748,129454.0
62886.103940337045,129416.0
62886.11399098661,129424.0
62886.12404163618,129399.0
62886.13409228575,129444.0
62886.14414293532,129433.0
62886.15419358489,129449.0
62886.16424423445,129445.0
62886.174294884026,129459.0
62886.18434553359,129428.0
62886.194396183164,129448.0
62886.20444683273,129463.0
62886.214497482295,129460.0
62886.22454813187,129433.0
62886.23459878143,129454.0
62886.244649431,129488.0
62886.25470008057,129422.0
62886.26475073014,129469.0
62886.27480137971,129470.0
62886.284852029275,129468.0
62886.29490267884,129468.0
62886.304953328414,129486.0
62886.31500397798,129467.0
62886.32505462755,129469.0
62886.33510527712,129477.0
62886.34515592668,129485.0
62886.355206576256,129479.0
62886.36525722582,129455.0
62886.375307875394,129499.0
62886.38535852496,129456.0
62886.395409174525,129434.0
62886.4054598241,129420.0
62886.415510473664,129450.0
62886.42556112324,129411.0
62886.4356117728,129419.0
62886.44566242237,129433.0
62886.45571307194,129403.0
62886.465763721506,129371.0
62886.47581437107,129420.0
62886.485865020644,129382.0
62886.49591567021,129416.0
62886.50596631978,129415.0
62886.51601696935,129416.0
62886.526067618914,129415.0
62886.53611826849,129372.0
62886.54616891805,129422.0
62886.556219567625,129381.0
62886.56627021719,129415.0
62886.576320866756,129414.0
62886.58637151633,129419.0
62886.596422165894,129433.0
62886.60647281547,129415.0
62886.61652346503,129410.0
62886.6265741146,129445.0
62886.63662476417,129429.0
62886.64667541374,129395.0
62886.65672606331,129400.0
62886.666776712875,129453.0
62886.67682736244,129407.0
62886.68687801201,129436.0
62886.69692866158,129446.0
62886.706979311144,129417.0
62886.71702996072,129427.0
62886.72708061028,129428.0
62886.737131259855,129442.0
62886.74718190942,129396.0
62886.757232558986,129430.0
62886.76728320856,129415.0
62886.777333858125,129439.0
62886.7873845077,129414.0
62886.79743515726,129409.0
62886.80748580683,129430.0
62886.8175364564,129426.0
62886.82758710597,129423.0
62886.83763775554,129444.0
62886.847688405105,129447.0
62886.85773905467,129433.0
62886.86778970424,129456.0
62886.87784035381,129425.0
62886.88789100338,129440.0
62886.89794165295,129427.0
62886.90799230251,129449.0
62886.918042952086,129423.0
62886.92809360165,129443.0
62886.93814425122,129439.0
62886.94819490079,129442.0
62886.958245550355,129443.0
62886.96829619993,129452.0
62886.97834684949,129475.0
62886.98839749906,129452.0
62886.99844814863,129467.0
62887.0084987982,129467.0
62887.01854944777,129451.0
62887.028600097336,129435.0
62887.0386507469,129429.0
62887.048701396474,129478.0
62887.05875204604,129481.0
62887.06880269561,129462.0
62887.07885334518,129471.0
62887.08890399474,129457.0
62887.098954644316,129468.0
62887.10900529388,129472.0
62887.119055943454,129478.0
62887.12910659302,129456.0
62887.139157242585,129477.0
62887.14920789216,129475.0
62887.159258541724,129475.0
62887.16930919129,129474.0
62887.17935984086,129499.0
62887.18941049043,129456.0
62887.19946114,129476.0
62887.209511789566,129496.0
62887.21956243913,129477.0
62887.229613088704,129492.0
62887.23966373827,129475.0
62887.24971438784,129493.0
62887.25976503741,129459.0
62887.269815686974,129434.0
62887.27986633655,129460.0
62887.28991698611,129402.0
62887.299967635685,129428.0
62887.31001828525,129412.0
62887.320068934816,129423.0
62887.33011958439,129431.0
62887.340170233954,129420.0
62887.35022088353,129403.0
62887.36027153309,129446.0
62887.37032218266,129413.0
62887.38037283223,129431.0
62887.3904234818,129462.0
62887.40047413136,129459.0
62887.410524780935,129437.0
62887.4205754305,129427.0
62887.43062608007,129462.0
62887.44067672964,129384.0
62887.450727379204,129405.0
62887.46077802878,129439.0
62887.47082867834,129437.0
62887.480879327915,129396.0
62887.49092997748,129440.0
62887.50098062705,129438.0
62887.51103127662,129429.0
62887.521081926185,129434.0
62887.53113257576,129441.0
62887.54118322532,129424.0
62887.55123387489,129442.0
62887.56128452446,129460.0
62887.57133517403,129440.0
62887.5813858236,129419.0
62887.591436473165,129441.0
62887.60148712273,129417.0
62887.6115377723,129416.0
62887.62158842187,129456.0
62887.631639071435,129437.0
62887.64168972101,129449.0
62887.65174037057,129446.0
62887.661791020146,129447.0
62887.67184166971,129450.0
62887.68189231928,129468.0
62887.69194296885,129455.0
62887.701993618415,129481.0
62887.71204426799,129431.0
62887.72209491755,129429.0
62887.73214556712,129454.0
62887.74219621669,129454.0
62887.75224686626,129466.0
62887.76229751583,129448.0
62887.772348165396,129447.0
62887.78239881496,129488.0
62887.792449464534,129466.0
62887.8025001141,129438.0
62887.81255076367,129500.0
62887.82260141324,129484.0
62887.8326520628,129485.0
62887.842702712376,129474.0
62887.85275336194,129498.0
62887.86280401151,129448.0
62887.87285466108,129474.0
62887.882905310646,129474.0
62887.89295596022,129445.0
62887.903006609784,129464.0
62887.91305725935,129476.0
62887.92310790892,129481.0
62887.93315855849,129506.0
62887.94320920806,129459.0
62887.953259857626,129486.0
62887.96331050719,129501.0
62887.973361156764,129481.0
62887.98341180633,129466.0
62887.9934624559,129486.0
62888.00351310547,129463.0
62888.013563755034,129506.0
62888.02361440461,129482.0
62888.03366505417,129518.0
62888.043715703745,129483.0
62888.05376635331,129462.0
62888.063817002876,129482.0
62888.07386765245,129465.0
62888.083918302014,129465.0
62888.09396895158,129424.0
62888.10401960115,129459.0
62888.11407025072,129444.0
62888.12412090029,129425.0
62888.13417154986,129441.0
62888.14422219942,129466.0
62888.154272848995,129437.0
62888.16432349856,129429.0
62888.17437414813,129448.0
62888.1844247977,129438.0
62888.194475447264,129446.0
62888.20452609684,129428.0
62888.2145767464,129415.0
62888.224627395975,129432.0
62888.23467804554,129436.0
62888.24472869511,129421.0
62888.25477934468,129453.0
62888.264829994245,129395.0
62888.27488064382,129459.0
62888.28493129338,129433.0
62888.29498194295,129410.0
62888.30503259252,129424.0
62888.31508324209,129463.0
62888.32513389165,129440.0
62888.335184541225,129453.0
62888.34523519079,129455.0
62888.355285840364,129481.0
62888.36533648993,129450.0
62888.375387139495,129425.0
62888.38543778907,129436.0
62888.39548843863,129464.0
62888.405539088206,129446.0
62888.41558973777,129447.0
62888.42564038734,129429.0
62888.43569103691,129427.0
62888.445741686475,129445.0
62888.45579233605,129449.0
62888.46584298561,129468.0
62888.47589363518,129442.0
62888.48594428475,129451.0
62888.49599493432,129461.0
62888.50604558389,129428.0
62888.516096233456,129441.0
62888.52614688302,129451.0
62888.536197532594,129452.0
62888.54624818216,129446.0
62888.556298831725,129482.0
62888.5663494813,129459.0
62888.57640013086,129477.0
62888.586450780436,129457.0
62888.59650143,129466.0
62888.60655207957,129464.0
62888.61660272914,129471.0
62888.626653378706,129468.0
62888.63670402828,129465.0
62888.646754677844,129418.0
62888.65680532741,129479.0
62888.66685597698,129501.0
62888.67690662655,129491.0
62888.68695727612,129493.0
62888.697007925686,129486.0
62888.70705857525,129476.0
62888.717109224825,129509.0
62888.72715987439,129510.0
62888.73721052396,129486.0
62888.74726117353,129475.0
62888.757311823094,129492.0
62888.76736247267,129509.0
62888.77741312223,129477.0
62888.787463771805,129479.0
62888.79751442137,129498.0
62888.807565070936,129498.0
62888.81761572051,129507.0
62888.827666370074,129487.0
62888.83771701964,129523.0
62888.84776766921,129503.0
62888.85781831878,129509.0
62888.86786896835,129513.0
62888.87791961792,129533.0
62888.88797026748,129487.0
62888.898020917055,129521.0
62888.90807156662,129554.0
62888.91812221619,129492.0
62888.92817286576,129502.0
62888.938223515324,129491.0
62888.9482741649,129500.0
62888.95832481446,129450.0
62888.968375464035,129452.0
62888.9784261136,129455.0
62888.98847676317,129417.0
62888.99852741274,129426.0
62889.008578062305,129449.0
62889.01862871188,129450.0
62889.02867936144,129425.0
62889.03873001101,129467.0
62889.04878066058,129472.0
62889.05883131015,129415.0
62889.06888195971,129453.0
62889.078932609285,129431.0
62889.08898325885,129435.0
62889.099033908424,129457.0
62889.10908455799,129453.0
62889.119135207555,129453.0
62889.12918585713,129416.0
62889.13923650669,129435.0
62889.149287156266,129452.0
62889.15933780583,129485.0
62889.1693884554,129426.0
62889.17943910497,129480.0
62889.189489754535,129451.0
62889.19954040411,129441.0
62889.209591053674,129414.0
62889.21964170324,129484.0
62889.22969235281,129458.0
62889.23974300238,129465.0
62889.24979365195,129479.0
62889.259844301516,129462.0
62889.26989495108,129470.0
62889.279945600654,129461.0
62889.28999625022,129445.0
62889.300046899785,129465.0
62889.31009754936,129460.0
62889.32014819892,129454.0
62889.3301988485,129439.0
62889.34024949806,129457.0
62889.35030014763,129462.0
62889.3603507972,129474.0
62889.370401446766,129479.0
62889.38045209634,129458.0
62889.390502745904,129473.0
62889.40055339547,129495.0
62889.41060404504,129468.0
62889.42065469461,129479.0
62889.43070534418,129480.0
62889.440755993746,129486.0
62889.45080664331,129452.0
62889.460857292885,129487.0
62889.47090794245,129483.0
62889.48095859202,129461.0
62889.49100924159,129477.0
62889.501059891154,129506.0
62889.51111054073,129465.0
62889.52116119029,129507.0
62889.53121183986,129504.0
62889.54126248943,129465.0
62889.551313138996,129454.0
62889.56136378857,129489.0
62889.571414438135,129518.0
62889.5814650877,129473.0
62889.59151573727,129482.0
62889.60156638684,129489.0
62889.61161703641,129463.0
62889.62166768598,129490.0
62889.63171833554,129527.0
62889.641768985115,129479.0
62889.65181963468,129486.0
62889.66187028425,129454.0
62889.67192093382,129496.0
62889.681971583384,129469.0
62889.69202223296,129453.0
62889.70207288252,129465.0
62889.712123532096,129457.0
62889.72217418166,129469.0
62889.73222483123,129441.0
62889.7422754808,129502.0
62889.752326130365,129491.0
62889.76237677993,129492.0
62889.7724274295,129454.0
62889.78247807907,129489.0
62889.79252872864,129463.0
62889.80257937821,129469.0
62889.81263002777,129431.0
62889.822680677345,129410.0
62889.83273132691,129395.0
62889.842781976484,129421.0
62889.85283262605,129441.0
62889.862883275615,129409.0
62889.87293392519,129389.0
62889.88298457475,129414.0
62889.893035224326,129403.0
62889.90308587389,129427.0
62889.91313652346,129431.0
62889.92318717303,129422.0
62889.933237822595,129404.0
62889.94328847217,129451.0
62889.953339121734,129422.0
62889.9633897713,129444.0
62889.97344042087,129420.0
62889.98349107044,129435.0
62889.99354172,129454.0
62890.003592369576,129415.0
62890.01364301914,129442.0
62890.023693668714,129442.0
62890.03374431828,129421.0
62890.043794967845,129451.0
62890.05384561742,129457.0
62890.063896266984,129462.0
62890.07394691656,129435.0
62890.08399756612,129472.0
62890.09404821569,129467.0
62890.10409886526,129416.0
62890.114149514826,129447.0
62890.1242001644,129504.0
62890.134250813964,129486.0
62890.14430146353,129463.0
62890.1543521131,129479.0
62890.16440276267,129498.0
62890.17445341224,129465.0
62890.18450406181,129437.0
62890.19455471137,129460.0
62890.204605360945,129509.0
62890.21465601051,129498.0
62890.224706660076,129495.0
62890.23475730965,129519.0
62890.244807959214,129481.0
62890.25485860879,129487.0
62890.26490925835,129478.0
62890.27495990792,129525.0
62890.28501055749,129505.0
62890.295061207056,129506.0
62890.30511185663,129493.0
62890.315162506195,129488.0
62890.32521315576,129493.0
62890.33526380533,129500.0
62890.3453144549,129537.0
62890.35536510447,129482.0
62890.36541575404,129522.0
62890.3754664036,129532.0
62890.385517053175,129475.0
62890.39556770274,129455.0
62890.40561835231,129481.0
62890.41566900188,129474.0
62890.425719651445,129517.0
62890.43577030102,129528.0
62890.44582095058,129515.0
62890.45587160015,129560.0
62890.46592224972,129575.0
62890.47597289929,129597.0
62890.48602354886,129663.0
62890.496074198425,129660.0
62890.50612484799,129771.0
62890.51617549756,129860.0
62890.52622614713,129881.0
62890.5362767967,129906.0
62890.54632744627,129927.0
62890.55637809583,129961.0
62890.566428745406,129938.0
62890.57647939497,129985.0
62890.586530044544,129970.0
62890.59658069411,129986.0
62890.606631343675,129984.0
62890.61668199325,130031.0
62890.62673264281,130006.0
62890.636783292386,129993.0
62890.64683394195,129984.0
62890.65688459152,130004.0
62890.66693524109,129996.0
62890.676985890655,129968.0
62890.68703654022,129978.0
62890.697087189794,129980.0
62890.70713783936,129976.0
62890.71718848893,129971.0
62890.7272391385,130000.0
62890.73728978806,129960.0
62890.747340437636,129972.0
62890.7573910872,130001.0
62890.767441736774,130002.0
62890.77749238634,129929.0
62890.787543035905,129962.0
62890.79759368548,129954.0
62890.807644335044,129968.0
62890.81769498462,129949.0
62890.82774563418,129953.0
62890.83779628375,129943.0
62890.84784693332,129918.0
62890.857897582886,129950.0
62890.86794823246,129938.0
62890.877998882024,129962.0
62890.88804953159,129942.0
62890.89810018116,129941.0
62890.90815083073,129924.0
62890.918201480294,129929.0
62890.92825212987,129919.0
62890.93830277943,129933.0
62890.948353429005,129942.0
62890.95840407857,129929.0
62890.968454728136,129937.0
62890.97850537771,129956.0
62890.988556027274,129942.0
62890.99860667685,129957.0
62891.00865732641,129946.0
62891.01870797598,129942.0
62891.02875862555,129979.0
62891.03880927512,129971.0
62891.04885992469,129965.0
62891.058910574255,129980.0
62891.06896122382,129948.0
62891.07901187339,129966.0
62891.08906252296,129971.0
62891.09911317253,129957.0
62891.1091638221,129939.0
62891.11921447166,129956.0
62891.129265121235,129985.0
62891.1393157708,129988.0
62891.149366420366,129964.0
62891.15941706994,129959.0
62891.169467719505,129972.0
62891.17951836908,129948.0
62891.18956901864,129992.0
62891.19961966821,129973.0
62891.20967031778,129986.0
62891.21972096735,129972.0
62891.22977161692,129963.0
62891.239822266485,129982.0
62891.24987291605,129980.0
62891.25992356562,129965.0
62891.26997421519,129952.0
62891.28002486476,129986.0
62891.29007551433,129967.0
62891.30012616389,129905.0
62891.310176813466,129960.0
62891.32022746303,129973.0
62891.330278112604,129957.0
62891.34032876217,129993.0
62891.350379411735,129997.0
62891.36043006131,129970.0
62891.37048071087,129940.0
62891.38053136044,129964.0
62891.39058201001,129971.0
62891.40063265958,129972.0
62891.41068330915,129959.0
62891.420733958716,130010.0
62891.43078460828,129991.0
62891.440835257854,129942.0
62891.45088590742,129947.0
62891.46093655699,129987.0
62891.47098720656,129978.0
62891.48103785612,129939.0
62891.491088505696,129956.0
62891.50113915526,129941.0
62891.511189804834,129944.0
62891.5212404544,129906.0
62891.531291103965,129921.0
62891.54134175354,129927.0
62891.551392403104,129915.0
62891.56144305268,129911.0
62891.57149370224,129939.0
62891.58154435181,129902.0
62891.59159500138,129889.0
62891.601645650946,129891.0
62891.61169630051,129928.0
62891.621746950084,129920.0
62891.63179759965,129893.0
62891.64184824922,129889.0
62891.65189889879,129911.0
62891.661949548354,129902.0
62891.67200019793,129894.0
62891.68205084749,129942.0
62891.692101497065,129902.0
62891.70215214663,129884.0
62891.712202796196,129928.0
62891.72225344577,129913.0
62891.732304095334,129897.0
62891.74235474491,129885.0
62891.75240539447,129921.0
62891.76245604404,129900.0
62891.77250669361,129895.0
62891.78255734318,129880.0
62891.79260799275,129899.0
62891.802658642315,129850.0
62891.81270929188,129884.0
62891.82275994145,129906.0
62891.83281059102,129890.0
62891.842861240584,129867.0
62891.85291189016,129886.0
62891.86296253972,129898.0
62891.873013189295,129863.0
62891.88306383886,129885.0
62891.89311448843,129872.0
62891.903165138,129861.0
62891.913215787565,129844.0
62891.92326643714,129897.0
62891.9333170867,129888.0
62891.94336773627,129857.0
62891.95341838584,129850.0
62891.96346903541,129885.0
62891.97351968498,129848.0
62891.983570334545,129835.0
62891.99362098411,129880.0
62892.00367163368,129895.0
62892.01372228325,129866.0
62892.02377293282,129875.0
62892.03382358239,129903.0
62892.04387423195,129845.0
62892.053924881526,129908.0
62892.06397553109,129870.0
62892.07402618066,129847.0
62892.08407683023,129876.0
62892.094127479795,129863.0
62892.10417812937,129854.0
62892.11422877893,129844.0
62892.1242794285,129871.0
62892.13433007807,129877.0
62892.14438072764,129875.0
62892.15443137721,129855.0
62892.164482026776,129839.0
62892.17453267634,129849.0
62892.184583325914,129874.0
62892.19463397548,129866.0
62892.20468462505,129855.0
62892.21473527462,129843.0
62892.22478592418,129877.0
62892.234836573756,129853.0
62892.24488722332,129898.0
62892.254937872895,129891.0
62892.26498852246,129868.0
62892.275039172026,129878.0
62892.2850898216,129851.0
62892.295140471164,129823.0
62892.30519112073,129845.0
62892.3152417703,129834.0
62892.32529241987,129827.0
62892.33534306944,129825.0
62892.345393719006,129830.0
62892.35544436857,129808.0
62892.365495018144,129794.0
62892.37554566771,129785.0
62892.38559631728,129798.0
62892.39564696685,129780.0
62892.405697616414,129787.0
62892.41574826599,129807.0
62892.42579891555,129787.0
62892.435849565125,129783.0
62892.44590021469,129786.0
62892.455950864256,129762.0
62892.46600151383,129749.0
62892.476052163394,129796.0
62892.48610281297,129789.0
62892.49615346253,129789.0
62892.5062041121,129774.0
62892.51625476167,129749.0
62892.52630541124,129768.0
62892.5363560608,129750.0
62892.546406710375,129763.0
62892.55645735994,129765.0
62892.56650800951,129747.0
62892.57655865908,129774.0
62892.586609308644,129769.0
62892.59665995822,129757.0
62892.60671060778,129751.0
62892.616761257355,129787.0
62892.62681190692,129762.0
62892.63686255649,129728.0
62892.64691320606,129732.0
62892.656963855625,129729.0
62892.6670145052,129730.0
62892.67706515476,129750.0
62892.68711580433,129758.0
62892.6971664539,129791.0
62892.70721710347,129744.0
62892.71726775304,129758.0
62892.727318402605,129740.0
62892.73736905217,129788.0
62892.747419701744,129746.0
62892.75747035131,129761.0
62892.767521000875,129754.0
62892.77757165045,129718.0
62892.78762230001,129718.0
62892.797672949586,129746.0
62892.80772359915,129775.0
62892.81777424872,129745.0
62892.82782489829,129762.0
62892.837875547855,129752.0
62892.84792619743,129751.0
62892.85797684699,129745.0
62892.86802749656,129788.0
62892.87807814613,129748.0
62892.8881287957,129761.0
62892.89817944527,129790.0
62892.908230094836,129740.0
62892.9182807444,129754.0
62892.928331393974,129728.0
62892.93838204354,129746.0
62892.94843269311,129747.0
62892.95848334268,129721.0
62892.96853399224,129755.0
62892.978584641816,129760.0
62892.98863529138,129735.0
62892.99868594095,129767.0
62893.00873659052,129743.0
62893.018787240086,129738.0
62893.02883788966,129700.0
62893.038888539224,129742.0
62893.04893918879,129740.0
62893.05898983836,129708.0
62893.06904048793,129728.0
62893.0790911375,129724.0
62893.089141787066,129717.0
62893.09919243663,129683.0
62893.109243086205,129708.0
62893.11929373577,129690.0
62893.12934438534,129675.0
62893.13939503491,129640.0
62893.149445684474,129669.0
62893.15949633405,129664.0
62893.16954698361,129651.0
62893.179597633185,129655.0
62893.18964828275,129644.0
62893.199698932316,129646.0
62893.20974958189,129645.0
62893.219800231454,129649.0
62893.22985088102,129666.0
62893.23990153059,129636.0
62893.24995218016,129645.0
62893.26000282973,129634.0
62893.2700534793,129616.0
62893.28010412886,129609.0
62893.290154778435,129641.0
62893.300205428,129638.0
62893.31025607757,129620.0
62893.32030672714,129648.0
62893.330357376704,129625.0
62893.34040802628,129635.0
62893.35045867584,129593.0
62893.360509325415,129633.0
62893.37055997498,129618.0
62893.38061062455,129605.0
62893.39066127412,129642.0
62893.400711923685,129584.0
62893.41076257326,129619.0
62893.42081322282,129581.0
62893.43086387239,129608.0
62893.44091452196,129598.0
62893.45096517153,129584.0
62893.46101582109,129593.0
62893.471066470665,129634.0
62893.48111712023,129595.0
62893.491167769804,129611.0
62893.50121841937,129615.0
62893.511269068935,129581.0
62893.52131971851,129612.0
62893.53137036807,129591.0
62893.541421017646,129595.0
62893.55147166721,129604.0
62893.56152231678,129626.0
62893.57157296635,129630.0
62893.581623615915,129605.0
62893.59167426549,129593.0
62893.60172491505,129631.0
62893.61177556462,129606.0
62893.62182621419,129600.0
62893.63187686376,129608.0
62893.64192751333,129630.0
62893.651978162896,129630.0
62893.66202881246,129621.0
62893.672079462034,129607.0
62893.6821301116,129626.0
62893.69218076117,129589.0
62893.70223141074,129605.0
62893.7122820603,129594.0
62893.722332709876,129582.0
62893.73238335944,129609.0
62893.74243400901,129613.0
62893.75248465858,129632.0
62893.762535308146,129585.0
62893.77258595772,129598.0
62893.782636607284,129615.0
62893.79268725685,129638.0
62893.80273790642,129602.0
62893.81278855599,129652.0
62893.82283920556,129622.0
62893.832889855126,129586.0
62893.84294050469,129583.0
62893.852991154265,129634.0
62893.86304180383,129622.0
62893.8730924534,129612.0
62893.88314310297,129625.0
62893.893193752534,129632.0
62893.90324440211,129610.0
62893.91329505167,129588.0
62893.923345701245,129590.0
62893.93339635081,129566.0
62893.943447000376,129581.0
62893.95349764995,129572.0
62893.963548299515,129625.0
62893.97359894908,129544.0
62893.98364959865,129577.0
62893.99370024822,129556.0
62894.00375089779,129570.0
62894.01380154736,129552.0
62894.02385219692,129533.0
62894.033902846495,129557.0
62894.04395349606,129558.0
62894.05400414563,129545.0
62894.0640547952,129535.0
62894.074105444764,129546.0
62894.08415609434,129536.0
62894.0942067439,129555.0
62894.104257393476,129580.0
62894.11430804304,129536.0
62894.12435869261,129522.0
62894.13440934218,129516.0
62894.144459991745,129525.0
62894.15451064132,129531.0
62894.16456129088,129520.0
62894.17461194045,129538.0
62894.18466259002,129506.0
62894.19471323959,129543.0
62894.20476388915,129519.0
62894.214814538725,129501.0
62894.22486518829,129528.0
62894.234915837864,129542.0
62894.24496648743,129512.0
62894.255017136995,129552.0
62894.26506778657,129502.0
62894.27511843613,129528.0
62894.285169085706,129511.0
62894.29521973527,129503.0
62894.30527038484,129528.0
62894.31532103441,129544.0
62894.325371683975,129521.0
62894.33542233355,129549.0
62894.345472983114,129567.0
62894.35552363268,129548.0
62894.36557428225,129506.0
62894.37562493182,129521.0
62894.38567558139,129533.0
62894.395726230956,129543.0
62894.40577688052,129518.0
62894.415827530094,129542.0
62894.42587817966,129530.0
62894.435928829225,129548.0
62894.4459794788,129544.0
62894.45603012836,129550.0
62894.46608077794,129569.0
62894.4761314275,129557.0
62894.48618207707,129554.0
62894.49623272664,129516.0
62894.506283376206,129533.0
62894.51633402578,129547.0
62894.526384675344,129556.0
62894.53643532491,129575.0
62894.54648597448,129568.0
62894.55653662405,129570.0
62894.56658727362,129568.0
62894.576637923186,129587.0
62894.58668857275,129586.0
62894.596739222325,129595.0
62894.60678987189,129576.0
62894.61684052146,129574.0
62894.62689117103,129589.0
62894.636941820594,129607.0
62894.64699247017,129578.0
62894.65704311973,129567.0
62894.6670937693,129615.0
62894.67714441887,129613.0
62894.687195068436,129588.0
62894.69724571801,129572.0
62894.707296367575,129606.0
62894.71734701714,129597.0
62894.72739766671,129574.0
62894.73744831628,129565.0
62894.74749896585,129574.0
62894.75754961542,129525.0
62894.76760026498,129562.0
62894.777650914555,129550.0
62894.78770156412,129562.0
62894.79775221369,129522.0
62894.80780286326,129522.0
62894.817853512825,129548.0
62894.8279041624,129516.0
62894.83795481196,129505.0
62894.848005461536,129532.0
62894.8580561111,129543.0
62894.86810676067,129521.0
62894.87815741024,129546.0
62894.888208059805,129521.0
62894.89825870937,129526.0
62894.90830935894,129512.0
62894.91836000851,129516.0
62894.92841065808,129500.0
62894.93846130765,129499.0
62894.94851195721,129511.0
62894.958562606786,129501.0
62894.96861325635,129508.0
62894.978663905924,129504.0
62894.98871455549,129515.0
62894.998765205055,129491.0
62895.00881585463,129498.0
62895.01886650419,129506.0
62895.028917153766,129446.0
62895.03896780333,129500.0
62895.0490184529,129499.0
62895.05906910247,129501.0
62895.069119752035,129495.0
62895.07917040161,129505.0
62895.089221051174,129536.0
62895.09927170074,129506.0
62895.10932235031,129477.0
62895.11937299988,129492.0
62895.12942364944,129478.0
62895.139474299016,129511.0
62895.14952494858,129522.0
62895.159575598154,129520.0
62895.16962624772,129435.0
62895.179676897285,129494.0
62895.18972754686,129472.0
62895.199778196424,129518.0
62895.209828846,129500.0
62895.21987949556,129500.0
62895.22993014513,129516.0
62895.2399807947,129482.0
62895.250031444266,129492.0
62895.26008209384,129507.0
62895.270132743404,129525.0
62895.28018339297,129482.0
62895.29023404254,129503.0
62895.30028469211,129493.0
62895.31033534168,129489.0
62895.32038599125,129481.0
62895.33043664081,129523.0
62895.340487290385,129517.0
62895.35053793995,129499.0
62895.360588589516,129523.0
62895.37063923909,129508.0
62895.380689888654,129521.0
62895.39074053823,129506.0
62895.40079118779,129525.0
62895.41084183736,129538.0
62895.42089248693,129523.0
62895.430943136496,129519.0
62895.44099378607,129532.0
62895.451044435635,129495.0
62895.4610950852,129538.0
62895.47114573477,129524.0
62895.48119638434,129533.0
62895.49124703391,129493.0
62895.50129768348,129548.0
62895.51134833304,129521.0
62895.521398982615,129524.0
62895.53144963218,129531.0
62895.54150028175,129549.0
62895.55155093132,129535.0
62895.561601580885,129491.0
62895.57165223046,129550.0
62895.58170288002,129533.0
62895.59175352959,129540.0
62895.60180417916,129543.0
62895.61185482873,129520.0
62895.6219054783,129514.0
62895.631956127865,129522.0
62895.64200677743,129534.0
62895.652057427,129504.0
62895.66210807657,129495.0
62895.67215872614,129494.0
62895.68220937571,129482.0
62895.69226002527,129467.0
62895.702310674846,129458.0
62895.71236132441,129474.0
62895.722411973984,129465.0
62895.73246262355,129441.0
62895.742513273115,129439.0
62895.75256392269,129476.0
62895.76261457225,129504.0
62895.772665221826,129439.0
62895.78271587139,129489.0
62895.79276652096,129460.0
62895.80281717053,129424.0
62895.812867820096,129416.0
62895.82291846966,129475.0
62895.832969119234,129436.0
62895.8430197688,129442.0
62895.85307041837,129455.0
62895.86312106794,129455.0
62895.8731717175,129451.0
62895.883222367076,129418.0
62895.89327301664,129474.0
62895.903323666214,129433.0
62895.91337431578,129434.0
62895.923424965345,129441.0
62895.93347561492,129470.0
62895.943526264484,129423.0
62895.95357691406,129431.0
62895.96362756362,129423.0
62895.97367821319,129423.0
62895.98372886276,129411.0
62895.993779512326,129461.0
62896.0038301619,129451.0
62896.013880811464,129441.0
62896.02393146103,129446.0
62896.0339821106,129431.0
62896.04403276017,129440.0
62896.054083409734,129416.0
62896.06413405931,129460.0
62896.07418470887,129439.0
62896.084235358445,129448.0
62896.09428600801,129454.0
62896.104336657576,129468.0
62896.11438730715,129424.0
62896.124437956714,129446.0
62896.13448860629,129463.0
62896.14453925585,129444.0
62896.15458990542,129484.0
62896.16464055499,129460.0
62896.17469120456,129460.0
62896.18474185413,129438.0
62896.194792503695,129482.0
62896.20484315326,129453.0
62896.21489380283,129444.0
62896.2249444524,129435.0
62896.23499510197,129469.0
62896.24504575154,129454.0
62896.2550964011,129529.0
62896.265147050675,129460.0
62896.27519770024,129470.0
62896.285248349806,129477.0
62896.29529899938,129465.0
62896.305349648945,129441.0
62896.31540029852,129468.0
62896.32545094808,129493.0
62896.33550159765,129463.0
62896.34555224722,129491.0
62896.35560289679,129460.0
62896.36565354636,129457.0
62896.375704195925,129445.0
62896.38575484549,129502.0
62896.39580549506,129478.0
62896.40585614463,129483.0
62896.4159067942,129493.0
62896.42595744377,129506.0
62896.43600809333,129476.0
62896.446058742906,129518.0
62896.45610939247,129496.0
62896.466160042044,129467.0
62896.47621069161,129474.0
62896.486261341175,129519.0
62896.49631199075,129507.0
62896.50636264031,129472.0
62896.51641328988,129482.0
62896.52646393945,129472.0
62896.53651458902,129462.0
62896.54656523859,129451.0
62896.556615888156,129464.0
62896.56666653772,129441.0
62896.576717187294,129455.0
62896.58676783686,129468.0
62896.59681848643,129464.0
62896.606869136,129453.0
62896.61691978556,129444.0
62896.626970435136,129484.0
62896.6370210847,129444.0
62896.647071734275,129457.0
62896.65712238384,129441.0
62896.667173033406,129442.0
62896.67722368298,129427.0
62896.687274332544,129447.0
62896.69732498212,129429.0
62896.70737563168,129426.0
62896.71742628125,129403.0
62896.72747693082,129407.0
62896.737527580386,129432.0
62896.74757822995,129463.0
62896.757628879524,129446.0
62896.76767952909,129407.0
62896.77773017866,129419.0
62896.78778082823,129424.0
62896.797831477794,129422.0
62896.80788212737,129470.0
62896.81793277693,129435.0
62896.827983426505,129435.0
62896.83803407607,129408.0
62896.848084725636,129453.0
62896.85813537521,129434.0
62896.868186024774,129442.0
62896.87823667435,129436.0
62896.88828732391,129411.0
62896.89833797348,129411.0
62896.90838862305,129442.0
62896.91843927262,129420.0
62896.92848992219,129435.0
62896.938540571755,129472.0
62896.94859122132,129442.0
62896.95864187089,129452.0
62896.96869252046,129430.0
62896.978743170024,129439.0
62896.9887938196,129452.0
62896.99884446916,129450.0
62897.008895118735,129481.0
62897.0189457683,129467.0
62897.02899641787,129431.0
62897.03904706744,129428.0
62897.049097717005,129482.0
62897.05914836658,129462.0
62897.06919901614,129457.0
62897.07924966571,129465.0
62897.08930031528,129471.0
62897.09935096485,129469.0
62897.10940161442,129486.0
62897.119452263985,129468.0
62897.12950291355,129474.0
62897.13955356312,129450.0
62897.14960421269,129474.0
62897.15965486226,129469.0
62897.16970551183,129475.0
62897.17975616139,129473.0
62897.189806810966,129491.0
62897.19985746053,129487.0
62897.2099081101,129480.0
62897.21995875967,129448.0
62897.230009409235,129491.0
62897.24006005881,129513.0
62897.25011070837,129464.0
62897.26016135794,129515.0
62897.27021200751,129494.0
62897.28026265708,129464.0
62897.29031330665,129518.0
62897.300363956216,129510.0
62897.31041460578,129496.0
62897.320465255354,129477.0
62897.33051590492,129500.0
62897.34056655449,129509.0
62897.35061720406,129508.0
62897.36066785362,129487.0
62897.370718503196,129534.0
62897.38076915276,129500.0
62897.390819802335,129499.0
62897.4008704519,129501.0
62897.410921101466,129521.0
62897.42097175104,129489.0
62897.431022400604,129484.0
62897.44107305017,129459.0
62897.45112369974,129458.0
62897.46117434931,129422.0
62897.47122499888,129491.0
62897.481275648446,129458.0
62897.49132629801,129437.0
62897.501376947585,129449.0
62897.51142759715,129466.0
62897.52147824672,129442.0
62897.53152889629,129430.0
62897.541579545854,129413.0
62897.55163019543,129454.0
62897.56168084499,129428.0
62897.571731494565,129438.0
62897.58178214413,129410.0
62897.591832793696,129421.0
62897.60188344327,129436.0
62897.611934092834,129408.0
62897.62198474241,129454.0
62897.63203539197,129400.0
62897.64208604154,129436.0
62897.65213669111,129421.0
62897.66218734068,129466.0
62897.67223799024,129418.0
62897.682288639815,129443.0
62897.69233928938,129414.0
62897.70238993895,129399.0
62897.71244058852,129460.0
62897.722491238084,129426.0
62897.73254188766,129443.0
62897.74259253722,129435.0
62897.752643186795,129437.0
62897.76269383636,129431.0
62897.77274448593,129443.0
62897.7827951355,129437.0
62897.792845785065,129423.0
62897.80289643464,129434.0
62897.8129470842,129448.0
62897.82299773377,129437.0
62897.83304838334,129457.0
62897.84309903291,129436.0
62897.85314968248,129441.0
62897.863200332045,129443.0
62897.87325098161,129438.0
62897.883301631184,129434.0
62897.89335228075,129456.0
62897.903402930315,129428.0
62897.91345357989,129462.0
62897.92350422945,129436.0
62897.933554879026,129453.0
62897.94360552859,129444.0
62897.95365617816,129425.0
62897.96370682773,129478.0
62897.973757477295,129455.0
62897.98380812687,129467.0
62897.99385877643,129482.0
62898.003909426,129463.0
62898.01396007557,129478.0
62898.02401072514,129458.0
62898.03406137471,129456.0
62898.044112024276,129498.0
62898.05416267384,129475.0
62898.064213323414,129472.0
62898.07426397298,129442.0
62898.08431462255,129448.0
62898.09436527212,129460.0
62898.10441592168,129499.0
62898.114466571256,129470.0
62898.12451722082,129464.0
62898.13456787039,129473.0
62898.14461851996,129484.0
62898.154669169526,129493.0
62898.1647198191,129480.0
62898.174770468664,129477.0
62898.18482111823,129487.0
62898.1948717678,129496.0
62898.20492241737,129489.0
62898.21497306694,129482.0
62898.225023716506,129462.0
62898.23507436607,129484.0
62898.245125015645,129440.0
62898.25517566521,129474.0
62898.26522631478,129509.0
62898.27527696435,129446.0
62898.285327613914,129515.0
62898.29537826349,129495.0
62898.30542891305,129485.0
62898.315479562625,129486.0
62898.32553021219,129508.0
62898.335580861756,129484.0
62898.34563151133,129462.0
62898.355682160895,129466.0
62898.36573281046,129469.0
62898.37578346003,129414.0
62898.3858341096,129447.0
62898.39588475917,129435.0
62898.40593540874,129403.0
62898.4159860583,129460.0
62898.426036707875,129429.0
62898.43608735744,129441.0
62898.44613800701,129426.0
62898.45618865658,129412.0
62898.466239306144,129414.0
62898.47628995572,129447.0
62898.48634060528,129435.0
62898.496391254856,129403.0
62898.50644190442,129460.0
62898.51649255399,129429.0
62898.52654320356,129441.0
62898.536593853125,129426.0
62898.5466445027,129412.0
62898.55669515226,129414.0
62898.56674580183,129425.0
62898.5767964514,129425.0
62898.58684710097,129407.0
62898.59689775054,129412.0
62898.606948400105,129389.0
62898.61699904967,129426.0
62898.627049699244,129380.0
62898.63710034881,129403.0
62898.647150998375,129385.0
62898.65720164795,129388.0
62898.66725229751,129427.0
62898.677302947086,129403.0
62898.68735359665,129381.0
62898.69740424622,129370.0
62898.70745489579,129378.0
62898.717505545355,129381.0
62898.72755619493,129396.0
62898.737606844494,129416.0
62898.74765749406,129400.0
62898.75770814363,129401.0
62898.7677587932,129397.0
62898.77780944277,129375.0
62898.787860092336,129418.0
62898.7979107419,129404.0
62898.807961391474,129426.0
62898.81801204104,129425.0
62898.82806269061,129390.0
62898.83811334018,129403.0
62898.84816398974,129398.0
62898.85821463932,129362.0
62898.86826528888,129408.0
62898.87831593845,129399.0
62898.88836658802,129420.0
62898.898417237586,129406.0
62898.90846788716,129427.0
62898.918518536724,129400.0
62898.92856918629,129385.0
62898.93861983586,129406.0
62898.94867048543,129433.0
62898.958721135,129389.0
62898.968771784566,129413.0
62898.97882243413,129459.0
62898.988873083705,129406.0
62898.99892373327,129420.0
62899.00897438284,129401.0
62899.01902503241,129388.0
62899.029075681974,129392.0
62899.03912633155,129410.0
62899.04917698111,129422.0
62899.059227630685,129415.0
62899.06927828025,129404.0
62899.079328929816,129421.0
62899.08937957939,129415.0
62899.099430228955,129428.0
62899.10948087852,129415.0
62899.11953152809,129407.0
62899.12958217766,129428.0
62899.13963282723,129406.0
62899.1496834768,129413.0
62899.15973412636,129446.0
62899.169784775935,129431.0
62899.1798354255,129425.0
62899.18988607507,129456.0
62899.19993672464,129440.0
62899.209987374205,129436.0
62899.22003802378,129400.0
62899.23008867334,129409.0
62899.240139322916,129410.0
62899.25018997248,129421.0
62899.26024062205,129431.0
62899.27029127162,129417.0
62899.280341921185,129418.0
62899.29039257076,129442.0
62899.30044322032,129455.0
62899.31049386989,129432.0
62899.32054451946,129440.0
62899.33059516903,129458.0
62899.34064581859,129429.0
62899.350696468166,129432.0
62899.36074711773,129472.0
62899.370797767304,129435.0
62899.38084841687,129414.0
62899.390899066435,129421.0
62899.40094971601,129398.0
62899.41100036557,129413.0
62899.421051015146,129395.0
62899.43110166471,129427.0
62899.44115231428,129408.0
62899.45120296385,129383.0
62899.461253613415,129383.0
62899.47130426299,129417.0
62899.481354912554,129400.0
62899.49140556212,129409.0
62899.50145621169,129395.0
62899.51150686126,129430.0
62899.52155751083,129372.0
62899.531608160396,129409.0
62899.54165880996,129388.0
62899.551709459534,129380.0
62899.5617601091,129386.0
62899.571810758665,129409.0
62899.58186140824,129383.0
62899.591912057804,129360.0
62899.60196270738,129398.0
62899.61201335694,129396.0
62899.62206400651,129383.0
62899.63211465608,129381.0
62899.642165305646,129406.0
62899.65221595522,129334.0
62899.662266604784,129390.0
62899.67231725435,129378.0
62899.68236790392,129426.0
62899.69241855349,129390.0
62899.70246920306,129382.0
62899.71251985263,129406.0
62899.72257050219,129420.0
62899.732621151765,129381.0
62899.74267180133,129399.0
62899.7527224509,129405.0
62899.76277310047,129389.0
62899.772823750034,129373.0
62899.78287439961,129420.0
62899.79292504917,129424.0
62899.80297569874,129385.0
62899.81302634831,129440.0
62899.823076997876,129407.0
62899.83312764745,129388.0
62899.843178297015,129381.0
62899.85322894658,129426.0
62899.86327959615,129412.0
62899.87333024572,129415.0
62899.88338089529,129395.0
62899.89343154486,129429.0
62899.90348219442,129417.0
62899.913532843995,129394.0
62899.92358349356,129424.0
62899.93363414313,129405.0
62899.9436847927,129407.0
62899.953735442265,129420.0
62899.96378609184,129440.0
62899.9738367414,129405.0
62899.983887390976,129448.0
62899.99393804054,129427.0
62900.00398869011,129440.0
62900.01403933968,129440.0
62900.024089989245,129405.0
62900.03414063881,129436.0
62900.04419128838,129412.0
62900.05424193795,129439.0
62900.06429258752,129454.0
62900.07434323709,129447.0
62900.08439388665,129451.0
62900.094444536226,129440.0
62900.10449518579,129453.0
62900.114545835364,129435.0
62900.12459648493,129452.0
62900.134647134495,129462.0
62900.14469778407,129443.0
62900.15474843363,129449.0
62900.164799083206,129465.0
62900.17484973277,129478.0
62900.18490038234,129430.0
62900.19495103191,129451.0
62900.205001681476,129432.0
62900.21505233105,129437.0
62900.225102980614,129463.0
62900.23515363018,129469.0
62900.24520427975,129463.0
62900.25525492932,129452.0
62900.26530557888,129438.0
62900.275356228456,129447.0
62900.28540687802,129477.0
62900.295457527594,129439.0
62900.30550817716,129440.0
62900.315558826725,129450.0
62900.3256094763,129393.0
62900.335660125864,129424.0
62900.34571077544,129434.0
62900.355761425,129413.0
62900.36581207457,129409.0
62900.37586272414,129401.0
62900.385913373706,129394.0
62900.39596402328,129408.0
62900.406014672844,129398.0
62900.41606532241,129426.0
62900.42611597198,129382.0
62900.43616662155,129395.0
62900.44621727112,129398.0
62900.45626792069,129411.0
62900.46631857025,129391.0
62900.476369219825,129393.0
62900.48641986939,129392.0
62900.496470518956,129411.0
62900.50652116853,129359.0
62900.516571818094,129406.0
62900.52662246767,129397.0
62900.53667311723,129362.0
62900.5467237668,129395.0
62900.55677441637,129407.0
62900.56682506594,129405.0
62900.57687571551,129408.0
62900.586926365075,129403.0
62900.59697701464,129418.0
62900.60702766421,129405.0
62900.61707831378,129376.0
62900.62712896335,129426.0
62900.63717961292,129389.0
62900.64723026248,129401.0
62900.657280912055,129419.0
62900.66733156162,129431.0
62900.67738221119,129377.0
62900.68743286076,129421.0
62900.697483510325,129416.0
62900.7075341599,129429.0
62900.71758480946,129417.0
62900.72763545903,129419.0
62900.7376861086,129418.0
62900.74773675817,129396.0
62900.75778740774,129379.0
62900.767838057305,129417.0
62900.77788870687,129425.0
62900.78793935644,129410.0
62900.79799000601,129421.0
62900.80804065558,129415.0
62900.81809130515,129444.0
62900.82814195471,129427.0
62900.838192604286,129454.0
62900.84824325385,129397.0
62900.858293903424,129411.0
62900.86834455299,129430.0
62900.878395202555,129448.0
62900.88844585213,129429.0
62900.89849650169,129418.0
62900.908547151266,129449.0
62900.91859780083,129407.0
62900.9286484504,129449.0
62900.93869909997,129434.0
62900.948749749536,129450.0
62900.9588003991,129458.0
62900.968851048674,129436.0
62900.97890169824,129465.0
62900.98895234781,129445.0
62900.99900299738,129458.0
62901.00905364694,129449.0
62901.019104296516,129446.0
62901.02915494608,129439.0
62901.039205595654,129442.0
62901.04925624522,129447.0
62901.059306894786,129453.0
62901.06935754436,129451.0
62901.079408193924,129458.0
62901.0894588435,129482.0
62901.09950949306,129464.0
62901.10956014263,129415.0
62901.1196107922,129466.0
62901.129661441766,129435.0
62901.13971209134,129469.0
62901.149762740904,129500.0
62901.15981339047,129465.0
62901.16986404004,129489.0
62901.17991468961,129464.0
62901.189965339174,129466.0
62901.20001598875,129475.0
62901.21006663831,129443.0
62901.220117287885,129449.0
62901.23016793745,129438.0
62901.240218587016,129453.0
62901.25026923659,129399.0
62901.260319886154,129426.0
62901.27037053573,129419.0
62901.28042118529,129406.0
62901.29047183486,129403.0
62901.30052248443,129416.0
62901.310573134,129436.0
62901.32062378357,129440.0
62901.330674433135,129442.0
62901.3407250827,129413.0
62901.35077573227,129407.0
62901.36082638184,129425.0
62901.37087703141,129410.0
62901.38092768098,129428.0
62901.39097833054,129384.0
62901.401028980115,129395.0
62901.41107962968,129374.0
62901.42113027925,129423.0
62901.43118092882,129402.0
62901.441231578385,129382.0
62901.45128222796,129401.0
62901.46133287752,129376.0
62901.47138352709,129395.0
62901.48143417666,129365.0
62901.49148482623,129400.0
62901.5015354758,129431.0
62901.511586125365,129411.0
62901.52163677493,129393.0
62901.5316874245,129399.0
62901.54173807407,129380.0
62901.55178872364,129413.0
62901.56183937321,129430.0
62901.57189002277,129398.0
62901.581940672346,129422.0
62901.59199132191,129407.0
62901.602041971484,129394.0
62901.61209262105,129388.0
62901.622143270615,129392.0
62901.63219392019,129372.0
62901.64224456975,129373.0
62901.65229521932,129326.0
62901.66234586889,129241.0
62901.67239651846,129199.0
62901.68244716803,129150.0
62901.692497817596,129107.0
62901.70254846716,129114.0
62901.712599116734,129095.0
62901.7226497663,129091.0
62901.73270041587,129120.0
62901.74275106544,129101.0
62901.752801715,129117.0
62901.762852364576,129147.0
62901.77290301414,129134.0
62901.782953663715,129144.0
62901.79300431328,129179.0
62901.803054962846,129197.0
62901.81310561242,129203.0
62901.823156261984,129197.0
62901.83320691156,129224.0
62901.84325756112,129225.0
62901.85330821069,129237.0
62901.86335886026,129242.0
62901.873409509826,129252.0
62901.88346015939,129261.0
62901.893510808964,129234.0
62901.90356145853,129270.0
62901.9136121081,129249.0
62901.92366275767,129284.0
62901.933713407234,129275.0
62901.94376405681,129309.0
62901.95381470637,129316.0
62901.963865355945,129302.0
62901.97391600551,129281.0
62901.983966655076,129315.0
62901.99401730465,129287.0
62902.004067954214,129311.0
62902.01411860379,129320.0
62902.02416925335,129305.0
62902.03421990292,129295.0
62902.04427055249,129325.0
62902.05432120206,129362.0
62902.06437185163,129335.0
62902.074422501195,129315.0
62902.08447315076,129357.0
62902.09452380033,129365.0
62902.1045744499,129326.0
62902.114625099464,129377.0
62902.12467574904,129356.0
62902.1347263986,129346.0
62902.144777048175,129350.0
62902.15482769774,129326.0
62902.16487834731,129326.0
62902.17492899688,129307.0
62902.184979646445,129335.0
62902.19503029602,129338.0
62902.20508094558,129322.0
62902.21513159515,129284.0
62902.22518224472,129375.0
62902.23523289429,129346.0
62902.24528354386,129344.0
62902.255334193425,129341.0
62902.26538484299,129349.0
62902.275435492564,129336.0
62902.28548614213,129361.0
62902.2955367917,129363.0
62902.30558744127,129321.0
62902.31563809083,129350.0
62902.325688740406,129352.0
62902.33573938997,129378.0
62902.34579003954,129351.0
62902.35584068911,129380.0
62902.365891338675,129360.0
62902.37594198825,129346.0
62902.38599263781,129372.0
62902.39604328738,129346.0
62902.40609393695,129347.0
62902.41614458652,129382.0
62902.42619523609,129389.0
62902.436245885656,129397.0
62902.44629653522,129343.0
62902.456347184794,129382.0
62902.46639783436,129376.0
62902.47644848393,129359.0
62902.4864991335,129387.0
62902.49654978306,129389.0
62902.506600432636,129383.0
62902.5166510822,129372.0
62902.526701731775,129388.0
62902.53675238134,129403.0
62902.546803030906,129421.0
62902.55685368048,129399.0
62902.566904330044,129415.0
62902.57695497961,129387.0
62902.58700562918,129394.0
62902.59705627875,129399.0
62902.60710692832,129440.0
62902.617157577886,129426.0
62902.62720822745,129405.0
62902.637258877025,129434.0
62902.64730952659,129429.0
62902.65736017616,129425.0
62902.66741082573,129412.0
62902.677461475294,129465.0
62902.68751212487,129416.0
62902.69756277443,129458.0
62902.707613424005,129452.0
62902.71766407357,129431.0
62902.727714723136,129439.0
62902.73776537271,129448.0
62902.747816022274,129446.0
62902.75786667185,129464.0
62902.76791732141,129435.0
62902.77796797098,129458.0
62902.78801862055,129465.0
62902.79806927012,129454.0
62902.80811991968,129486.0
62902.818170569255,129461.0
62902.82822121882,129495.0
62902.83827186839,129442.0
62902.84832251796,129491.0
62902.858373167524,129474.0
62902.8684238171,129466.0
62902.87847446666,129476.0
62902.888525116236,129486.0
62902.8985757658,129447.0
62902.90862641537,129484.0
62902.91867706494,129490.0
62902.928727714505,129500.0
62902.93877836408,129459.0
62902.94882901364,129482.0
62902.95887966321,129461.0
62902.96893031278,129489.0
62902.97898096235,129484.0
62902.98903161192,129481.0
62902.999082261485,129482.0
62903.00913291105,129463.0
62903.019183560624,129502.0
62903.02923421019,129496.0
62903.039284859755,129514.0
62903.04933550933,129455.0
62903.05938615889,129489.0
62903.069436808466,129474.0
62903.07948745803,129436.0
62903.0895381076,129429.0
62903.09958875717,129490.0
62903.109639406735,129443.0
62903.11969005631,129447.0
62903.129740705874,129436.0
62903.13979135544,129462.0
62903.14984200501,129454.0
62903.15989265458,129438.0
62903.16994330415,129465.0
62903.179993953716,129451.0
62903.19004460328,129461.0
62903.200095252854,129465.0
62903.21014590242,129440.0
62903.22019655199,129458.0
62903.23024720156,129460.0
62903.24029785112,129494.0
62903.2503485007,129471.0
62903.26039915026,129450.0
62903.270449799835,129462.0
62903.2805004494,129429.0
62903.290551098966,129466.0
62903.30060174854,129466.0
62903.310652398104,129469.0
62903.32070304767,129486.0
62903.33075369724,129454.0
62903.34080434681,129481.0
62903.35085499638,129476.0
62903.360905645946,129483.0
62903.37095629551,129470.0
62903.381006945085,129487.0
62903.39105759465,129452.0
62903.40110824422,129478.0
62903.41115889379,129469.0
62903.421209543354,129483.0
62903.43126019293,129456.0
62903.44131084249,129484.0
62903.451361492065,129457.0
62903.46141214163,129512.0
62903.471462791196,129490.0
62903.48151344077,129487.0
62903.491564090335,129487.0
62903.50161473991,129465.0
62903.51166538947,129446.0
62903.52171603904,129478.0
62903.53176668861,129522.0
62903.54181733818,129481.0
62903.55186798774,129517.0
62903.561918637315,129492.0
62903.57196928688,129479.0
62903.58201993645,129482.0
62903.59207058602,129479.0
62903.602121235584,129507.0
62903.61217188516,129500.0
62903.62222253472,129524.0
62903.632273184296,129484.0
62903.64232383386,129470.0
62903.65237448343,129477.0
62903.662425133,129509.0
62903.672475782565,129494.0
62903.68252643214,129512.0
62903.6925770817,129501.0
62903.70262773127,129528.0
62903.71267838084,129491.0
62903.72272903041,129520.0
62903.73277967998,129517.0
62903.742830329546,129548.0
62903.75288097911,129492.0
62903.762931628684,129523.0
62903.77298227825,129545.0
62903.783032927815,129523.0
62903.79308357739,129552.0
62903.80313422695,129529.0
62903.813184876526,129550.0
62903.82323552609,129520.0
62903.83328617566,129521.0
62903.84333682523,129542.0
62903.853387474795,129527.0
62903.86343812437,129518.0
62903.873488773934,129549.0
62903.8835394235,129514.0
62903.89359007307,129534.0
62903.90364072264,129558.0
62903.91369137221,129513.0
62903.923742021776,129495.0
62903.93379267134,129510.0
62903.943843320914,129475.0
62903.95389397048,129529.0
62903.96394462005,129475.0
62903.97399526962,129501.0
62903.984045919184,129517.0
62903.99409656876,129478.0
62904.00414721832,129493.0
62904.01419786789,129499.0
62904.02424851746,129466.0
62904.034299167026,129496.0
62904.0443498166,129501.0
62904.054400466164,129489.0
62904.06445111573,129515.0
62904.0745017653,129504.0
62904.08455241487,129525.0
62904.09460306444,129509.0
62904.10465371401,129500.0
62904.11470436357,129514.0
62904.124755013145,129491.0
62904.13480566271,129502.0
62904.14485631228,129515.0
62904.15490696185,129516.0
62904.164957611414,129526.0
62904.17500826099,129481.0
62904.18505891055,129474.0
62904.195109560125,129531.0
62904.20516020969,129507.0
62904.215210859256,129525.0
62904.22526150883,129556.0
62904.235312158395,129532.0
62904.24536280796,129512.0
62904.25541345753,129516.0
62904.2654641071,129527.0
62904.27551475667,129500.0
62904.28556540624,129523.0
62904.2956160558,129517.0
62904.305666705375,129509.0
62904.31571735494,129486.0
62904.32576800451,129529.0
62904.33581865408,129518.0
62904.345869303645,129531.0
62904.35591995322,129534.0
62904.36597060278,129541.0
62904.376021252356,129548.0
62904.38607190192,129537.0
62904.39612255149,129514.0
62904.40617320106,129530.0
62904.416223850625,129556.0
62904.4262745002,129540.0
62904.43632514976,129546.0
62904.44637579933,129541.0
62904.4564264489,129522.0
62904.46647709847,129532.0
62904.47652774803,129507.0
62904.486578397606,129534.0
62904.49662904717,129528.0
62904.506679696744,129538.0
62904.51673034631,129544.0
62904.526780995875,129542.0
62904.53683164545,129532.0
62904.54688229501,129550.0
62904.556932944586,129563.0
62904.56698359415,129574.0
62904.57703424372,129545.0
62904.58708489329,129548.0
62904.597135542856,129561.0
62904.60718619243,129574.0
62904.617236841994,129572.0
62904.62728749156,129541.0
62904.63733814113,129532.0
62904.6473887907,129525.0
62904.65743944027,129578.0
62904.667490089836,129551.0
62904.6775407394,129597.0
62904.687591388974,129521.0
62904.69764203854,129575.0
62904.707692688105,129538.0
62904.71774333768,129520.0
62904.727793987244,129504.0
62904.73784463682,129503.0
62904.74789528638,129507.0
62904.75794593595,129496.0
62904.76799658552,129515.0
62904.778047235086,129485.0
62904.78809788466,129502.0
62904.798148534224,129475.0
62904.80819918379,129504.0
62904.81824983336,129483.0
62904.82830048293,129497.0
62904.8383511325,129453.0
62904.84840178207,129482.0
62904.85845243163,129466.0
62904.868503081205,129522.0
62904.87855373077,129510.0
62904.88860438034,129485.0
62904.89865502991,129516.0
62904.908705679474,129510.0
62904.91875632905,129523.0
62904.92880697861,129529.0
62904.93885762818,129535.0
62904.94890827775,129528.0
62904.95895892732,129515.0
62904.96900957689,129484.0
62904.979060226455,129539.0
62904.98911087602,129506.0
62904.99916152559,129518.0
62905.00921217516,129504.0
62905.01926282473,129537.0
62905.0293134743,129508.0
62905.03936412386,129511.0
62905.049414773435,129537.0
62905.059465423,129472.0
62905.06951607257,129519.0
62905.07956672214,129516.0
62905.089617371705,129515.0
62905.09966802128,129504.0
62905.10971867084,129485.0
62905.119769320416,129510.0
62905.12981996998,129512.0
62905.13987061955,129540.0
62905.14992126912,129518.0
62905.159971918685,129527.0
62905.17002256825,129523.0
62905.18007321782,129518.0
62905.19012386739,129509.0
62905.20017451696,129534.0
62905.21022516653,129525.0
62905.22027581609,129529.0
62905.230326465666,129543.0
62905.24037711523,129545.0
62905.250427764804,129519.0
62905.26047841437,129547.0
62905.270529063935,129507.0
62905.28057971351,129533.0
62905.29063036307,129493.0
62905.300681012646,129521.0
62905.31073166221,129539.0
62905.32078231178,129546.0
62905.33083296135,129548.0
62905.340883610916,129516.0
62905.35093426049,129541.0
62905.360984910054,129525.0
62905.37103555962,129537.0
62905.38108620919,129524.0
62905.39113685876,129583.0
62905.40118750832,129517.0
62905.411238157896,129551.0
62905.42128880746,129560.0
62905.431339457034,129569.0
62905.4413901066,129522.0
62905.451440756166,129546.0
62905.46149140574,129514.0
62905.471542055304,129512.0
62905.48159270488,129512.0
62905.49164335444,129518.0
62905.50169400401,129515.0
62905.51174465358,129479.0
62905.521795303146,129495.0
62905.53184595272,129485.0
62905.541896602284,129513.0
62905.55194725185,129488.0
62905.56199790142,129508.0
62905.57204855099,129495.0
62905.58209920056,129484.0
62905.59214985013,129510.0
62905.60220049969,129513.0
62905.612251149265,129495.0
62905.62230179883,129460.0
62905.632352448396,129490.0
62905.64240309797,129488.0
62905.652453747534,129486.0
62905.66250439711,129484.0
62905.67255504667,129511.0
62905.68260569624,129505.0
62905.69265634581,129492.0
62905.70270699538,129498.0
62905.71275764495,129512.0
62905.722808294515,129471.0
62905.73285894408,129494.0
62905.74290959365,129517.0
62905.75296024322,129496.0
62905.76301089279,129479.0
62905.77306154236,129490.0
62905.78311219192,129502.0
62905.793162841495,129467.0
62905.80321349106,129492.0
62905.813264140634,129496.0
62905.8233147902,129490.0
62905.833365439765,129487.0
62905.84341608934,129514.0
62905.8534667389,129534.0
62905.86351738847,129508.0
62905.87356803804,129499.0
62905.88361868761,129532.0
62905.89366933718,129493.0
62905.903719986745,129483.0
62905.91377063631,129479.0
62905.92382128588,129523.0
62905.93387193545,129498.0
62905.94392258502,129506.0
62905.95397323459,129532.0
62905.96402388415,129494.0
62905.974074533726,129505.0
62905.98412518329,129509.0
62905.994175832864,129542.0
62906.00422648243,129517.0
62906.014277131995,129529.0
62906.02432778157,129514.0
62906.03437843113,129479.0
62906.044429080706,129495.0
62906.05447973027,129534.0
62906.06453037984,129519.0
62906.07458102941,129523.0
62906.084631678976,129501.0
62906.09468232854,129543.0
62906.104732978114,129522.0
62906.11478362768,129515.0
62906.12483427725,129546.0
62906.13488492682,129542.0
62906.14493557638,129536.0
62906.154986225956,129503.0
62906.16503687552,129565.0
62906.175087525095,129534.0
62906.18513817466,129523.0
62906.195188824226,129531.0
62906.2052394738,129561.0
62906.215290123364,129501.0
62906.22534077294,129543.0
62906.2353914225,129570.0
62906.24544207207,129519.0
62906.25549272164,129530.0
62906.265543371206,129547.0
62906.27559402078,129565.0
62906.285644670344,129525.0
62906.29569531991,129546.0
62906.30574596948,129557.0
62906.31579661905,129543.0
62906.325847268614,129525.0
62906.33589791819,129563.0
62906.34594856775,129509.0
62906.355999217325,129538.0
62906.36604986689,129524.0
62906.376100516456,129533.0
62906.38615116603,129494.0
62906.396201815594,129503.0
62906.40625246517,129457.0
62906.41630311473,129518.0
62906.4263537643,129511.0
62906.43640441387,129492.0
62906.44645506344,129471.0
62906.45650571301,129443.0
62906.466556362575,129455.0
62906.47660701214,129486.0
62906.48665766171,129503.0
62906.49670831128,129461.0
62906.50675896085,129518.0
62906.51680961042,129470.0
62906.52686025998,129509.0
62906.536910909555,129446.0
62906.54696155912,129488.0
62906.55701220869,129464.0
62906.56706285826,129428.0
62906.577113507825,129465.0
62906.5871641574,129474.0
62906.59721480696,129465.0
62906.60726545653,129473.0
62906.6173161061,129488.0
62906.62736675567,129468.0
62906.63741740524,129481.0
62906.647468054805,129463.0
62906.65751870437,129490.0
62906.667569353944,129459.0
62906.67762000351,129487.0
62906.68767065308,129498.0
62906.69772130265,129463.0
62906.70777195221,129450.0
62906.717822601786,129485.0
62906.72787325135,129508.0
62906.737923900924,129474.0
62906.74797455049,129483.0
62906.758025200055,129496.0
62906.76807584963,129512.0
62906.77812649919,129459.0
62906.78817714876,129485.0
62906.79822779833,129481.0
62906.8082784479,129493.0
62906.81832909747,129463.0
62906.828379747036,129466.0
62906.8384303966,129450.0
62906.848481046174,129485.0
62906.85853169574,129499.0
62906.86858234531,129506.0
62906.87863299488,129465.0
62906.88868364444,129503.0
62906.898734294016,129509.0
62906.90878494358,129529.0
62906.918835593155,129485.0
62906.92888624272,129496.0
62906.938936892286,129498.0
62906.94898754186,129488.0
62906.959038191424,129511.0
62906.969088841,129535.0
62906.97913949056,129515.0
62906.98919014013,129484.0
62906.9992407897,129509.0
62907.009291439266,129510.0
62907.01934208883,129505.0
62907.029392738405,129493.0
62907.03944338797,129502.0
62907.04949403754,129513.0
62907.05954468711,129519.0
62907.069595336674,129531.0
62907.07964598625,129508.0
62907.08969663581,129516.0
62907.099747285385,129510.0
62907.10979793495,129490.0
62907.119848584516,129536.0
62907.12989923409,129514.0
62907.139949883654,129544.0
62907.15000053323,129534.0
62907.16005118279,129512.0
62907.17010183236,129542.0
62907.18015248193,129554.0
62907.1902031315,129564.0
62907.20025378107,129526.0
62907.210304430635,129546.0
62907.2203550802,129559.0
62907.23040572977,129528.0
62907.24045637934,129525.0
62907.250507028904,129524.0
62907.26055767848,129545.0
62907.27060832804,129504.0
62907.280658977616,129526.0
62907.29070962718,129503.0
62907.30076027675,129500.0
62907.31081092632,129491.0
62907.320861575885,129473.0
62907.33091222546,129504.0
62907.34096287502,129493.0
62907.35101352459,129516.0
62907.36106417416,129504.0
62907.37111482373,129453.0
62907.3811654733,129468.0
62907.391216122865,129433.0
62907.40126677243,129459.0
62907.411317422004,129449.0
62907.42136807157,129482.0
62907.43141872114,129492.0
62907.44146937071,129462.0
62907.45152002027,129443.0
62907.461570669846,129473.0
62907.47162131941,129500.0
62907.48167196898,129473.0
62907.49172261855,129518.0
62907.501773268115,129443.0
62907.51182391769,129457.0
62907.521874567254,129445.0
62907.53192521682,129479.0
62907.54197586639,129494.0
62907.55202651596,129475.0
62907.56207716553,129485.0
62907.572127815096,129470.0
62907.58217846466,129492.0
62907.592229114234,129461.0
62907.6022797638,129495.0
62907.61233041337,129467.0
62907.62238106294,129490.0
62907.6324317125,129520.0
62907.64248236208,129502.0
62907.65253301164,129456.0
62907.662583661215,129493.0
62907.67263431078,129489.0
62907.682684960346,129499.0
62907.69273560992,129478.0
62907.702786259484,129506.0
62907.71283690905,129497.0
62907.72288755862,129519.0
62907.73293820819,129489.0
62907.74298885776,129508.0
62907.753039507326,129487.0
62907.76309015689,129487.0
62907.773140806465,129529.0
62907.78319145603,129495.0
62907.7932421056,129519.0
62907.80329275517,129541.0
62907.813343404734,129501.0
62907.82339405431,129538.0
62907.83344470387,129517.0
62907.843495353445,129497.0
62907.85354600301,129524.0
62907.863596652576,129500.0
62907.87364730215,129523.0
62907.883697951715,129505.0
62907.89374860129,129516.0
62907.90379925085,129534.0
62907.91384990042,129524.0
62907.92390054999,129499.0
62907.93395119956,129562.0
62907.94400184912,129529.0
62907.954052498695,129534.0
62907.96410314826,129512.0
62907.97415379783,129542.0
62907.9842044474,129540.0
62907.994255096964,129534.0
62908.00430574654,129555.0
62908.0143563961,129528.0
62908.024407045676,129522.0
62908.03445769524,129514.0
62908.04450834481,129541.0
62908.05455899438,129497.0
62908.064609643945,129524.0
62908.07466029352,129529.0
62908.08471094308,129507.0
62908.09476159265,129557.0
62908.10481224222,129545.0
62908.11486289179,129548.0
62908.12491354136,129541.0
62908.134964190926,129525.0
62908.14501484049,129560.0
62908.155065490064,129538.0
62908.16511613963,129537.0
62908.1751667892,129536.0
62908.18521743877,129515.0
62908.19526808833,129540.0
62908.205318737906,129546.0
62908.21536938747,129523.0
