time,ppg
62863.87634390732,172272.0
62863.886453071435,172264.0
62863.89656223554,172240.0
62863.90667139964,172246.0
62863.916780563755,172247.0
62863.92688972786,172273.0
62863.936998891964,172254.0
62863.947108056076,172278.0
62863.95721722018,172292.0
62863.967326384285,172283.0
62863.9774355484,172282.0
62863.9875447125,172263.0
62863.997653876606,172271.0
62864.00776304071,172270.0
62864.01787220482,172256.0
62864.02798136893,172299.0
62864.03809053303,172299.0
62864.04819969714,172266.0
62864.05830886125,172296.0
62864.06841802535,172307.0
62864.078527189464,172277.0
62864.08863635357,172289.0
62864.09874551767,172263.0
62864.108854681785,172268.0
62864.11896384589,172310.0
62864.12907300999,172282.0
62864.139182174105,172270.0
62864.14929133821,172265.0
62864.159400502314,172282.0
62864.169509666426,172260.0
62864.17961883053,172279.0
62864.189727994635,172294.0
62864.19983715875,172262.0
62864.20994632285,172284.0
62864.220055486956,172277.0
62864.23016465107,172277.0
62864.24027381517,172282.0
62864.25038297928,172296.0
62864.26049214339,172289.0
62864.27060130749,172338.0
62864.2807104716,172283.0
62864.29081963571,172290.0
62864.300928799814,172263.0
62864.31103796392,172263.0
62864.32114712802,172270.0
62864.331256292135,172296.0
62864.34136545624,172295.0
62864.351474620344,172301.0
62864.361583784455,172262.0
62864.37169294856,172283.0
62864.381802112664,172290.0
62864.391911276776,172284.0
62864.40202044088,172284.0
62864.412129604985,172275.0
62864.4222387691,172299.0
62864.4323479332,172274.0
62864.442457097306,172300.0
62864.45256626142,172287.0
62864.46267542552,172308.0
62864.47278458963,172316.0
62864.48289375374,172263.0
62864.49300291784,172311.0
62864.50311208195,172309.0
62864.51322124606,172312.0
62864.523330410164,172299.0
62864.53343957427,172322.0
62864.54354873838,172299.0
62864.553657902485,172265.0
62864.56376706659,172231.0
62864.5738762307,172273.0
62864.583985394805,172289.0
62864.59409455891,172274.0
62864.60420372302,172310.0
62864.614312887126,172237.0
62864.62442205123,172270.0
62864.634531215335,172304.0
62864.64464037945,172254.0
62864.65474954355,172284.0
62864.664858707656,172264.0
62864.67496787177,172240.0
62864.68507703587,172288.0
62864.69518619998,172246.0
62864.70529536409,172237.0
62864.71540452819,172257.0
62864.7255136923,172294.0
62864.73562285641,172278.0
62864.745732020514,172265.0
62864.75584118462,172265.0
62864.76595034873,172277.0
62864.776059512835,172234.0
62864.78616867694,172239.0
62864.79627784105,172270.0
62864.806387005156,172246.0
62864.81649616926,172254.0
62864.82660533337,172254.0
62864.836714497476,172227.0
62864.84682366158,172281.0
62864.85693282569,172281.0
62864.8670419898,172255.0
62864.8771511539,172261.0
62864.88726031801,172279.0
62864.89736948212,172266.0
62864.90747864622,172252.0
62864.917587810334,172268.0
62864.92769697444,172229.0
62864.93780613854,172255.0
62864.94791530265,172255.0
62864.95802446676,172266.0
62864.968133630864,172255.0
62864.97824279497,172267.0
62864.98835195908,172260.0
62864.998461123185,172268.0
62865.00857028729,172286.0
62865.0186794514,172286.0
62865.028788615506,172244.0
62865.03889777961,172278.0
62865.04900694372,172305.0
62865.05911610783,172279.0
62865.06922527193,172239.0
62865.07933443604,172280.0
62865.08944360015,172260.0
62865.09955276425,172279.0
62865.10966192836,172251.0
62865.11977109247,172260.0
62865.12988025657,172258.0
62865.139989420684,172292.0
62865.15009858479,172258.0
62865.16020774889,172269.0
62865.170316913005,172279.0
62865.18042607711,172308.0
62865.190535241214,172255.0
62865.200644405326,172279.0
62865.21075356943,172283.0
62865.220862733535,172291.0
62865.23097189765,172254.0
62865.24108106175,172249.0
62865.251190225856,172275.0
62865.26129938996,172295.0
62865.27140855407,172289.0
62865.28151771818,172265.0
62865.29162688228,172287.0
62865.30173604639,172303.0
62865.3118452105,172284.0
62865.3219543746,172269.0
62865.33206353871,172297.0
62865.34217270282,172276.0
62865.35228186692,172278.0
62865.362391031034,172280.0
62865.37250019514,172282.0
62865.38260935924,172283.0
62865.392718523355,172280.0
62865.40282768746,172257.0
62865.412936851564,172305.0
62865.423046015676,172298.0
62865.43315517978,172272.0
62865.443264343885,172298.0
62865.453373508,172301.0
62865.4634826721,172296.0
62865.473591836206,172316.0
62865.48370100032,172266.0
62865.49381016442,172273.0
62865.50391932853,172274.0
62865.51402849264,172275.0
62865.52413765674,172243.0
62865.53424682085,172250.0
62865.54435598496,172254.0
62865.55446514906,172296.0
62865.56457431317,172255.0
62865.57468347727,172253.0
62865.584792641384,172256.0
62865.59490180549,172270.0
62865.60501096959,172233.0
62865.615120133705,172250.0
62865.62522929781,172252.0
62865.635338461914,172258.0
62865.645447626026,172222.0
62865.65555679013,172218.0
62865.665665954235,172250.0
62865.67577511835,172284.0
62865.68588428245,172270.0
62865.695993446556,172209.0
62865.70610261067,172254.0
62865.71621177477,172270.0
62865.72632093888,172247.0
62865.73643010299,172252.0
62865.74653926709,172268.0
62865.7566484312,172272.0
62865.76675759531,172263.0
62865.776866759414,172251.0
62865.78697592352,172243.0
62865.79708508763,172253.0
62865.807194251734,172281.0
62865.81730341584,172232.0
62865.82741257995,172254.0
62865.837521744055,172251.0
62865.84763090816,172270.0
62865.85774007227,172223.0
62865.867849236376,172255.0
62865.87795840048,172281.0
62865.888067564585,172279.0
62865.8981767287,172225.0
62865.9082858928,172229.0
62865.918395056906,172218.0
62865.92850422102,172275.0
62865.93861338512,172242.0
62865.94872254923,172239.0
62865.95883171334,172268.0
62865.96894087744,172276.0
62865.97905004155,172237.0
62865.98915920566,172236.0
62865.999268369764,172269.0
62866.00937753387,172269.0
62866.01948669798,172281.0
62866.029595862085,172242.0
62866.03970502619,172254.0
62866.0498141903,172246.0
62866.059923354405,172247.0
62866.07003251851,172248.0
62866.08014168262,172281.0
62866.090250846726,172295.0
62866.10036001083,172280.0
62866.11046917494,172261.0
62866.12057833905,172295.0
62866.13068750315,172274.0
62866.14079666726,172283.0
62866.15090583137,172274.0
62866.16101499547,172275.0
62866.171124159584,172269.0
62866.18123332369,172244.0
62866.19134248779,172261.0
62866.2014516519,172281.0
62866.21156081601,172293.0
62866.221669980114,172309.0
62866.23177914422,172283.0
62866.24188830833,172290.0
62866.251997472435,172291.0
62866.26210663654,172294.0
62866.27221580065,172258.0
62866.282324964755,172300.0
62866.29243412886,172283.0
62866.30254329297,172313.0
62866.312652457076,172265.0
62866.32276162118,172272.0
62866.33287078529,172274.0
62866.3429799494,172308.0
62866.3530891135,172296.0
62866.36319827761,172281.0
62866.37330744172,172292.0
62866.38341660582,172268.0
62866.393525769934,172301.0
62866.40363493404,172257.0
62866.41374409814,172304.0
62866.423853262255,172264.0
62866.43396242636,172319.0
62866.444071590464,172279.0
62866.454180754576,172277.0
62866.46428991868,172263.0
62866.474399082785,172243.0
62866.4845082469,172234.0
62866.494617411,172276.0
62866.504726575105,172262.0
62866.51483573921,172279.0
62866.52494490332,172243.0
62866.535054067426,172263.0
62866.54516323153,172253.0
62866.55527239564,172282.0
62866.56538155975,172248.0
62866.57549072385,172226.0
62866.58559988796,172241.0
62866.59570905207,172225.0
62866.60581821617,172242.0
62866.615927380284,172257.0
62866.62603654439,172254.0
62866.63614570849,172260.0
62866.646254872605,172275.0
62866.65636403671,172272.0
62866.666473200814,172253.0
62866.676582364926,172271.0
62866.68669152903,172274.0
62866.696800693135,172263.0
62866.70690985725,172241.0
62866.71701902135,172279.0
62866.727128185456,172281.0
62866.73723734957,172274.0
62866.74734651367,172253.0
62866.757455677776,172261.0
62866.76756484189,172289.0
62866.77767400599,172281.0
62866.7877831701,172258.0
62866.79789233421,172288.0
62866.80800149831,172247.0
62866.81811066242,172263.0
62866.82821982652,172276.0
62866.838328990634,172296.0
62866.84843815474,172275.0
62866.85854731884,172261.0
62866.868656482955,172273.0
62866.87876564706,172280.0
62866.888874811164,172278.0
62866.898983975276,172252.0
62866.90909313938,172284.0
62866.919202303485,172275.0
62866.9293114676,172286.0
62866.9394206317,172263.0
62866.949529795806,172284.0
62866.95963895992,172271.0
62866.96974812402,172312.0
62866.97985728813,172244.0
62866.98996645224,172278.0
62867.00007561634,172296.0
62867.01018478045,172303.0
62867.02029394456,172295.0
62867.03040310866,172290.0
62867.04051227277,172278.0
62867.05062143688,172287.0
62867.060730600984,172300.0
62867.07083976509,172298.0
62867.0809489292,172287.0
62867.091058093305,172264.0
62867.10116725741,172296.0
62867.11127642152,172241.0
62867.121385585626,172273.0
62867.13149474973,172309.0
62867.141603913835,172309.0
62867.15171307795,172288.0
62867.16182224205,172276.0
62867.171931406156,172295.0
62867.18204057027,172278.0
62867.19214973437,172266.0
62867.20225889848,172298.0
62867.21236806259,172293.0
62867.22247722669,172333.0
62867.2325863908,172281.0
62867.24269555491,172277.0
62867.25280471901,172299.0
62867.26291388312,172307.0
62867.27302304723,172311.0
62867.283132211334,172301.0
62867.29324137544,172279.0
62867.30335053955,172303.0
62867.313459703655,172304.0
62867.32356886776,172294.0
62867.33367803187,172292.0
62867.343787195976,172284.0
62867.35389636008,172331.0
62867.36400552419,172304.0
62867.3741146883,172315.0
62867.3842238524,172289.0
62867.39433301651,172283.0
62867.40444218062,172306.0
62867.41455134472,172284.0
62867.424660508834,172286.0
62867.43476967294,172270.0
62867.44487883704,172279.0
62867.45498800115,172293.0
62867.46509716526,172274.0
62867.47520632936,172282.0
62867.48531549347,172275.0
62867.49542465758,172269.0
62867.505533821684,172290.0
62867.51564298579,172225.0
62867.5257521499,172255.0
62867.535861314005,172245.0
62867.54597047811,172240.0
62867.55607964222,172294.0
62867.566188806326,172279.0
62867.57629797043,172268.0
62867.58640713454,172268.0
62867.59651629865,172301.0
62867.60662546275,172254.0
62867.61673462686,172252.0
62867.62684379097,172295.0
62867.63695295507,172285.0
62867.647062119184,172289.0
62867.65717128329,172271.0
62867.66728044739,172264.0
62867.677389611505,172255.0
62867.68749877561,172273.0
62867.69760793971,172293.0
62867.707717103825,172276.0
62867.71782626793,172309.0
62867.727935432034,172287.0
62867.738044596146,172296.0
62867.74815376025,172255.0
62867.758262924355,172262.0
62867.76837208846,172292.0
62867.77848125257,172273.0
62867.788590416676,172259.0
62867.79869958078,172299.0
62867.80880874489,172258.0
62867.818917909,172294.0
62867.8290270731,172270.0
62867.83913623721,172272.0
62867.84924540132,172269.0
62867.85935456542,172282.0
62867.869463729534,172305.0
62867.87957289364,172276.0
62867.88968205774,172282.0
62867.899791221855,172285.0
62867.90990038596,172306.0
62867.920009550064,172276.0
62867.930118714175,172277.0
62867.94022787828,172286.0
62867.950337042384,172292.0
62867.960446206496,172312.0
62867.9705553706,172291.0
62867.980664534705,172298.0
62867.99077369882,172290.0
62868.00088286292,172300.0
62868.010992027026,172295.0
62868.02110119114,172317.0
62868.03121035524,172310.0
62868.04131951935,172314.0
62868.05142868346,172287.0
62868.06153784756,172319.0
62868.07164701167,172301.0
62868.08175617577,172317.0
62868.091865339884,172298.0
62868.10197450399,172287.0
62868.11208366809,172309.0
62868.122192832205,172275.0
62868.13230199631,172294.0
62868.142411160414,172325.0
62868.152520324526,172307.0
62868.16262948863,172280.0
62868.172738652735,172298.0
62868.182847816846,172314.0
62868.19295698095,172294.0
62868.203066145055,172312.0
62868.21317530917,172305.0
62868.22328447327,172328.0
62868.233393637376,172311.0
62868.24350280149,172325.0
62868.25361196559,172304.0
62868.2637211297,172291.0
62868.27383029381,172334.0
62868.28393945791,172346.0
62868.29404862202,172328.0
62868.30415778613,172346.0
62868.314266950234,172345.0
62868.32437611434,172322.0
62868.33448527845,172333.0
62868.344594442555,172311.0
62868.35470360666,172328.0
62868.36481277077,172347.0
62868.374921934876,172307.0
62868.38503109898,172319.0
62868.395140263085,172308.0
62868.4052494272,172313.0
62868.4153585913,172296.0
62868.425467755405,172307.0
62868.43557691952,172312.0
62868.44568608362,172308.0
62868.455795247726,172311.0
62868.46590441184,172299.0
62868.47601357594,172332.0
62868.48612274005,172307.0
62868.49623190416,172299.0
62868.50634106826,172293.0
62868.51645023237,172283.0
62868.52655939648,172325.0
62868.536668560584,172307.0
62868.54677772469,172291.0
62868.5568868888,172333.0
62868.566996052905,172308.0
62868.57710521701,172301.0
62868.58721438112,172285.0
62868.597323545226,172311.0
62868.60743270933,172317.0
62868.61754187344,172336.0
62868.62765103755,172344.0
62868.63776020165,172338.0
62868.64786936576,172316.0
62868.65797852987,172322.0
62868.66808769397,172312.0
62868.67819685808,172302.0
62868.68830602219,172306.0
62868.69841518629,172338.0
62868.7085243504,172291.0
62868.71863351451,172348.0
62868.72874267861,172291.0
62868.73885184272,172325.0
62868.74896100683,172314.0
62868.759070170934,172319.0
62868.76917933504,172318.0
62868.77928849915,172335.0
62868.789397663255,172293.0
62868.79950682736,172323.0
62868.80961599147,172318.0
62868.819725155576,172317.0
62868.82983431968,172328.0
62868.83994348379,172297.0
62868.8500526479,172343.0
62868.860161812,172312.0
62868.87027097611,172305.0
62868.88038014022,172301.0
62868.89048930432,172338.0
62868.90059846843,172331.0
62868.91070763254,172321.0
62868.92081679664,172333.0
62868.930925960754,172318.0
62868.94103512486,172340.0
62868.95114428896,172342.0
62868.961253453075,172325.0
62868.97136261718,172333.0
62868.981471781284,172360.0
62868.991580945396,172345.0
62869.0016901095,172315.0
62869.011799273605,172355.0
62869.02190843771,172334.0
62869.03201760182,172351.0
62869.042126765926,172302.0
62869.05223593003,172335.0
62869.06234509414,172348.0
62869.07245425825,172349.0
62869.08256342235,172321.0
62869.09267258646,172308.0
62869.10278175057,172349.0
62869.11289091467,172355.0
62869.123000078784,172332.0
62869.13310924289,172358.0
62869.14321840699,172348.0
62869.153327571104,172362.0
62869.16343673521,172338.0
62869.17354589931,172334.0
62869.183655063425,172347.0
62869.19376422753,172364.0
62869.203873391634,172333.0
62869.213982555746,172360.0
62869.22409171985,172339.0
62869.234200883955,172356.0
62869.24431004807,172303.0
62869.25441921217,172328.0
62869.264528376276,172352.0
62869.27463754039,172366.0
62869.28474670449,172356.0
62869.2948558686,172339.0
62869.30496503271,172350.0
62869.31507419681,172355.0
62869.32518336092,172334.0
62869.33529252502,172316.0
62869.345401689134,172356.0
62869.35551085324,172337.0
62869.36562001734,172354.0
62869.375729181455,172314.0
62869.38583834556,172334.0
62869.39594750966,172319.0
62869.406056673775,172340.0
62869.41616583788,172325.0
62869.426275001984,172346.0
62869.436384166096,172336.0
62869.4464933302,172351.0
62869.456602494305,172344.0
62869.46671165842,172329.0
62869.47682082252,172334.0
62869.486929986626,172322.0
62869.49703915074,172348.0
62869.50714831484,172314.0
62869.51725747895,172347.0
62869.52736664306,172358.0
62869.53747580716,172312.0
62869.54758497127,172366.0
62869.55769413538,172357.0
62869.567803299484,172314.0
62869.57791246359,172334.0
62869.5880216277,172328.0
62869.598130791805,172336.0
62869.60823995591,172365.0
62869.61834912002,172326.0
62869.628458284125,172347.0
62869.63856744823,172344.0
62869.648676612334,172356.0
62869.658785776446,172333.0
62869.66889494055,172316.0
62869.679004104655,172361.0
62869.68911326877,172344.0
62869.69922243287,172322.0
62869.709331596976,172309.0
62869.71944076109,172340.0
62869.72954992519,172335.0
62869.7396590893,172347.0
62869.74976825341,172325.0
62869.75987741751,172358.0
62869.76998658162,172345.0
62869.78009574573,172339.0
62869.790204909834,172344.0
62869.80031407394,172344.0
62869.81042323805,172342.0
62869.820532402155,172365.0
62869.83064156626,172318.0
62869.84075073037,172347.0
62869.850859894475,172361.0
62869.86096905858,172379.0
62869.87107822269,172327.0
62869.881187386796,172369.0
62869.8912965509,172346.0
62869.90140571501,172347.0
62869.91151487912,172296.0
62869.92162404322,172311.0
62869.93173320733,172352.0
62869.94184237144,172356.0
62869.95195153554,172335.0
62869.96206069965,172354.0
62869.97216986376,172370.0
62869.98227902786,172378.0
62869.99238819197,172340.0
62870.00249735608,172361.0
62870.012606520184,172360.0
62870.02271568429,172383.0
62870.0328248484,172386.0
62870.042934012505,172334.0
62870.05304317661,172347.0
62870.06315234072,172365.0
62870.073261504825,172342.0
62870.08337066893,172367.0
62870.09347983304,172378.0
62870.103588997146,172370.0
62870.11369816125,172400.0
62870.12380732536,172331.0
62870.13391648947,172360.0
62870.14402565357,172371.0
62870.15413481768,172346.0
62870.16424398179,172384.0
62870.17435314589,172356.0
62870.184462310004,172388.0
62870.19457147411,172395.0
62870.20468063821,172340.0
62870.214789802325,172353.0
62870.22489896643,172355.0
62870.235008130534,172368.0
62870.245117294646,172343.0
62870.25522645875,172332.0
62870.265335622855,172347.0
62870.27544478696,172332.0
62870.28555395107,172340.0
62870.295663115176,172344.0
62870.30577227928,172339.0
62870.31588144339,172329.0
62870.325990607496,172307.0
62870.3360997716,172316.0
62870.34620893571,172363.0
62870.35631809982,172362.0
62870.36642726392,172334.0
62870.37653642803,172338.0
62870.38664559214,172341.0
62870.39675475624,172371.0
62870.406863920354,172358.0
62870.41697308446,172325.0
62870.42708224856,172359.0
62870.437191412675,172321.0
62870.44730057678,172371.0
62870.457409740884,172341.0
62870.467518904996,172349.0
62870.4776280691,172357.0
62870.487737233205,172358.0
62870.49784639732,172350.0
62870.50795556142,172365.0
62870.518064725526,172353.0
62870.52817388964,172368.0
62870.53828305374,172326.0
62870.54839221785,172373.0
62870.55850138196,172346.0
62870.56861054606,172336.0
62870.57871971017,172349.0
62870.58882887427,172336.0
62870.59893803838,172343.0
62870.60904720249,172349.0
62870.61915636659,172319.0
62870.629265530704,172340.0
62870.63937469481,172353.0
62870.64948385891,172376.0
62870.659593023025,172314.0
62870.66970218713,172328.0
62870.679811351234,172349.0
62870.689920515346,172371.0
62870.70002967945,172340.0
62870.710138843555,172370.0
62870.72024800767,172347.0
62870.73035717177,172342.0
62870.740466335876,172382.0
62870.75057549999,172377.0
62870.76068466409,172362.0
62870.7707938282,172381.0
62870.78090299231,172356.0
62870.79101215641,172345.0
62870.80112132052,172371.0
62870.81123048463,172332.0
62870.82133964873,172378.0
62870.83144881284,172365.0
62870.84155797695,172366.0
62870.851667141054,172352.0
62870.86177630516,172387.0
62870.87188546927,172369.0
62870.881994633375,172364.0
62870.89210379748,172371.0
62870.902212961584,172341.0
62870.912322125696,172392.0
62870.9224312898,172321.0
62870.932540453905,172371.0
62870.94264961802,172340.0
62870.95275878212,172348.0
62870.962867946226,172395.0
62870.97297711034,172369.0
62870.98308627444,172345.0
62870.99319543855,172353.0
62871.00330460266,172369.0
62871.01341376676,172366.0
62871.02352293087,172375.0
62871.03363209498,172336.0
62871.04374125908,172330.0
62871.05385042319,172364.0
62871.0639595873,172344.0
62871.074068751404,172358.0
62871.08417791551,172344.0
62871.09428707962,172342.0
62871.104396243725,172319.0
62871.11450540783,172359.0
62871.12461457194,172296.0
62871.134723736046,172328.0
62871.14483290015,172312.0
62871.15494206426,172365.0
62871.16505122837,172324.0
62871.17516039247,172352.0
62871.18526955658,172317.0
62871.19537872069,172303.0
62871.20548788479,172341.0
62871.2155970489,172355.0
62871.22570621301,172323.0
62871.23581537711,172339.0
62871.24592454122,172369.0
62871.25603370533,172319.0
62871.266142869434,172311.0
62871.27625203354,172344.0
62871.28636119765,172345.0
62871.296470361754,172293.0
62871.30657952586,172348.0
62871.31668868997,172354.0
62871.326797854075,172348.0
62871.33690701818,172309.0
62871.34701618229,172338.0
62871.357125346396,172317.0
62871.3672345105,172329.0
62871.37734367461,172329.0
62871.38745283872,172358.0
62871.39756200282,172325.0
62871.40767116693,172323.0
62871.41778033104,172333.0
62871.42788949514,172355.0
62871.437998659254,172341.0
62871.44810782336,172365.0
62871.45821698746,172332.0
62871.468326151575,172340.0
62871.47843531568,172322.0
62871.488544479784,172327.0
62871.49865364389,172335.0
62871.508762808,172346.0
62871.518871972105,172306.0
62871.52898113621,172369.0
62871.53909030032,172349.0
62871.549199464425,172331.0
62871.55930862853,172358.0
62871.56941779264,172323.0
62871.579526956746,172351.0
62871.58963612085,172354.0
62871.59974528496,172349.0
62871.60985444907,172343.0
62871.61996361317,172367.0
62871.63007277728,172343.0
62871.64018194139,172331.0
62871.65029110549,172380.0
62871.660400269604,172375.0
62871.67050943371,172346.0
62871.68061859781,172318.0
62871.690727761925,172347.0
62871.70083692603,172370.0
62871.710946090134,172331.0
62871.721055254246,172382.0
62871.73116441835,172371.0
62871.741273582455,172358.0
62871.75138274657,172328.0
62871.76149191067,172364.0
62871.771601074775,172332.0
62871.78171023889,172380.0
62871.79181940299,172354.0
62871.801928567096,172348.0
62871.8120377312,172359.0
62871.82214689531,172364.0
62871.83225605942,172363.0
62871.84236522352,172344.0
62871.85247438763,172325.0
62871.86258355174,172345.0
62871.87269271584,172309.0
62871.882801879954,172316.0
62871.89291104406,172313.0
62871.90302020816,172358.0
62871.913129372275,172298.0
62871.92323853638,172279.0
62871.933347700484,172287.0
62871.943456864596,172326.0
62871.9535660287,172336.0
62871.963675192805,172318.0
62871.97378435692,172306.0
62871.98389352102,172325.0
62871.994002685125,172334.0
62872.00411184924,172322.0
62872.01422101334,172281.0
62872.024330177446,172303.0
62872.03443934156,172338.0
62872.04454850566,172316.0
62872.05465766977,172283.0
62872.06476683388,172313.0
62872.07487599798,172330.0
62872.08498516209,172315.0
62872.0950943262,172308.0
62872.105203490304,172310.0
62872.11531265441,172334.0
62872.12542181851,172300.0
62872.135530982625,172308.0
62872.14564014673,172322.0
62872.155749310834,172340.0
62872.165858474946,172285.0
62872.17596763905,172312.0
62872.186076803155,172277.0
62872.19618596727,172319.0
62872.20629513137,172312.0
62872.216404295476,172310.0
62872.22651345959,172291.0
62872.23662262369,172345.0
62872.246731787796,172334.0
62872.25684095191,172311.0
62872.26695011601,172307.0
62872.27705928012,172300.0
62872.28716844423,172339.0
62872.29727760833,172319.0
62872.30738677244,172296.0
62872.31749593655,172337.0
62872.327605100654,172321.0
62872.33771426476,172319.0
62872.34782342887,172287.0
62872.357932592975,172311.0
62872.36804175708,172349.0
62872.37815092119,172315.0
62872.388260085296,172303.0
62872.3983692494,172306.0
62872.40847841351,172358.0
62872.41858757762,172325.0
62872.42869674172,172311.0
62872.438805905826,172301.0
62872.44891506994,172353.0
62872.45902423404,172299.0
62872.46913339815,172302.0
62872.47924256226,172278.0
62872.48935172636,172330.0
62872.49946089047,172324.0
62872.50957005458,172306.0
62872.51967921868,172315.0
62872.52978838279,172345.0
62872.5398975469,172327.0
62872.550006711004,172329.0
62872.56011587511,172322.0
62872.57022503922,172352.0
62872.580334203325,172314.0
62872.59044336743,172292.0
62872.60055253154,172298.0
62872.610661695646,172354.0
62872.62077085975,172335.0
62872.63088002386,172314.0
62872.64098918797,172319.0
62872.65109835207,172316.0
62872.66120751618,172312.0
62872.67131668029,172303.0
62872.68142584439,172269.0
62872.691535008504,172258.0
62872.70164417261,172303.0
62872.71175333671,172287.0
62872.721862500824,172230.0
62872.73197166493,172294.0
62872.74208082903,172291.0
62872.75218999314,172274.0
62872.76229915725,172281.0
62872.772408321354,172299.0
62872.78251748546,172287.0
62872.79262664957,172284.0
62872.802735813675,172289.0
62872.81284497778,172283.0
62872.82295414189,172296.0
62872.833063305996,172284.0
62872.8431724701,172253.0
62872.85328163421,172274.0
62872.86339079832,172283.0
62872.87349996242,172279.0
62872.88360912653,172309.0
62872.89371829064,172272.0
62872.90382745474,172298.0
62872.913936618854,172298.0
62872.92404578296,172274.0
62872.93415494706,172288.0
62872.944264111175,172277.0
62872.95437327528,172314.0
62872.96448243938,172290.0
62872.974591603495,172281.0
62872.9847007676,172299.0
62872.994809931704,172317.0
62873.004919095816,172274.0
62873.01502825992,172284.0
62873.025137424025,172286.0
62873.03524658814,172313.0
62873.04535575224,172293.0
62873.055464916346,172330.0
62873.06557408045,172291.0
62873.07568324456,172337.0
62873.08579240867,172298.0
62873.09590157277,172269.0
62873.10601073688,172279.0
62873.11611990099,172323.0
62873.12622906509,172299.0
62873.136338229204,172281.0
62873.14644739331,172294.0
62873.15655655741,172301.0
62873.166665721525,172297.0
62873.17677488563,172281.0
62873.18688404973,172280.0
62873.196993213845,172290.0
62873.20710237795,172288.0
62873.217211542054,172341.0
62873.227320706166,172302.0
62873.23742987027,172311.0
62873.247539034375,172301.0
62873.25764819849,172289.0
62873.26775736259,172285.0
62873.277866526696,172288.0
62873.28797569081,172295.0
62873.29808485491,172315.0
62873.30819401902,172292.0
62873.31830318313,172317.0
62873.32841234723,172307.0
62873.33852151134,172299.0
62873.34863067545,172278.0
62873.358739839554,172282.0
62873.36884900366,172328.0
62873.37895816776,172299.0
62873.389067331875,172293.0
62873.39917649598,172311.0
62873.409285660084,172321.0
62873.419394824195,172297.0
62873.4295039883,172280.0
62873.439613152404,172323.0
62873.449722316516,172276.0
62873.45983148062,172307.0
62873.469940644725,172308.0
62873.48004980884,172276.0
62873.49015897294,172302.0
62873.500268137046,172275.0
62873.51037730116,172238.0
62873.52048646526,172229.0
62873.53059562937,172269.0
62873.54070479348,172274.0
62873.55081395758,172237.0
62873.56092312169,172230.0
62873.5710322858,172264.0
62873.581141449904,172271.0
62873.59125061401,172241.0
62873.60135977812,172230.0
62873.611468942225,172248.0
62873.62157810633,172267.0
62873.63168727044,172247.0
62873.641796434546,172256.0
62873.65190559865,172240.0
62873.66201476276,172264.0
62873.672123926866,172274.0
62873.68223309097,172231.0
62873.692342255075,172244.0
62873.70245141919,172263.0
62873.71256058329,172237.0
62873.722669747396,172243.0
62873.73277891151,172275.0
62873.74288807561,172266.0
62873.75299723972,172250.0
62873.76310640383,172226.0
62873.77321556793,172239.0
62873.78332473204,172269.0
62873.79343389615,172247.0
62873.803543060254,172247.0
62873.81365222436,172218.0
62873.82376138847,172240.0
62873.833870552575,172267.0
62873.84397971668,172250.0
62873.85408888079,172266.0
62873.864198044896,172224.0
62873.874307209,172271.0
62873.88441637311,172287.0
62873.89452553722,172256.0
62873.90463470132,172267.0
62873.91474386543,172281.0
62873.92485302954,172270.0
62873.93496219364,172254.0
62873.94507135775,172280.0
62873.95518052186,172266.0
62873.96528968596,172293.0
62873.975398850074,172290.0
62873.98550801418,172255.0
62873.99561717828,172280.0
62874.00572634239,172267.0
62874.0158355065,172279.0
62874.025944670604,172257.0
62874.03605383471,172285.0
62874.04616299882,172309.0
62874.056272162925,172243.0
62874.06638132703,172252.0
62874.07649049114,172267.0
62874.086599655246,172258.0
62874.09670881935,172283.0
62874.10681798346,172242.0
62874.11692714757,172286.0
62874.12703631167,172250.0
62874.13714547578,172252.0
62874.14725463989,172290.0
62874.15736380399,172281.0
62874.1674729681,172270.0
62874.17758213221,172262.0
62874.18769129631,172265.0
62874.197800460424,172302.0
62874.20790962453,172281.0
62874.21801878863,172267.0
62874.228127952745,172314.0
62874.23823711685,172288.0
62874.248346280954,172289.0
62874.258455445066,172282.0
62874.26856460917,172260.0
62874.278673773275,172262.0
62874.28878293739,172298.0
62874.29889210149,172284.0
62874.309001265596,172298.0
62874.3191104297,172276.0
62874.32921959381,172312.0
62874.33932875792,172273.0
62874.34943792202,172299.0
62874.35954708613,172280.0
62874.36965625024,172288.0
62874.37976541434,172243.0
62874.38987457845,172278.0
62874.39998374256,172271.0
62874.41009290666,172266.0
62874.420202070774,172243.0
62874.43031123488,172251.0
62874.44042039898,172268.0
62874.450529563095,172240.0
62874.4606387272,172219.0
62874.470747891304,172233.0
62874.480857055416,172223.0
62874.49096621952,172252.0
62874.501075383625,172257.0
62874.51118454774,172230.0
62874.52129371184,172226.0
62874.531402875946,172235.0
62874.54151204006,172241.0
62874.55162120416,172241.0
62874.56173036827,172256.0
62874.57183953238,172244.0
62874.58194869648,172234.0
62874.59205786059,172214.0
62874.6021670247,172215.0
62874.612276188804,172216.0
62874.62238535291,172240.0
62874.63249451701,172215.0
62874.642603681124,172250.0
62874.65271284523,172241.0
62874.66282200933,172243.0
62874.672931173445,172238.0
62874.68304033755,172217.0
62874.693149501654,172211.0
62874.703258665766,172233.0
62874.71336782987,172223.0
62874.723476993975,172212.0
62874.73358615809,172201.0
62874.74369532219,172241.0
62874.753804486296,172227.0
62874.76391365041,172255.0
62874.77402281451,172236.0
62874.78413197862,172245.0
62874.79424114273,172197.0
62874.80435030683,172243.0
62874.81445947094,172262.0
62874.82456863505,172238.0
62874.834677799154,172226.0
62874.84478696326,172260.0
62874.85489612737,172270.0
62874.865005291475,172244.0
62874.87511445558,172228.0
62874.88522361969,172208.0
62874.895332783795,172284.0
62874.9054419479,172249.0
62874.91555111201,172269.0
62874.925660276116,172240.0
62874.93576944022,172286.0
62874.945878604325,172244.0
62874.95598776844,172239.0
62874.96609693254,172250.0
62874.976206096646,172242.0
62874.98631526076,172216.0
62874.99642442486,172263.0
62875.00653358897,172228.0
62875.01664275308,172265.0
62875.02675191718,172240.0
62875.03686108129,172255.0
62875.0469702454,172238.0
62875.057079409504,172275.0
62875.06718857361,172280.0
62875.07729773772,172261.0
62875.087406901825,172267.0
62875.09751606593,172278.0
62875.10762523004,172247.0
62875.117734394145,172257.0
62875.12784355825,172252.0
62875.13795272236,172246.0
62875.148061886466,172273.0
62875.15817105057,172268.0
62875.16828021468,172250.0
62875.17838937879,172264.0
62875.18849854289,172287.0
62875.198607707,172276.0
62875.20871687111,172275.0
62875.21882603521,172287.0
62875.228935199324,172294.0
62875.23904436343,172254.0
62875.24915352753,172236.0
62875.25926269164,172288.0
62875.26937185575,172272.0
62875.279481019854,172252.0
62875.28959018396,172212.0
62875.29969934807,172232.0
62875.309808512175,172232.0
62875.31991767628,172236.0
62875.33002684039,172225.0
62875.340136004495,172231.0
62875.3502451686,172247.0
62875.36035433271,172226.0
62875.370463496816,172194.0
62875.38057266092,172219.0
62875.39068182503,172235.0
62875.40079098914,172243.0
62875.41090015324,172223.0
62875.42100931735,172187.0
62875.43111848146,172246.0
62875.44122764556,172231.0
62875.451336809674,172229.0
62875.46144597378,172225.0
62875.47155513788,172251.0
62875.481664301995,172248.0
62875.4917734661,172227.0
62875.501882630204,172215.0
62875.511991794316,172250.0
62875.52210095842,172245.0
62875.532210122525,172251.0
62875.54231928664,172191.0
62875.55242845074,172188.0
62875.562537614845,172260.0
62875.57264677895,172235.0
62875.58275594306,172205.0
62875.592865107166,172237.0
62875.60297427127,172261.0
62875.61308343538,172239.0
62875.62319259949,172233.0
62875.63330176359,172228.0
62875.6434109277,172235.0
62875.65352009181,172243.0
62875.66362925591,172211.0
62875.673738420024,172239.0
62875.68384758413,172249.0
62875.69395674823,172235.0
62875.704065912345,172194.0
62875.71417507645,172217.0
62875.724284240554,172242.0
62875.734393404666,172244.0
62875.74450256877,172259.0
62875.754611732875,172220.0
62875.76472089699,172257.0
62875.77483006109,172251.0
62875.784939225196,172246.0
62875.79504838931,172213.0
62875.80515755341,172228.0
62875.815266717516,172205.0
62875.82537588163,172233.0
62875.83548504573,172235.0
62875.84559420984,172268.0
62875.85570337395,172270.0
62875.86581253805,172247.0
62875.87592170216,172241.0
62875.88603086626,172255.0
62875.896140030374,172258.0
62875.90624919448,172246.0
62875.91635835858,172252.0
62875.926467522695,172260.0
62875.9365766868,172265.0
62875.946685850904,172238.0
62875.956795015016,172223.0
62875.96690417912,172224.0
62875.977013343225,172274.0
62875.98712250734,172271.0
62875.99723167144,172254.0
62876.007340835546,172276.0
62876.01744999966,172262.0
62876.02755916376,172255.0
62876.03766832787,172266.0
62876.04777749198,172225.0
62876.05788665608,172251.0
62876.06799582019,172260.0
62876.0781049843,172295.0
62876.0882141484,172255.0
62876.09832331251,172281.0
62876.10843247662,172262.0
62876.118541640724,172297.0
62876.12865080483,172226.0
62876.13875996894,172267.0
62876.148869133045,172258.0
62876.15897829715,172247.0
62876.16908746126,172234.0
62876.179196625366,172269.0
62876.18930578947,172242.0
62876.199414953575,172211.0
62876.20952411769,172219.0
62876.21963328179,172218.0
62876.229742445896,172231.0
62876.23985161001,172237.0
62876.24996077411,172227.0
62876.26006993822,172208.0
62876.27017910233,172259.0
62876.28028826643,172225.0
62876.29039743054,172198.0
62876.30050659465,172210.0
62876.31061575875,172254.0
62876.32072492286,172228.0
62876.33083408697,172190.0
62876.340943251074,172202.0
62876.35105241518,172206.0
62876.36116157929,172223.0
62876.371270743395,172248.0
62876.3813799075,172206.0
62876.39148907161,172224.0
62876.401598235716,172217.0
62876.41170739982,172202.0
62876.42181656393,172181.0
62876.43192572804,172261.0
62876.44203489214,172237.0
62876.45214405625,172236.0
62876.46225322036,172155.0
62876.47236238446,172195.0
62876.482471548574,172223.0
62876.49258071268,172220.0
62876.50268987678,172200.0
62876.51279904089,172213.0
62876.522908205,172227.0
62876.5330173691,172199.0
62876.54312653321,172209.0
62876.55323569732,172203.0
62876.563344861424,172235.0
62876.57345402553,172221.0
62876.58356318964,172220.0
62876.593672353745,172232.0
62876.60378151785,172226.0
62876.61389068196,172218.0
62876.623999846066,172195.0
62876.63410901017,172204.0
62876.64421817428,172219.0
62876.65432733839,172234.0
62876.66443650249,172255.0
62876.6745456666,172211.0
62876.68465483071,172234.0
62876.69476399481,172231.0
62876.704873158924,172229.0
62876.71498232303,172235.0
62876.72509148713,172196.0
62876.735200651245,172258.0
62876.74530981535,172229.0
62876.755418979454,172211.0
62876.765528143565,172217.0
62876.77563730767,172225.0
62876.785746471774,172255.0
62876.795855635886,172216.0
62876.80596479999,172233.0
62876.816073964095,172243.0
62876.8261831282,172265.0
62876.83629229231,172237.0
62876.846401456416,172266.0
62876.85651062052,172245.0
62876.86661978463,172217.0
62876.87672894874,172207.0
62876.88683811284,172206.0
62876.89694727695,172243.0
62876.90705644106,172272.0
62876.91716560516,172238.0
62876.927274769274,172232.0
62876.93738393338,172246.0
62876.94749309748,172283.0
62876.957602261595,172273.0
62876.9677114257,172231.0
62876.977820589804,172246.0
62876.987929753916,172234.0
62876.99803891802,172260.0
62877.008148082125,172242.0
62877.018257246236,172261.0
62877.02836641034,172267.0
62877.038475574445,172223.0
62877.04858473856,172246.0
62877.05869390266,172258.0
62877.068803066766,172257.0
62877.07891223088,172276.0
62877.08902139498,172245.0
62877.09913055909,172257.0
62877.1092397232,172261.0
62877.1193488873,172240.0
62877.12945805141,172221.0
62877.13956721551,172178.0
62877.149676379624,172228.0
62877.15978554373,172226.0
62877.16989470783,172215.0
62877.180003871945,172233.0
62877.19011303605,172232.0
62877.200222200154,172255.0
62877.210331364266,172241.0
62877.22044052837,172243.0
62877.230549692475,172216.0
62877.24065885659,172206.0
62877.25076802069,172245.0
62877.260877184795,172241.0
62877.27098634891,172230.0
62877.28109551301,172209.0
62877.291204677116,172244.0
62877.30131384123,172210.0
62877.31142300533,172238.0
62877.32153216944,172219.0
62877.33164133355,172259.0
62877.34175049765,172244.0
62877.35185966176,172241.0
62877.36196882587,172243.0
62877.372077989974,172244.0
62877.38218715408,172264.0
62877.39229631819,172244.0
62877.402405482295,172226.0
62877.4125146464,172258.0
62877.42262381051,172226.0
62877.432732974616,172208.0
62877.44284213872,172230.0
62877.452951302825,172226.0
62877.46306046694,172274.0
62877.47316963104,172213.0
62877.483278795145,172253.0
62877.49338795926,172193.0
62877.50349712336,172234.0
62877.513606287466,172251.0
62877.52371545158,172245.0
62877.53382461568,172257.0
62877.54393377979,172222.0
62877.5540429439,172260.0
62877.564152108,172260.0
62877.57426127211,172255.0
62877.58437043622,172279.0
62877.594479600324,172255.0
62877.60458876443,172256.0
62877.61469792854,172232.0
62877.624807092645,172225.0
62877.63491625675,172251.0
62877.64502542086,172255.0
62877.655134584966,172265.0
62877.66524374907,172288.0
62877.67535291318,172226.0
62877.68546207729,172254.0
62877.69557124139,172247.0
62877.7056804055,172241.0
62877.71578956961,172280.0
62877.72589873371,172266.0
62877.73600789782,172275.0
62877.74611706193,172247.0
62877.75622622603,172291.0
62877.76633539014,172264.0
62877.77644455425,172255.0
62877.78655371835,172238.0
62877.79666288246,172279.0
62877.80677204657,172223.0
62877.816881210674,172247.0
62877.82699037478,172250.0
62877.83709953889,172241.0
62877.847208702995,172270.0
62877.8573178671,172259.0
62877.86742703121,172257.0
62877.877536195316,172270.0
62877.88764535942,172287.0
62877.89775452353,172288.0
62877.90786368764,172280.0
62877.91797285174,172276.0
62877.92808201585,172275.0
62877.93819117996,172255.0
62877.94830034406,172250.0
62877.958409508174,172238.0
62877.96851867228,172291.0
62877.97862783638,172276.0
62877.988737000494,172238.0
62877.9988461646,172237.0
62878.0089553287,172291.0
62878.019064492815,172282.0
62878.02917365692,172268.0
62878.039282821024,172276.0
62878.049391985136,172228.0
62878.05950114924,172252.0
62878.069610313345,172225.0
62878.07971947745,172236.0
62878.08982864156,172245.0
62878.099937805666,172245.0
62878.11004696977,172253.0
62878.12015613388,172267.0
62878.13026529799,172289.0
62878.14037446209,172250.0
62878.1504836262,172262.0
62878.16059279031,172228.0
62878.17070195441,172279.0
62878.180811118524,172254.0
62878.19092028263,172269.0
62878.20102944673,172243.0
62878.211138610845,172265.0
62878.22124777495,172253.0
62878.23135693905,172252.0
62878.241466103165,172300.0
62878.25157526727,172232.0
62878.261684431374,172259.0
62878.271793595486,172254.0
62878.28190275959,172233.0
62878.292011923695,172263.0
62878.30212108781,172232.0
62878.31223025191,172275.0
62878.322339416016,172253.0
62878.33244858013,172266.0
62878.34255774423,172261.0
62878.35266690834,172245.0
62878.36277607245,172262.0
62878.37288523655,172266.0
62878.38299440066,172272.0
62878.39310356476,172265.0
62878.403212728874,172244.0
62878.41332189298,172281.0
62878.42343105708,172292.0
62878.433540221195,172271.0
62878.4436493853,172270.0
62878.4537585494,172265.0
62878.463867713515,172286.0
62878.47397687762,172271.0
62878.484086041724,172256.0
62878.494195205836,172260.0
62878.50430436994,172254.0
62878.514413534045,172277.0
62878.52452269816,172272.0
62878.53463186226,172257.0
62878.544741026366,172302.0
62878.55485019048,172294.0
62878.56495935458,172270.0
62878.57506851869,172270.0
62878.5851776828,172287.0
62878.5952868469,172278.0
62878.60539601101,172262.0
62878.61550517512,172255.0
62878.625614339224,172275.0
62878.63572350333,172287.0
62878.64583266744,172273.0
62878.655941831545,172255.0
62878.66605099565,172252.0
62878.67616015976,172276.0
62878.686269323865,172274.0
62878.69637848797,172252.0
62878.706487652074,172287.0
62878.716596816186,172302.0
62878.72670598029,172282.0
62878.736815144395,172291.0
62878.74692430851,172272.0
62878.75703347261,172295.0
62878.767142636716,172278.0
62878.77725180083,172297.0
62878.78736096493,172285.0
62878.79747012904,172296.0
62878.80757929315,172290.0
62878.81768845725,172244.0
62878.82779762136,172267.0
62878.83790678547,172303.0
62878.848015949574,172295.0
62878.85812511368,172290.0
62878.86823427779,172278.0
62878.878343441895,172315.0
62878.888452606,172288.0
62878.89856177011,172269.0
62878.908670934215,172256.0
62878.91878009832,172259.0
62878.92888926243,172258.0
62878.938998426536,172274.0
62878.94910759064,172233.0
62878.95921675475,172277.0
62878.96932591886,172273.0
62878.97943508296,172233.0
62878.98954424707,172225.0
62878.99965341118,172262.0
62879.00976257528,172281.0
62879.01987173939,172274.0
62879.0299809035,172248.0
62879.0400900676,172262.0
62879.05019923171,172252.0
62879.06030839582,172257.0
62879.070417559924,172229.0
62879.08052672403,172231.0
62879.09063588814,172284.0
62879.100745052245,172259.0
62879.11085421635,172261.0
62879.12096338046,172258.0
62879.131072544566,172293.0
62879.14118170867,172279.0
62879.15129087278,172250.0
62879.161400036886,172264.0
62879.17150920099,172255.0
62879.1816183651,172269.0
62879.19172752921,172252.0
62879.20183669331,172243.0
62879.21194585742,172282.0
62879.22205502153,172271.0
62879.23216418563,172258.0
62879.242273349744,172305.0
62879.25238251385,172246.0
62879.26249167795,172266.0
62879.272600842065,172270.0
62879.28271000617,172268.0
62879.292819170274,172237.0
62879.302928334386,172265.0
62879.31303749849,172274.0
62879.323146662595,172270.0
62879.3332558267,172234.0
62879.34336499081,172266.0
62879.353474154916,172320.0
62879.36358331902,172255.0
62879.37369248313,172256.0
62879.38380164724,172277.0
62879.39391081134,172287.0
62879.40401997545,172257.0
62879.41412913956,172245.0
62879.42423830366,172272.0
62879.43434746777,172265.0
62879.44445663188,172310.0
62879.45456579598,172262.0
62879.464674960094,172286.0
62879.4747841242,172281.0
62879.4848932883,172266.0
62879.495002452415,172273.0
62879.50511161652,172265.0
62879.515220780624,172279.0
62879.525329944736,172311.0
62879.53543910884,172311.0
62879.545548272945,172266.0
62879.55565743706,172279.0
62879.56576660116,172269.0
62879.575875765266,172280.0
62879.58598492938,172259.0
62879.59609409348,172278.0
62879.60620325759,172276.0
62879.6163124217,172248.0
62879.6264215858,172304.0
62879.63653074991,172297.0
62879.64663991401,172305.0
62879.65674907812,172268.0
62879.66685824223,172264.0
62879.67696740633,172286.0
62879.687076570444,172283.0
62879.69718573455,172293.0
62879.70729489865,172293.0
62879.717404062765,172292.0
62879.72751322687,172298.0
62879.737622390974,172297.0
62879.747731555086,172257.0
62879.75784071919,172278.0
62879.767949883295,172287.0
62879.77805904741,172262.0
62879.78816821151,172245.0
62879.798277375616,172259.0
62879.80838653973,172305.0
62879.81849570383,172252.0
62879.82860486794,172240.0
62879.83871403205,172249.0
62879.84882319615,172230.0
62879.85893236026,172274.0
62879.86904152437,172253.0
62879.87915068847,172240.0
62879.88925985258,172243.0
62879.89936901669,172287.0
62879.909478180794,172232.0
62879.9195873449,172260.0
62879.92969650901,172258.0
62879.939805673115,172235.0
62879.94991483722,172223.0
62879.960024001324,172249.0
62879.970133165436,172247.0
62879.98024232954,172264.0
62879.990351493645,172270.0
62880.00046065776,172249.0
62880.01056982186,172264.0
62880.020678985966,172293.0
62880.03078815008,172237.0
62880.04089731418,172242.0
62880.05100647829,172257.0
62880.0611156424,172261.0
62880.0712248065,172293.0
62880.08133397061,172201.0
62880.09144313472,172260.0
62880.101552298824,172231.0
62880.11166146293,172241.0
62880.12177062704,172217.0
62880.131879791144,172254.0
62880.14198895525,172251.0
62880.15209811936,172278.0
62880.162207283465,172234.0
62880.17231644757,172265.0
62880.18242561168,172254.0
62880.192534775786,172278.0
62880.20264393989,172248.0
62880.212753104,172269.0
62880.22286226811,172265.0
62880.23297143221,172241.0
62880.24308059632,172254.0
62880.25318976043,172259.0
62880.26329892453,172244.0
62880.27340808864,172252.0
62880.28351725275,172256.0
62880.29362641685,172242.0
62880.30373558096,172270.0
62880.31384474507,172284.0
62880.323953909174,172270.0
62880.33406307328,172257.0
62880.34417223739,172280.0
62880.354281401495,172240.0
62880.3643905656,172285.0
62880.37449972971,172249.0
62880.384608893815,172269.0
62880.39471805792,172253.0
62880.40482722203,172241.0
62880.414936386136,172224.0
62880.42504555024,172274.0
62880.43515471435,172295.0
62880.44526387846,172295.0
62880.45537304256,172274.0
62880.46548220667,172269.0
62880.47559137078,172304.0
62880.48570053488,172293.0
62880.495809698994,172244.0
62880.5059188631,172274.0
62880.5160280272,172263.0
62880.526137191315,172293.0
62880.53624635542,172259.0
62880.546355519524,172266.0
62880.556464683636,172239.0
62880.56657384774,172267.0
62880.576683011845,172270.0
62880.58679217595,172256.0
62880.59690134006,172205.0
62880.607010504165,172277.0
62880.61711966827,172190.0
62880.62722883238,172229.0
62880.637337996486,172244.0
62880.64744716059,172249.0
62880.6575563247,172219.0
62880.66766548881,172241.0
62880.67777465291,172255.0
62880.68788381702,172240.0
62880.69799298113,172214.0
62880.70810214523,172262.0
62880.718211309344,172238.0
62880.72832047345,172257.0
62880.73842963755,172233.0
62880.748538801665,172178.0
62880.75864796577,172232.0
62880.768757129874,172230.0
62880.778866293986,172252.0
62880.78897545809,172259.0
62880.799084622195,172235.0
62880.80919378631,172232.0
62880.81930295041,172252.0
62880.829412114515,172218.0
62880.83952127863,172244.0
62880.84963044273,172251.0
62880.859739606836,172221.0
62880.86984877095,172262.0
62880.87995793505,172213.0
62880.89006709916,172198.0
62880.90017626326,172257.0
62880.91028542737,172266.0
62880.92039459148,172232.0
62880.93050375558,172213.0
62880.940612919694,172243.0
62880.9507220838,172261.0
62880.9608312479,172231.0
62880.970940412015,172269.0
62880.98104957612,172257.0
62880.991158740224,172261.0
62881.001267904336,172234.0
62881.01137706844,172237.0
62881.021486232545,172233.0
62881.03159539666,172257.0
62881.04170456076,172239.0
62881.051813724865,172258.0
62881.06192288898,172224.0
62881.07203205308,172238.0
62881.082141217186,172239.0
62881.0922503813,172248.0
62881.1023595454,172242.0
62881.11246870951,172214.0
62881.12257787362,172213.0
62881.13268703772,172239.0
62881.14279620183,172253.0
62881.15290536594,172269.0
62881.163014530044,172269.0
62881.17312369415,172237.0
62881.18323285826,172247.0
62881.193342022365,172267.0
62881.20345118647,172246.0
62881.213560350574,172252.0
62881.223669514686,172281.0
62881.23377867879,172277.0
62881.243887842895,172239.0
62881.25399700701,172249.0
62881.26410617111,172278.0
62881.274215335216,172266.0
62881.28432449933,172258.0
62881.29443366343,172248.0
62881.304542827536,172227.0
62881.31465199165,172217.0
62881.32476115575,172233.0
62881.33487031986,172249.0
62881.34497948397,172243.0
62881.35508864807,172269.0
62881.36519781218,172217.0
62881.37530697629,172248.0
62881.385416140394,172244.0
62881.3955253045,172210.0
62881.40563446861,172201.0
62881.415743632715,172210.0
62881.42585279682,172211.0
62881.43596196093,172184.0
62881.446071125036,172207.0
62881.45618028914,172204.0
62881.46628945325,172205.0
62881.47639861736,172182.0
62881.48650778146,172190.0
62881.49661694557,172212.0
62881.50672610968,172204.0
62881.51683527378,172229.0
62881.52694443789,172189.0
62881.537053602,172220.0
62881.5471627661,172200.0
62881.55727193021,172198.0
62881.56738109432,172181.0
62881.57749025842,172215.0
62881.58759942253,172214.0
62881.59770858664,172203.0
62881.607817750744,172232.0
62881.61792691485,172184.0
62881.62803607896,172207.0
62881.638145243065,172174.0
62881.64825440717,172185.0
62881.65836357128,172210.0
62881.668472735386,172207.0
62881.67858189949,172207.0
62881.6886910636,172193.0
62881.69880022771,172191.0
62881.70890939181,172197.0
62881.71901855592,172209.0
62881.72912772003,172169.0
62881.73923688413,172188.0
62881.749346048244,172200.0
62881.75945521235,172198.0
62881.76956437645,172179.0
62881.779673540565,172176.0
62881.78978270467,172211.0
62881.79989186877,172236.0
62881.810001032885,172222.0
62881.82011019699,172213.0
62881.830219361094,172206.0
62881.8403285252,172236.0
62881.85043768931,172215.0
62881.860546853415,172258.0
62881.87065601752,172217.0
62881.88076518163,172231.0
62881.890874345736,172199.0
62881.90098350984,172194.0
62881.91109267395,172215.0
62881.92120183806,172203.0
62881.93131100216,172196.0
62881.94142016627,172202.0
62881.95152933038,172235.0
62881.96163849448,172206.0
62881.971747658594,172206.0
62881.9818568227,172188.0
62881.9919659868,172215.0
62882.002075150915,172229.0
62882.01218431502,172223.0
62882.02229347912,172200.0
62882.032402643235,172182.0
62882.04251180734,172225.0
62882.052620971444,172263.0
62882.062730135556,172253.0
62882.07283929966,172213.0
62882.082948463765,172229.0
62882.09305762788,172237.0
62882.10316679198,172201.0
62882.113275956086,172228.0
62882.1233851202,172232.0
62882.1334942843,172236.0
62882.14360344841,172198.0
62882.15371261251,172203.0
62882.16382177662,172227.0
62882.17393094073,172235.0
62882.18404010483,172204.0
62882.194149268944,172212.0
62882.20425843305,172230.0
62882.21436759715,172262.0
62882.224476761265,172196.0
62882.23458592537,172203.0
62882.244695089474,172214.0
62882.254804253585,172210.0
62882.26491341769,172171.0
62882.275022581794,172164.0
62882.285131745906,172184.0
62882.29524091001,172194.0
62882.305350074115,172212.0
62882.31545923823,172162.0
62882.32556840233,172180.0
62882.335677566436,172169.0
62882.34578673055,172164.0
62882.35589589465,172142.0
62882.36600505876,172152.0
62882.37611422287,172165.0
62882.38622338697,172201.0
62882.39633255108,172160.0
62882.40644171519,172178.0
62882.416550879294,172187.0
62882.4266600434,172169.0
62882.43676920751,172158.0
62882.446878371615,172135.0
62882.45698753572,172186.0
62882.467096699824,172190.0
62882.477205863936,172163.0
62882.48731502804,172140.0
62882.497424192145,172174.0
62882.507533356256,172196.0
62882.51764252036,172169.0
62882.527751684465,172200.0
62882.53786084858,172187.0
62882.54797001268,172181.0
62882.558079176786,172146.0
62882.5681883409,172196.0
62882.578297505,172187.0
62882.58840666911,172184.0
62882.59851583322,172169.0
62882.60862499732,172154.0
62882.61873416143,172168.0
62882.62884332554,172201.0
62882.638952489644,172196.0
62882.64906165375,172161.0
62882.65917081786,172177.0
62882.669279981965,172192.0
62882.67938914607,172191.0
62882.68949831018,172161.0
62882.699607474286,172186.0
62882.70971663839,172161.0
62882.7198258025,172210.0
62882.72993496661,172156.0
62882.74004413071,172169.0
62882.75015329482,172192.0
62882.76026245893,172190.0
62882.77037162303,172169.0
62882.780480787136,172190.0
62882.79058995125,172189.0
62882.80069911535,172196.0
62882.81080827946,172184.0
62882.82091744357,172219.0
62882.83102660767,172191.0
62882.84113577178,172178.0
62882.85124493589,172171.0
62882.861354099994,172164.0
62882.8714632641,172193.0
62882.88157242821,172167.0
62882.891681592315,172173.0
62882.90179075642,172163.0
62882.91189992053,172181.0
62882.922009084636,172192.0
62882.93211824874,172193.0
62882.94222741285,172173.0
62882.95233657696,172197.0
62882.96244574106,172198.0
62882.97255490517,172218.0
62882.98266406928,172180.0
62882.99277323338,172202.0
62883.00288239749,172173.0
62883.0129915616,172245.0
62883.0231007257,172178.0
62883.033209889814,172182.0
62883.04331905392,172184.0
62883.05342821802,172208.0
62883.063537382135,172173.0
62883.07364654624,172206.0
62883.083755710344,172232.0
62883.09386487445,172215.0
62883.10397403856,172188.0
62883.114083202665,172199.0
62883.12419236677,172188.0
62883.13430153088,172195.0
62883.144410694986,172198.0
62883.15451985909,172144.0
62883.1646290232,172161.0
62883.17473818731,172199.0
62883.18484735141,172150.0
62883.19495651552,172145.0
62883.20506567963,172176.0
62883.21517484373,172109.0
62883.22528400784,172150.0
62883.23539317195,172144.0
62883.24550233605,172158.0
62883.255611500164,172152.0
62883.26572066427,172135.0
62883.27582982837,172129.0
62883.285938992485,172173.0
62883.29604815659,172161.0
62883.306157320694,172175.0
62883.316266484806,172141.0
62883.32637564891,172165.0
62883.336484813015,172154.0
62883.34659397713,172133.0
62883.35670314123,172135.0
62883.366812305336,172151.0
62883.37692146945,172184.0
62883.38703063355,172145.0
62883.39713979766,172134.0
62883.40724896176,172157.0
62883.41735812587,172171.0
62883.42746728998,172178.0
62883.43757645408,172146.0
62883.447685618194,172173.0
62883.4577947823,172161.0
62883.4679039464,172171.0
62883.478013110514,172171.0
62883.48812227462,172165.0
62883.49823143872,172180.0
62883.508340602835,172189.0
62883.51844976694,172183.0
62883.528558931044,172153.0
62883.538668095156,172144.0
62883.54877725926,172176.0
62883.558886423365,172159.0
62883.56899558748,172148.0
62883.57910475158,172143.0
62883.589213915686,172133.0
62883.5993230798,172177.0
62883.6094322439,172152.0
62883.61954140801,172169.0
62883.62965057212,172149.0
62883.63975973622,172197.0
62883.64986890033,172164.0
62883.65997806444,172176.0
62883.670087228544,172172.0
62883.68019639265,172192.0
62883.69030555676,172139.0
62883.700414720865,172160.0
62883.71052388497,172166.0
62883.72063304907,172183.0
62883.730742213185,172148.0
62883.74085137729,172160.0
62883.750960541394,172171.0
62883.761069705506,172185.0
62883.77117886961,172174.0
62883.781288033715,172185.0
62883.79139719783,172189.0
62883.80150636193,172207.0
62883.811615526036,172164.0
62883.82172469015,172159.0
62883.83183385425,172149.0
62883.84194301836,172195.0
62883.85205218247,172148.0
62883.86216134657,172185.0
62883.87227051068,172186.0
62883.88237967479,172165.0
62883.892488838894,172155.0
62883.902598003,172177.0
62883.91270716711,172164.0
62883.922816331215,172159.0
62883.93292549532,172205.0
62883.94303465943,172183.0
62883.953143823535,172172.0
62883.96325298764,172183.0
62883.97336215175,172155.0
62883.983471315856,172154.0
62883.99358047996,172187.0
62884.00368964407,172221.0
62884.01379880818,172195.0
62884.02390797228,172162.0
62884.034017136386,172183.0
62884.0441263005,172159.0
62884.0542354646,172207.0
62884.06434462871,172182.0
62884.07445379282,172165.0
62884.08456295692,172153.0
62884.09467212103,172109.0
62884.10478128514,172120.0
62884.114890449244,172149.0
62884.12499961335,172124.0
62884.13510877746,172123.0
62884.145217941565,172112.0
62884.15532710567,172139.0
62884.16543626978,172155.0
62884.175545433885,172108.0
62884.18565459799,172178.0
62884.1957637621,172140.0
62884.205872926206,172149.0
62884.21598209031,172143.0
62884.22609125442,172133.0
62884.23620041853,172144.0
62884.24630958263,172141.0
62884.25641874674,172130.0
62884.26652791085,172156.0
62884.27663707495,172138.0
62884.286746239064,172144.0
62884.29685540317,172128.0
62884.30696456727,172173.0
62884.317073731385,172151.0
62884.32718289549,172135.0
62884.337292059594,172108.0
62884.3474012237,172160.0
62884.35751038781,172171.0
62884.367619551915,172129.0
62884.37772871602,172101.0
62884.38783788013,172139.0
62884.397947044235,172135.0
62884.40805620834,172135.0
62884.41816537245,172131.0
62884.428274536556,172123.0
62884.43838370066,172161.0
62884.44849286477,172152.0
62884.45860202888,172130.0
62884.46871119298,172155.0
62884.47882035709,172166.0
62884.4889295212,172150.0
62884.4990386853,172141.0
62884.509147849414,172134.0
62884.51925701352,172156.0
62884.52936617762,172162.0
62884.539475341735,172164.0
62884.54958450584,172141.0
62884.559693669944,172170.0
62884.569802834056,172166.0
62884.57991199816,172159.0
62884.590021162265,172167.0
62884.60013032638,172146.0
62884.61023949048,172170.0
62884.620348654586,172119.0
62884.6304578187,172154.0
62884.6405669828,172136.0
62884.650676146906,172161.0
62884.66078531101,172205.0
62884.67089447512,172145.0
62884.68100363923,172169.0
62884.69111280333,172175.0
62884.70122196744,172198.0
62884.71133113155,172149.0
62884.72144029565,172159.0
62884.731549459764,172178.0
62884.74165862387,172179.0
62884.75176778797,172154.0
62884.761876952085,172177.0
62884.77198611619,172183.0
62884.782095280294,172166.0
62884.792204444406,172166.0
62884.80231360851,172158.0
62884.812422772615,172172.0
62884.82253193673,172180.0
62884.83264110083,172198.0
62884.842750264936,172170.0
62884.85285942905,172177.0
62884.86296859315,172185.0
62884.87307775726,172158.0
62884.88318692137,172186.0
62884.89329608547,172181.0
62884.90340524958,172170.0
62884.91351441369,172176.0
62884.92362357779,172177.0
62884.9337327419,172210.0
62884.94384190601,172196.0
62884.953951070114,172197.0
62884.96406023422,172163.0
62884.97416939832,172198.0
62884.984278562435,172185.0
62884.99438772654,172173.0
62885.004496890644,172155.0
62885.014606054756,172175.0
62885.02471521886,172125.0
62885.034824382965,172130.0
62885.04493354708,172162.0
62885.05504271118,172139.0
62885.065151875286,172139.0
62885.0752610394,172136.0
62885.0853702035,172118.0
62885.09547936761,172158.0
62885.10558853172,172143.0
62885.11569769582,172122.0
62885.12580685993,172119.0
62885.13591602404,172168.0
62885.14602518814,172138.0
62885.15613435225,172099.0
62885.16624351636,172143.0
62885.176352680464,172168.0
62885.18646184457,172143.0
62885.19657100868,172138.0
62885.206680172785,172132.0
62885.21678933689,172115.0
62885.226898501,172151.0
62885.237007665106,172148.0
62885.24711682921,172132.0
62885.25722599332,172155.0
62885.26733515743,172131.0
62885.27744432153,172161.0
62885.287553485636,172142.0
62885.29766264975,172148.0
62885.30777181385,172159.0
62885.31788097796,172149.0
62885.32799014207,172135.0
62885.33809930617,172151.0
62885.34820847028,172133.0
62885.35831763439,172153.0
62885.36842679849,172137.0
62885.3785359626,172121.0
62885.38864512671,172174.0
62885.398754290814,172159.0
62885.40886345492,172155.0
62885.41897261903,172138.0
62885.429081783135,172155.0
62885.43919094724,172138.0
62885.44930011135,172156.0
62885.459409275456,172166.0
62885.46951843956,172174.0
62885.47962760367,172150.0
62885.48973676778,172157.0
62885.49984593188,172154.0
62885.50995509599,172184.0
62885.5200642601,172145.0
62885.5301734242,172126.0
62885.540282588314,172169.0
62885.55039175242,172162.0
62885.56050091652,172130.0
62885.570610080635,172163.0
62885.58071924474,172127.0
62885.590828408844,172176.0
62885.60093757295,172166.0
62885.61104673706,172182.0
62885.621155901164,172150.0
62885.63126506527,172158.0
62885.64137422938,172136.0
62885.651483393485,172149.0
62885.66159255759,172162.0
62885.6717017217,172178.0
62885.681810885806,172181.0
62885.69192004991,172147.0
62885.70202921402,172140.0
62885.71213837813,172178.0
62885.72224754223,172200.0
62885.73235670634,172186.0
62885.74246587045,172199.0
62885.75257503455,172185.0
62885.762684198664,172171.0
62885.77279336277,172190.0
62885.78290252687,172144.0
62885.793011690985,172148.0
62885.80312085509,172197.0
62885.813230019194,172176.0
62885.823339183306,172146.0
62885.83344834741,172178.0
62885.843557511515,172193.0
62885.853666675626,172176.0
62885.86377583973,172145.0
62885.873885003835,172204.0
62885.88399416795,172184.0
62885.89410333205,172179.0
62885.904212496156,172178.0
62885.91432166026,172163.0
62885.92443082437,172176.0
62885.93453998848,172161.0
62885.94464915258,172125.0
62885.95475831669,172138.0
62885.9648674808,172137.0
62885.9749766449,172137.0
62885.985085809014,172113.0
62885.99519497312,172114.0
62886.00530413722,172155.0
62886.015413301335,172137.0
62886.02552246544,172118.0
62886.035631629544,172132.0
62886.045740793656,172131.0
62886.05584995776,172124.0
62886.065959121865,172154.0
62886.076068285976,172153.0
62886.08617745008,172159.0
62886.096286614185,172185.0
62886.1063957783,172142.0
62886.1165049424,172107.0
62886.126614106506,172166.0
62886.13672327062,172165.0
62886.14683243472,172153.0
62886.15694159883,172126.0
62886.16705076294,172174.0
62886.17715992704,172165.0
62886.18726909115,172150.0
62886.19737825526,172122.0
62886.207487419364,172137.0
62886.21759658347,172179.0
62886.22770574757,172123.0
62886.237814911685,172107.0
62886.24792407579,172153.0
62886.258033239894,172168.0
62886.268142404006,172164.0
62886.27825156811,172131.0
62886.288360732215,172147.0
62886.29846989633,172162.0
62886.30857906043,172145.0
62886.318688224535,172171.0
62886.32879738865,172168.0
62886.33890655275,172202.0
62886.349015716856,172163.0
62886.35912488097,172093.0
62886.36923404507,172120.0
62886.37934320918,172163.0
62886.38945237329,172153.0
62886.39956153739,172190.0
62886.4096707015,172143.0
62886.41977986561,172187.0
62886.429889029714,172171.0
62886.43999819382,172157.0
62886.45010735793,172154.0
62886.460216522035,172162.0
62886.47032568614,172135.0
62886.48043485025,172173.0
62886.490544014356,172130.0
62886.50065317846,172176.0
62886.51076234257,172184.0
62886.52087150668,172175.0
62886.53098067078,172157.0
62886.541089834885,172176.0
62886.551198999,172147.0
62886.5613081631,172171.0
62886.571417327206,172161.0
62886.58152649132,172163.0
62886.59163565542,172190.0
62886.60174481953,172175.0
62886.61185398364,172157.0
62886.62196314774,172157.0
62886.63207231185,172202.0
62886.64218147596,172180.0
62886.652290640064,172164.0
62886.66239980417,172197.0
62886.67250896828,172162.0
62886.682618132385,172185.0
62886.69272729649,172167.0
62886.7028364606,172178.0
62886.712945624706,172175.0
62886.72305478881,172186.0
62886.73316395292,172210.0
62886.74327311703,172186.0
62886.75338228113,172193.0
62886.76349144524,172198.0
62886.77360060935,172166.0
62886.78370977345,172181.0
62886.79381893756,172190.0
62886.80392810167,172185.0
62886.81403726577,172196.0
62886.824146429884,172178.0
62886.83425559399,172205.0
62886.84436475809,172172.0
62886.8544739222,172173.0
62886.86458308631,172165.0
62886.874692250414,172170.0
62886.88480141452,172135.0
62886.89491057863,172130.0
62886.905019742735,172131.0
62886.91512890684,172143.0
62886.92523807095,172166.0
62886.935347235056,172157.0
62886.94545639916,172152.0
62886.95556556327,172139.0
62886.96567472738,172173.0
62886.97578389148,172164.0
62886.98589305559,172147.0
62886.9960022197,172134.0
62887.0061113838,172183.0
62887.016220547914,172174.0
62887.02632971202,172143.0
62887.03643887612,172153.0
62887.046548040234,172158.0
62887.05665720434,172169.0
62887.06676636844,172150.0
62887.076875532555,172132.0
62887.08698469666,172171.0
62887.097093860764,172174.0
62887.107203024876,172161.0
62887.11731218898,172164.0
62887.127421353085,172143.0
62887.1375305172,172179.0
62887.1476396813,172190.0
62887.157748845406,172186.0
62887.16785800951,172175.0
62887.17796717362,172156.0
62887.18807633773,172141.0
62887.19818550183,172174.0
62887.20829466594,172197.0
62887.21840383005,172180.0
62887.22851299415,172192.0
62887.238622158264,172180.0
62887.24873132237,172180.0
62887.25884048647,172173.0
62887.268949650585,172188.0
62887.27905881469,172156.0
62887.28916797879,172192.0
62887.299277142905,172224.0
62887.30938630701,172174.0
62887.319495471114,172161.0
62887.329604635226,172159.0
62887.33971379933,172203.0
62887.349822963435,172194.0
62887.35993212755,172178.0
62887.37004129165,172202.0
62887.380150455756,172199.0
62887.39025961987,172193.0
62887.40036878397,172187.0
62887.41047794808,172209.0
62887.42058711219,172152.0
62887.43069627629,172205.0
62887.4408054404,172217.0
62887.4509146045,172223.0
62887.461023768614,172180.0
62887.47113293272,172203.0
62887.48124209682,172210.0
62887.491351260935,172220.0
62887.50146042504,172184.0
62887.51156958914,172206.0
62887.521678753255,172174.0
62887.53178791736,172226.0
62887.541897081464,172207.0
62887.552006245576,172203.0
62887.56211540968,172196.0
62887.572224573785,172193.0
62887.5823337379,172181.0
62887.592442902,172190.0
62887.602552066106,172213.0
62887.61266123022,172234.0
62887.62277039432,172183.0
62887.63287955843,172211.0
62887.64298872254,172213.0
62887.65309788664,172196.0
62887.66320705075,172240.0
62887.67331621486,172219.0
62887.683425378964,172230.0
62887.69353454307,172173.0
62887.70364370718,172208.0
62887.713752871285,172221.0
62887.72386203539,172224.0
62887.7339711995,172194.0
62887.744080363605,172193.0
62887.75418952771,172187.0
62887.764298691814,172198.0
62887.774407855926,172172.0
62887.78451702003,172214.0
62887.794626184135,172173.0
62887.80473534825,172190.0
62887.81484451235,172183.0
62887.824953676456,172190.0
62887.83506284057,172118.0
62887.84517200467,172179.0
62887.85528116878,172191.0
62887.86539033289,172210.0
62887.87549949699,172201.0
62887.8856086611,172189.0
62887.89571782521,172172.0
62887.905826989314,172199.0
62887.91593615342,172213.0
62887.92604531753,172199.0
62887.936154481635,172163.0
62887.94626364574,172231.0
62887.95637280985,172198.0
62887.966481973956,172189.0
62887.97659113806,172179.0
62887.98670030217,172169.0
62887.996809466276,172204.0
62888.00691863038,172204.0
62888.01702779449,172190.0
62888.0271369586,172213.0
62888.0372461227,172210.0
62888.04735528681,172202.0
62888.05746445092,172170.0
62888.06757361502,172193.0
62888.07768277913,172196.0
62888.08779194324,172156.0
62888.09790110734,172176.0
62888.10801027145,172218.0
62888.11811943556,172219.0
62888.128228599664,172167.0
62888.13833776377,172207.0
62888.14844692788,172178.0
62888.158556091985,172222.0
62888.16866525609,172176.0
62888.1787744202,172198.0
62888.188883584306,172202.0
62888.19899274841,172203.0
62888.20910191252,172182.0
62888.21921107663,172217.0
62888.22932024073,172220.0
62888.23942940484,172208.0
62888.24953856895,172209.0
62888.25964773305,172205.0
62888.26975689716,172195.0
62888.27986606127,172241.0
62888.28997522537,172217.0
62888.300084389484,172216.0
62888.31019355359,172232.0
62888.32030271769,172256.0
62888.330411881805,172215.0
62888.34052104591,172230.0
62888.350630210014,172233.0
62888.360739374126,172241.0
62888.37084853823,172224.0
62888.380957702335,172221.0
62888.39106686644,172247.0
62888.40117603055,172193.0
62888.411285194656,172250.0
62888.42139435876,172236.0
62888.43150352287,172210.0
62888.44161268698,172237.0
62888.45172185108,172230.0
62888.46183101519,172220.0
62888.4719401793,172205.0
62888.4820493434,172225.0
62888.49215850751,172241.0
62888.50226767162,172210.0
62888.51237683572,172218.0
62888.522485999834,172218.0
62888.53259516394,172238.0
62888.54270432804,172263.0
62888.552813492155,172239.0
62888.56292265626,172201.0
62888.573031820364,172260.0
62888.583140984476,172223.0
62888.59325014858,172231.0
62888.603359312685,172217.0
62888.6134684768,172247.0
62888.6235776409,172211.0
62888.633686805006,172193.0
62888.64379596912,172171.0
62888.65390513322,172217.0
62888.66401429733,172229.0
62888.67412346144,172212.0
62888.68423262554,172194.0
62888.69434178965,172223.0
62888.70445095375,172177.0
62888.71456011786,172215.0
62888.72466928197,172189.0
62888.73477844607,172200.0
62888.744887610184,172219.0
62888.75499677429,172207.0
62888.76510593839,172212.0
62888.775215102505,172221.0
62888.78532426661,172232.0
62888.795433430714,172207.0
62888.805542594826,172191.0
62888.81565175893,172211.0
62888.825760923035,172235.0
62888.83587008715,172226.0
62888.84597925125,172201.0
62888.856088415356,172229.0
62888.86619757947,172232.0
62888.87630674357,172227.0
62888.88641590768,172188.0
62888.89652507179,172228.0
62888.90663423589,172221.0
62888.9167434,172206.0
62888.92685256411,172217.0
62888.936961728214,172206.0
62888.94707089232,172243.0
62888.95718005643,172208.0
62888.967289220534,172219.0
62888.97739838464,172200.0
62888.98750754875,172232.0
62888.997616712855,172247.0
62889.00772587696,172228.0
62889.017835041064,172216.0
62889.027944205176,172242.0
62889.03805336928,172237.0
62889.048162533385,172216.0
62889.0582716975,172195.0
62889.0683808616,172194.0
62889.078490025706,172234.0
62889.08859918982,172227.0
62889.09870835392,172226.0
62889.10881751803,172243.0
62889.11892668214,172227.0
62889.12903584624,172237.0
62889.13914501035,172204.0
62889.14925417446,172224.0
62889.159363338564,172245.0
62889.16947250267,172226.0
62889.17958166678,172198.0
62889.189690830885,172215.0
62889.19979999499,172232.0
62889.2099091591,172228.0
62889.220018323205,172252.0
62889.23012748731,172189.0
62889.24023665142,172250.0
62889.250345815526,172223.0
62889.26045497963,172219.0
62889.27056414374,172210.0
62889.28067330785,172253.0
62889.29078247195,172232.0
62889.30089163606,172180.0
62889.31100080017,172227.0
62889.32110996427,172237.0
62889.33121912838,172223.0
62889.34132829249,172246.0
62889.35143745659,172212.0
62889.3615466207,172258.0
62889.37165578481,172211.0
62889.381764948914,172241.0
62889.39187411302,172207.0
62889.40198327713,172237.0
62889.412092441235,172211.0
62889.42220160534,172239.0
62889.43231076945,172218.0
62889.442419933555,172226.0
62889.45252909766,172225.0
62889.46263826177,172210.0
62889.472747425876,172185.0
62889.48285658998,172159.0
62889.49296575409,172221.0
62889.5030749182,172206.0
62889.5131840823,172178.0
62889.52329324641,172203.0
62889.53340241052,172233.0
62889.54351157462,172204.0
62889.553620738734,172191.0
62889.56372990284,172181.0
62889.57383906694,172242.0
62889.583948231055,172182.0
62889.59405739516,172199.0
62889.604166559264,172207.0
62889.614275723376,172223.0
62889.62438488748,172206.0
62889.634494051585,172184.0
62889.64460321569,172178.0
62889.6547123798,172213.0
62889.664821543905,172204.0
62889.67493070801,172211.0
62889.68503987212,172174.0
62889.695149036226,172216.0
62889.70525820033,172213.0
62889.71536736444,172189.0
62889.72547652855,172192.0
62889.73558569265,172212.0
62889.74569485676,172234.0
62889.75580402087,172198.0
62889.76591318497,172212.0
62889.776022349084,172170.0
62889.78613151319,172229.0
62889.79624067729,172197.0
62889.806349841405,172205.0
62889.81645900551,172181.0
62889.826568169614,172192.0
62889.836677333726,172187.0
62889.84678649783,172198.0
62889.856895661935,172196.0
62889.86700482605,172191.0
62889.87711399015,172208.0
62889.887223154255,172195.0
62889.89733231837,172193.0
62889.90744148247,172241.0
62889.917550646576,172213.0
62889.92765981069,172233.0
62889.93776897479,172188.0
62889.9478781389,172210.0
62889.957987303,172216.0
62889.96809646711,172167.0
62889.97820563122,172203.0
62889.98831479532,172189.0
62889.998423959434,172221.0
62890.00853312354,172253.0
62890.01864228764,172194.0
62890.028751451755,172228.0
62890.03886061586,172230.0
62890.048969779964,172188.0
62890.059078944076,172200.0
62890.06918810818,172246.0
62890.079297272285,172223.0
62890.0894064364,172232.0
62890.0995156005,172193.0
62890.109624764606,172209.0
62890.11973392872,172203.0
62890.12984309282,172211.0
62890.139952256926,172190.0
62890.15006142104,172226.0
62890.16017058514,172226.0
62890.17027974925,172228.0
62890.18038891336,172196.0
62890.19049807746,172217.0
62890.20060724157,172233.0
62890.21071640568,172220.0
62890.220825569784,172194.0
62890.23093473389,172200.0
62890.241043898,172195.0
62890.251153062105,172192.0
62890.26126222621,172177.0
62890.271371390314,172218.0
62890.281480554426,172201.0
62890.29158971853,172167.0
62890.301698882635,172192.0
62890.31180804675,172150.0
62890.32191721085,172183.0
62890.332026374956,172181.0
62890.34213553907,172208.0
62890.35224470317,172163.0
62890.36235386728,172184.0
62890.37246303139,172199.0
62890.38257219549,172161.0
62890.3926813596,172159.0
62890.40279052371,172127.0
62890.41289968781,172187.0
62890.42300885192,172211.0
62890.43311801603,172170.0
62890.443227180134,172194.0
62890.45333634424,172173.0
62890.46344550835,172160.0
62890.473554672455,172155.0
62890.48366383656,172175.0
62890.49377300067,172192.0
62890.503882164776,172183.0
62890.51399132888,172139.0
62890.52410049299,172157.0
62890.5342096571,172180.0
62890.5443188212,172170.0
62890.55442798531,172179.0
62890.56453714942,172147.0
62890.57464631352,172192.0
62890.58475547763,172177.0
62890.59486464174,172183.0
62890.60497380584,172172.0
62890.61508296995,172173.0
62890.62519213406,172186.0
62890.63530129816,172172.0
62890.64541046227,172171.0
62890.65551962638,172192.0
62890.665628790484,172172.0
62890.67573795459,172181.0
62890.6858471187,172200.0
62890.695956282805,172180.0
62890.70606544691,172179.0
62890.71617461102,172200.0
62890.726283775126,172154.0
62890.73639293923,172182.0
62890.74650210334,172186.0
62890.75661126745,172163.0
62890.76672043155,172171.0
62890.77682959566,172199.0
62890.78693875977,172185.0
62890.79704792387,172178.0
62890.807157087984,172209.0
62890.81726625209,172179.0
62890.82737541619,172199.0
62890.837484580305,172213.0
62890.84759374441,172185.0
62890.85770290851,172218.0
62890.867812072625,172192.0
62890.87792123673,172231.0
62890.888030400834,172176.0
62890.89813956494,172169.0
62890.90824872905,172199.0
62890.918357893155,172150.0
62890.92846705726,172195.0
62890.93857622137,172176.0
62890.948685385476,172159.0
62890.95879454958,172185.0
62890.96890371369,172171.0
62890.9790128778,172153.0
62890.9891220419,172167.0
62890.99923120601,172168.0
62891.00934037012,172142.0
62891.01944953422,172189.0
62891.029558698334,172165.0
62891.03966786244,172151.0
62891.04977702654,172130.0
62891.059886190655,172151.0
62891.06999535476,172145.0
62891.080104518864,172151.0
62891.090213682975,172176.0
62891.10032284708,172160.0
62891.110432011184,172156.0
62891.120541175296,172138.0
62891.1306503394,172133.0
62891.140759503505,172160.0
62891.15086866762,172126.0
62891.16097783172,172141.0
62891.171086995826,172128.0
62891.18119615994,172151.0
62891.19130532404,172158.0
62891.20141448815,172140.0
62891.21152365225,172142.0
62891.22163281636,172131.0
62891.23174198047,172145.0
62891.24185114457,172159.0
62891.251960308684,172125.0
62891.26206947279,172127.0
62891.27217863689,172123.0
62891.282287801005,172139.0
62891.29239696511,172118.0
62891.302506129214,172122.0
62891.312615293326,172156.0
62891.32272445743,172135.0
62891.332833621535,172134.0
62891.342942785646,172155.0
62891.35305194975,172160.0
62891.363161113855,172143.0
62891.37327027797,172152.0
62891.38337944207,172115.0
62891.393488606176,172162.0
62891.40359777029,172130.0
62891.41370693439,172147.0
62891.4238160985,172127.0
62891.43392526261,172171.0
62891.44403442671,172176.0
62891.45414359082,172145.0
62891.46425275493,172154.0
62891.474361919034,172141.0
62891.48447108314,172152.0
62891.49458024725,172149.0
62891.504689411355,172129.0
62891.51479857546,172137.0
62891.524907739564,172143.0
62891.535016903676,172164.0
62891.54512606778,172152.0
62891.555235231885,172182.0
62891.565344396,172179.0
62891.5754535601,172120.0
62891.585562724205,172138.0
62891.59567188832,172149.0
62891.60578105242,172170.0
62891.615890216526,172164.0
62891.62599938064,172162.0
62891.63610854474,172158.0
62891.64621770885,172179.0
62891.65632687296,172164.0
62891.66643603706,172134.0
62891.67654520117,172143.0
62891.68665436528,172133.0
62891.696763529384,172173.0
62891.70687269349,172137.0
62891.7169818576,172160.0
62891.727091021705,172174.0
62891.73720018581,172160.0
62891.74730934992,172150.0
62891.757418514026,172168.0
62891.76752767813,172150.0
62891.77763684224,172145.0
62891.78774600635,172179.0
62891.79785517045,172161.0
62891.80796433456,172163.0
62891.81807349867,172153.0
62891.82818266277,172148.0
62891.838291826876,172140.0
62891.84840099099,172150.0
62891.85851015509,172119.0
62891.8686193192,172126.0
62891.87872848331,172127.0
62891.88883764741,172110.0
62891.89894681152,172075.0
62891.90905597563,172121.0
62891.919165139734,172111.0
62891.92927430384,172073.0
62891.93938346795,172129.0
62891.949492632055,172115.0
62891.95960179616,172098.0
62891.96971096027,172120.0
62891.979820124376,172092.0
62891.98992928848,172111.0
62892.00003845259,172081.0
62892.0101476167,172102.0
62892.0202567808,172126.0
62892.03036594491,172112.0
62892.04047510902,172117.0
62892.05058427312,172132.0
62892.06069343723,172145.0
62892.07080260134,172108.0
62892.08091176544,172144.0
62892.091020929554,172079.0
62892.10113009366,172129.0
62892.11123925776,172117.0
62892.121348421875,172090.0
62892.13145758598,172091.0
62892.141566750084,172122.0
62892.15167591419,172118.0
62892.1617850783,172093.0
62892.171894242405,172098.0
62892.18200340651,172116.0
62892.19211257062,172076.0
62892.202221734726,172127.0
62892.21233089883,172091.0
62892.22244006294,172131.0
62892.23254922705,172096.0
62892.24265839115,172090.0
62892.25276755526,172065.0
62892.26287671937,172134.0
62892.27298588347,172131.0
62892.28309504758,172118.0
62892.29320421169,172131.0
62892.30331337579,172097.0
62892.313422539904,172141.0
62892.32353170401,172117.0
62892.33364086811,172097.0
62892.343750032225,172105.0
62892.35385919633,172150.0
62892.363968360434,172122.0
62892.374077524546,172075.0
62892.38418668865,172126.0
62892.394295852755,172107.0
62892.40440501687,172123.0
62892.41451418097,172096.0
62892.424623345076,172131.0
62892.43473250919,172140.0
62892.44484167329,172140.0
62892.4549508374,172148.0
62892.4650600015,172149.0
62892.47516916561,172158.0
62892.48527832972,172134.0
62892.49538749382,172115.0
62892.505496657934,172098.0
62892.51560582204,172144.0
62892.52571498614,172128.0
62892.535824150254,172142.0
62892.54593331436,172111.0
62892.55604247846,172145.0
62892.566151642575,172134.0
62892.57626080668,172125.0
62892.586369970784,172162.0
62892.596479134896,172130.0
62892.606588299,172128.0
62892.616697463105,172132.0
62892.62680662722,172129.0
62892.63691579132,172127.0
62892.647024955426,172182.0
62892.65713411954,172126.0
62892.66724328364,172101.0
62892.67735244775,172130.0
62892.68746161186,172141.0
62892.69757077596,172138.0
62892.70767994007,172141.0
62892.71778910418,172146.0
62892.727898268284,172155.0
62892.73800743239,172130.0
62892.7481165965,172094.0
62892.758225760605,172070.0
62892.76833492471,172109.0
62892.77844408881,172088.0
62892.788553252925,172066.0
62892.79866241703,172099.0
62892.808771581134,172100.0
62892.818880745246,172091.0
62892.82898990935,172088.0
62892.839099073455,172076.0
62892.84920823757,172084.0
62892.85931740167,172098.0
62892.869426565776,172109.0
62892.87953572989,172079.0
62892.88964489399,172116.0
62892.8997540581,172091.0
62892.90986322221,172080.0
62892.91997238631,172057.0
62892.93008155042,172073.0
62892.94019071453,172091.0
62892.950299878634,172107.0
62892.96040904274,172087.0
62892.97051820685,172114.0
62892.980627370955,172085.0
62892.99073653506,172084.0
62893.00084569917,172084.0
62893.010954863275,172096.0
62893.02106402738,172106.0
62893.03117319149,172082.0
62893.041282355596,172046.0
62893.0513915197,172074.0
62893.06150068381,172100.0
62893.07160984792,172086.0
62893.08171901202,172067.0
62893.091828176126,172116.0
62893.10193734024,172100.0
62893.11204650434,172083.0
62893.12215566845,172064.0
62893.13226483256,172087.0
62893.14237399666,172121.0
62893.15248316077,172102.0
62893.16259232488,172077.0
62893.172701488984,172058.0
62893.18281065309,172097.0
62893.1929198172,172093.0
62893.203028981305,172073.0
62893.21313814541,172130.0
62893.22324730952,172105.0
62893.233356473625,172095.0
62893.24346563773,172106.0
62893.25357480184,172077.0
62893.263683965946,172107.0
62893.27379313005,172102.0
62893.28390229416,172133.0
62893.29401145827,172087.0
62893.30412062237,172110.0
62893.31422978648,172118.0
62893.32433895059,172074.0
62893.33444811469,172082.0
62893.344557278804,172112.0
62893.35466644291,172112.0
62893.36477560701,172116.0
62893.374884771125,172083.0
62893.38499393523,172109.0
62893.395103099334,172099.0
62893.40521226344,172103.0
62893.41532142755,172096.0
62893.425430591655,172089.0
62893.43553975576,172112.0
62893.44564891987,172085.0
62893.455758083976,172095.0
62893.46586724808,172081.0
62893.47597641219,172124.0
62893.486085576296,172118.0
62893.4961947404,172119.0
62893.50630390451,172115.0
62893.51641306862,172124.0
62893.52652223272,172111.0
62893.53663139683,172156.0
62893.54674056094,172107.0
62893.55684972504,172152.0
62893.566958889154,172132.0
62893.57706805326,172154.0
62893.58717721736,172105.0
62893.597286381475,172110.0
62893.60739554558,172109.0
62893.617504709684,172126.0
62893.627613873796,172082.0
62893.6377230379,172083.0
62893.647832202005,172082.0
62893.65794136612,172085.0
62893.66805053022,172051.0
62893.678159694326,172058.0
62893.68826885844,172076.0
62893.69837802254,172083.0
62893.70848718665,172036.0
62893.71859635075,172046.0
62893.72870551486,172068.0
62893.73881467897,172101.0
62893.74892384307,172108.0
62893.75903300718,172053.0
62893.76914217129,172081.0
62893.77925133539,172050.0
62893.789360499504,172097.0
62893.79946966361,172090.0
62893.80957882771,172082.0
62893.819687991825,172075.0
62893.82979715593,172066.0
62893.839906320034,172089.0
62893.850015484146,172058.0
62893.86012464825,172069.0
62893.870233812355,172076.0
62893.88034297647,172045.0
62893.89045214057,172094.0
62893.900561304676,172079.0
62893.91067046879,172061.0
62893.92077963289,172057.0
62893.930888797,172079.0
62893.94099796111,172080.0
62893.95110712521,172067.0
62893.96121628932,172084.0
62893.97132545343,172053.0
62893.98143461753,172084.0
62893.99154378164,172093.0
62894.00165294575,172061.0
62894.011762109854,172064.0
62894.02187127396,172082.0
62894.03198043806,172104.0
62894.042089602175,172112.0
62894.05219876628,172061.0
62894.062307930384,172087.0
62894.072417094496,172097.0
62894.0825262586,172115.0
62894.092635422705,172107.0
62894.10274458682,172096.0
62894.11285375092,172048.0
62894.122962915026,172112.0
62894.13307207914,172065.0
62894.14318124324,172084.0
62894.15329040735,172106.0
62894.16339957146,172096.0
62894.17350873556,172074.0
62894.18361789967,172086.0
62894.19372706378,172090.0
62894.20383622788,172090.0
62894.21394539199,172079.0
62894.2240545561,172089.0
62894.234163720204,172085.0
62894.24427288431,172131.0
62894.25438204842,172095.0
62894.264491212525,172090.0
62894.27460037663,172102.0
62894.28470954074,172079.0
62894.294818704846,172100.0
62894.30492786895,172083.0
62894.31503703306,172092.0
62894.32514619717,172092.0
62894.33525536127,172091.0
62894.345364525376,172121.0
62894.35547368949,172110.0
62894.36558285359,172094.0
62894.3756920177,172072.0
62894.38580118181,172133.0
62894.39591034591,172112.0
62894.40601951002,172093.0
62894.41612867413,172105.0
62894.426237838234,172130.0
62894.43634700234,172126.0
62894.44645616645,172126.0
62894.456565330554,172101.0
62894.46667449466,172059.0
62894.47678365877,172112.0
62894.486892822875,172098.0
62894.49700198698,172114.0
62894.50711115109,172113.0
62894.517220315196,172099.0
62894.5273294793,172063.0
62894.53743864341,172063.0
62894.54754780752,172112.0
62894.55765697162,172083.0
62894.56776613573,172081.0
62894.57787529984,172047.0
62894.58798446394,172079.0
62894.598093628054,172065.0
62894.60820279216,172076.0
62894.61831195626,172087.0
62894.628421120375,172052.0
62894.63853028448,172034.0
62894.648639448584,172091.0
62894.65874861269,172041.0
62894.6688577768,172058.0
62894.678966940905,172044.0
62894.68907610501,172064.0
62894.69918526912,172049.0
62894.709294433225,172065.0
62894.71940359733,172058.0
62894.72951276144,172078.0
62894.739621925546,172080.0
62894.74973108965,172054.0
62894.75984025376,172082.0
62894.76994941787,172063.0
62894.78005858197,172049.0
62894.79016774608,172037.0
62894.80027691019,172060.0
62894.81038607429,172078.0
62894.820495238404,172078.0
62894.83060440251,172075.0
62894.84071356661,172060.0
62894.850822730725,172074.0
62894.86093189483,172078.0
62894.871041058934,172048.0
62894.881150223046,172048.0
62894.89125938715,172064.0
62894.901368551255,172106.0
62894.911477715366,172031.0
62894.92158687947,172067.0
62894.931696043575,172065.0
62894.94180520769,172089.0
62894.95191437179,172071.0
62894.962023535896,172097.0
62894.9721327,172085.0
62894.98224186411,172118.0
62894.99235102822,172097.0
62895.00246019232,172081.0
62895.01256935643,172079.0
62895.02267852054,172082.0
62895.03278768464,172069.0
62895.042896848754,172053.0
62895.05300601286,172130.0
62895.06311517696,172073.0
62895.073224341075,172056.0
62895.08333350518,172085.0
62895.093442669284,172117.0
62895.103551833396,172097.0
62895.1136609975,172073.0
62895.123770161605,172064.0
62895.13387932572,172102.0
62895.14398848982,172089.0
62895.154097653925,172075.0
62895.16420681804,172100.0
62895.17431598214,172122.0
62895.184425146246,172060.0
62895.19453431036,172050.0
62895.20464347446,172061.0
62895.21475263857,172111.0
62895.22486180268,172097.0
62895.23497096678,172124.0
62895.24508013089,172062.0
62895.255189295,172114.0
62895.265298459104,172106.0
62895.27540762321,172112.0
62895.28551678731,172061.0
62895.295625951425,172090.0
62895.30573511553,172101.0
62895.315844279634,172108.0
62895.325953443746,172086.0
62895.33606260785,172123.0
62895.346171771955,172112.0
62895.35628093607,172134.0
62895.36639010017,172078.0
62895.376499264275,172114.0
62895.38660842839,172110.0
62895.39671759249,172108.0
62895.406826756596,172086.0
62895.41693592071,172098.0
62895.42704508481,172102.0
62895.43715424892,172107.0
62895.44726341303,172064.0
62895.45737257713,172059.0
62895.46748174124,172109.0
62895.47759090535,172078.0
62895.487700069454,172072.0
62895.49780923356,172081.0
62895.50791839767,172083.0
62895.518027561775,172079.0
62895.52813672588,172039.0
62895.53824588999,172058.0
62895.548355054096,172063.0
62895.5584642182,172070.0
62895.56857338231,172056.0
62895.57868254642,172067.0
62895.58879171052,172088.0
62895.598900874626,172066.0
62895.60901003874,172038.0
62895.61911920284,172049.0
62895.629228366946,172080.0
62895.63933753106,172087.0
62895.64944669516,172097.0
62895.65955585927,172047.0
62895.66966502338,172065.0
62895.67977418748,172073.0
62895.68988335159,172074.0
62895.6999925157,172069.0
62895.710101679804,172046.0
62895.72021084391,172064.0
62895.73032000802,172095.0
62895.740429172125,172050.0
62895.75053833623,172067.0
62895.76064750034,172064.0
62895.770756664446,172080.0
62895.78086582855,172060.0
62895.79097499266,172060.0
62895.80108415677,172072.0
62895.81119332087,172076.0
62895.82130248498,172049.0
62895.83141164909,172070.0
62895.84152081319,172077.0
62895.851629977304,172107.0
62895.86173914141,172042.0
62895.87184830551,172047.0
62895.881957469624,172083.0
62895.89206663373,172077.0
62895.90217579783,172068.0
62895.91228496194,172048.0
62895.92239412605,172066.0
62895.932503290154,172076.0
62895.94261245426,172058.0
62895.95272161837,172049.0
62895.962830782475,172064.0
62895.97293994658,172080.0
62895.98304911069,172108.0
62895.993158274796,172071.0
62896.0032674389,172096.0
62896.01337660301,172084.0
62896.02348576712,172118.0
62896.03359493122,172095.0
62896.04370409533,172090.0
62896.05381325944,172100.0
62896.06392242354,172124.0
62896.074031587654,172074.0
62896.08414075176,172105.0
62896.09424991586,172098.0
62896.104359079975,172103.0
62896.11446824408,172056.0
62896.12457740818,172047.0
62896.134686572295,172092.0
62896.1447957364,172118.0
62896.154904900504,172118.0
62896.165014064616,172059.0
62896.17512322872,172103.0
62896.185232392825,172132.0
62896.19534155694,172085.0
62896.20545072104,172122.0
62896.215559885146,172101.0
62896.22566904925,172119.0
62896.23577821336,172081.0
62896.24588737747,172095.0
62896.25599654157,172096.0
62896.26610570568,172094.0
62896.27621486979,172131.0
62896.28632403389,172103.0
62896.296433198004,172104.0
62896.30654236211,172122.0
62896.31665152621,172118.0
62896.326760690325,172096.0
62896.33686985443,172117.0
62896.34697901853,172126.0
62896.357088182645,172124.0
62896.36719734675,172086.0
62896.377306510854,172081.0
62896.387415674966,172117.0
62896.39752483907,172081.0
62896.407634003175,172076.0
62896.41774316729,172062.0
62896.42785233139,172078.0
62896.437961495496,172107.0
62896.44807065961,172055.0
62896.45817982371,172081.0
62896.46828898782,172087.0
62896.47839815193,172088.0
62896.48850731603,172092.0
62896.49861648014,172083.0
62896.50872564425,172092.0
62896.518834808354,172097.0
62896.52894397246,172058.0
62896.53905313656,172058.0
62896.549162300675,172081.0
62896.55927146478,172095.0
62896.569380628884,172066.0
62896.579489792995,172057.0
62896.5895989571,172086.0
62896.599708121204,172073.0
62896.609817285316,172108.0
62896.61992644942,172059.0
62896.630035613525,172092.0
62896.64014477764,172050.0
62896.65025394174,172082.0
62896.660363105846,172074.0
62896.67047226996,172093.0
62896.68058143406,172063.0
62896.69069059817,172094.0
62896.70079976228,172040.0
62896.71090892638,172105.0
62896.72101809049,172088.0
62896.7311272546,172093.0
62896.741236418704,172110.0
62896.75134558281,172080.0
62896.76145474692,172091.0
62896.771563911025,172084.0
62896.78167307513,172080.0
62896.79178223924,172022.0
62896.801891403346,172078.0
62896.81200056745,172083.0
62896.82210973156,172085.0
62896.832218895666,172069.0
62896.84232805977,172102.0
62896.852437223875,172094.0
62896.86254638799,172096.0
62896.87265555209,172061.0
62896.882764716196,172112.0
62896.89287388031,172071.0
62896.90298304441,172065.0
62896.91309220852,172073.0
62896.92320137263,172089.0
62896.93331053673,172073.0
62896.94341970084,172070.0
62896.95352886495,172090.0
62896.963638029054,172110.0
62896.97374719316,172098.0
62896.98385635727,172124.0
62896.993965521375,172079.0
62897.00407468548,172103.0
62897.01418384959,172107.0
62897.024293013696,172098.0
62897.0344021778,172078.0
62897.04451134191,172117.0
62897.05462050602,172102.0
62897.06472967012,172128.0
62897.07483883423,172111.0
62897.08494799834,172073.0
62897.09505716244,172103.0
62897.10516632655,172090.0
62897.11527549066,172088.0
62897.12538465476,172138.0
62897.135493818874,172112.0
62897.14560298298,172078.0
62897.15571214708,172138.0
62897.16582131119,172070.0
62897.1759304753,172118.0
62897.186039639404,172128.0
62897.19614880351,172098.0
62897.20625796762,172094.0
62897.216367131725,172123.0
62897.22647629583,172146.0
62897.23658545994,172115.0
62897.246694624046,172102.0
62897.25680378815,172121.0
62897.26691295226,172117.0
62897.27702211637,172133.0
62897.28713128047,172116.0
62897.29724044458,172098.0
62897.30734960869,172067.0
62897.31745877279,172102.0
62897.3275679369,172086.0
62897.33767710101,172069.0
62897.34778626511,172062.0
62897.357895429224,172073.0
62897.36800459333,172086.0
62897.37811375743,172088.0
62897.388222921545,172110.0
62897.39833208565,172105.0
62897.408441249754,172064.0
62897.418550413866,172101.0
62897.42865957797,172099.0
62897.438768742075,172114.0
62897.44887790619,172118.0
62897.45898707029,172081.0
62897.469096234396,172064.0
62897.4792053985,172056.0
62897.48931456261,172068.0
62897.49942372672,172079.0
62897.50953289082,172099.0
62897.51964205493,172112.0
62897.52975121904,172067.0
62897.53986038314,172087.0
62897.54996954725,172100.0
62897.56007871136,172080.0
62897.57018787546,172121.0
62897.580297039574,172107.0
62897.59040620368,172065.0
62897.60051536778,172068.0
62897.610624531895,172080.0
62897.620733696,172123.0
62897.630842860104,172103.0
62897.640952024216,172119.0
62897.65106118832,172103.0
62897.661170352425,172136.0
62897.67127951654,172103.0
62897.68138868064,172118.0
62897.691497844746,172065.0
62897.70160700886,172139.0
62897.71171617296,172111.0
62897.72182533707,172081.0
62897.73193450118,172119.0
62897.74204366528,172102.0
62897.75215282939,172113.0
62897.7622619935,172139.0
62897.7723711576,172124.0
62897.78248032171,172132.0
62897.79258948581,172122.0
62897.802698649924,172084.0
62897.81280781403,172129.0
62897.82291697813,172153.0
62897.833026142245,172121.0
62897.84313530635,172128.0
62897.853244470454,172141.0
62897.863353634566,172111.0
62897.87346279867,172128.0
62897.883571962775,172113.0
62897.89368112689,172109.0
62897.90379029099,172141.0
62897.913899455096,172112.0
62897.92400861921,172136.0
62897.93411778331,172145.0
62897.94422694742,172162.0
62897.95433611153,172154.0
62897.96444527563,172136.0
62897.97455443974,172117.0
62897.98466360385,172110.0
62897.994772767954,172094.0
62898.00488193206,172132.0
62898.01499109617,172168.0
62898.025100260274,172148.0
62898.03520942438,172127.0
62898.04531858849,172147.0
62898.055427752595,172183.0
62898.0655369167,172117.0
62898.07564608081,172137.0
62898.085755244916,172138.0
62898.09586440902,172155.0
62898.105973573125,172125.0
62898.11608273724,172128.0
62898.12619190134,172164.0
62898.136301065446,172126.0
62898.14641022956,172140.0
62898.15651939366,172113.0
62898.16662855777,172127.0
62898.17673772188,172144.0
62898.18684688598,172136.0
62898.19695605009,172121.0
62898.2070652142,172108.0
62898.217174378304,172135.0
62898.22728354241,172074.0
62898.23739270652,172128.0
62898.247501870625,172124.0
62898.25761103473,172104.0
62898.26772019884,172096.0
62898.277829362945,172098.0
62898.28793852705,172129.0
62898.29804769116,172108.0
62898.308156855266,172137.0
62898.31826601937,172115.0
62898.32837518348,172166.0
62898.33848434759,172140.0
62898.34859351169,172146.0
62898.3587026758,172119.0
62898.36881183991,172130.0
62898.37892100401,172129.0
62898.389030168124,172122.0
62898.39913933223,172086.0
62898.40924849633,172099.0
62898.41935766044,172123.0
62898.42946682455,172108.0
62898.439575988654,172141.0
62898.44968515276,172131.0
62898.45979431687,172130.0
62898.469903480975,172159.0
62898.48001264508,172126.0
62898.49012180919,172129.0
62898.500230973295,172122.0
62898.5103401374,172118.0
62898.52044930151,172133.0
62898.530558465616,172131.0
62898.54066762972,172122.0
62898.55077679383,172134.0
62898.56088595794,172151.0
62898.57099512204,172146.0
62898.58110428615,172149.0
62898.59121345026,172128.0
62898.60132261436,172146.0
62898.611431778474,172119.0
62898.62154094258,172130.0
62898.63165010668,172149.0
62898.641759270795,172166.0
62898.6518684349,172151.0
62898.661977599004,172133.0
62898.672086763116,172121.0
62898.68219592722,172175.0
62898.692305091325,172146.0
62898.70241425544,172147.0
62898.71252341954,172146.0
62898.722632583645,172186.0
62898.73274174775,172145.0
62898.74285091186,172132.0
62898.752960075966,172167.0
62898.76306924007,172164.0
62898.77317840418,172137.0
62898.78328756829,172162.0
62898.79339673239,172156.0
62898.8035058965,172149.0
62898.81361506061,172135.0
62898.82372422471,172130.0
62898.833833388824,172166.0
62898.84394255293,172184.0
62898.85405171703,172182.0
62898.864160881145,172130.0
62898.87427004525,172155.0
62898.884379209354,172183.0
62898.894488373466,172146.0
62898.90459753757,172124.0
62898.914706701675,172146.0
62898.92481586579,172140.0
62898.93492502989,172106.0
62898.945034193996,172098.0
62898.95514335811,172130.0
62898.96525252221,172121.0
62898.975361686316,172146.0
62898.98547085043,172093.0
62898.99558001453,172131.0
62899.00568917864,172133.0
62899.01579834275,172149.0
62899.02590750685,172103.0
62899.03601667096,172135.0
62899.04612583506,172130.0
62899.056234999174,172124.0
62899.06634416328,172093.0
62899.07645332738,172138.0
62899.086562491495,172107.0
62899.0966716556,172135.0
62899.106780819704,172141.0
62899.116889983816,172130.0
62899.12699914792,172116.0
62899.137108312025,172134.0
62899.14721747614,172145.0
62899.15732664024,172150.0
62899.167435804346,172144.0
62899.17754496846,172129.0
62899.18765413256,172156.0
62899.19776329667,172122.0
62899.20787246078,172138.0
62899.21798162488,172125.0
62899.22809078899,172155.0
62899.2381999531,172117.0
62899.2483091172,172138.0
62899.25841828131,172130.0
62899.26852744542,172127.0
62899.278636609524,172129.0
62899.28874577363,172150.0
62899.29885493774,172139.0
62899.308964101845,172174.0
62899.31907326595,172118.0
62899.32918243006,172108.0
62899.339291594166,172129.0
62899.34940075827,172135.0
62899.359509922375,172133.0
62899.36961908649,172154.0
62899.37972825059,172118.0
62899.389837414696,172160.0
62899.39994657881,172113.0
62899.41005574291,172151.0
62899.42016490702,172139.0
62899.43027407113,172125.0
62899.44038323523,172134.0
62899.45049239934,172147.0
62899.46060156345,172118.0
62899.47071072755,172116.0
62899.48081989166,172163.0
62899.49092905577,172154.0
62899.501038219874,172123.0
62899.51114738398,172150.0
62899.52125654809,172181.0
62899.531365712195,172135.0
62899.5414748763,172162.0
62899.55158404041,172164.0
62899.561693204516,172147.0
62899.57180236862,172131.0
62899.58191153273,172152.0
62899.59202069684,172146.0
62899.60212986094,172133.0
62899.61223902505,172151.0
62899.62234818916,172149.0
62899.63245735326,172134.0
62899.642566517374,172185.0
62899.65267568148,172132.0
62899.66278484558,172141.0
62899.67289400969,172158.0
62899.6830031738,172143.0
62899.6931123379,172149.0
62899.70322150201,172137.0
62899.71333066612,172115.0
62899.723439830224,172125.0
62899.73354899433,172177.0
62899.74365815844,172135.0
62899.753767322545,172091.0
62899.76387648665,172129.0
62899.77398565076,172124.0
62899.784094814866,172121.0
62899.79420397897,172140.0
62899.80431314308,172131.0
62899.81442230719,172159.0
62899.82453147129,172127.0
62899.8346406354,172077.0
62899.84474979951,172121.0
62899.85485896361,172107.0
62899.864968127724,172112.0
62899.87507729183,172111.0
62899.88518645593,172145.0
62899.895295620045,172161.0
62899.90540478415,172129.0
62899.915513948254,172117.0
62899.925623112365,172114.0
62899.93573227647,172129.0
62899.945841440574,172156.0
62899.955950604686,172131.0
62899.96605976879,172143.0
62899.976168932895,172131.0
62899.986278097,172094.0
62899.99638726111,172161.0
62900.006496425216,172105.0
62900.01660558932,172122.0
62900.02671475343,172134.0
62900.03682391754,172120.0
62900.04693308164,172115.0
62900.05704224575,172112.0
62900.06715140986,172152.0
62900.07726057396,172140.0
62900.087369738074,172109.0
62900.09747890218,172161.0
62900.10758806628,172153.0
62900.117697230395,172125.0
62900.1278063945,172088.0
62900.137915558604,172148.0
62900.148024722715,172152.0
62900.15813388682,172134.0
62900.168243050925,172120.0
62900.178352215036,172130.0
62900.18846137914,172129.0
62900.198570543245,172142.0
62900.20867970736,172099.0
62900.21878887146,172164.0
62900.228898035566,172154.0
62900.23900719968,172148.0
62900.24911636378,172108.0
62900.25922552789,172122.0
62900.269334692,172135.0
62900.2794438561,172143.0
62900.28955302021,172151.0
62900.29966218431,172165.0
62900.309771348424,172159.0
62900.31988051253,172138.0
62900.32998967663,172128.0
62900.340098840745,172121.0
62900.35020800485,172111.0
62900.360317168954,172163.0
62900.370426333066,172147.0
62900.38053549717,172135.0
62900.390644661275,172100.0
62900.400753825386,172118.0
62900.41086298949,172112.0
62900.420972153595,172085.0
62900.43108131771,172120.0
62900.44119048181,172100.0
62900.451299645916,172094.0
62900.46140881003,172110.0
62900.47151797413,172105.0
62900.48162713824,172115.0
62900.49173630235,172109.0
62900.50184546645,172075.0
62900.51195463056,172077.0
62900.52206379467,172116.0
62900.532172958774,172080.0
62900.54228212288,172081.0
62900.55239128699,172064.0
62900.562500451095,172108.0
62900.5726096152,172108.0
62900.58271877931,172098.0
62900.592827943416,172065.0
62900.60293710752,172129.0
62900.613046271625,172125.0
62900.62315543574,172083.0
62900.63326459984,172074.0
62900.643373763945,172105.0
62900.65348292806,172115.0
62900.66359209216,172152.0
62900.673701256266,172063.0
62900.68381042038,172070.0
62900.69391958448,172110.0
62900.70402874859,172108.0
62900.7141379127,172071.0
62900.7242470768,172129.0
62900.73435624091,172114.0
62900.74446540502,172091.0
62900.754574569124,172137.0
62900.76468373323,172091.0
62900.77479289734,172105.0
62900.784902061445,172109.0
62900.79501122555,172056.0
62900.80512038966,172127.0
62900.815229553766,172122.0
62900.82533871787,172121.0
62900.83544788198,172080.0
62900.84555704609,172075.0
62900.85566621019,172114.0
62900.8657753743,172111.0
62900.87588453841,172152.0
62900.88599370251,172119.0
62900.89610286662,172136.0
62900.90621203073,172111.0
62900.91632119483,172089.0
62900.92643035894,172081.0
62900.93653952305,172125.0
62900.94664868715,172103.0
62900.95675785126,172083.0
62900.96686701537,172132.0
62900.976976179474,172130.0
62900.98708534358,172109.0
62900.99719450769,172103.0
62901.007303671795,172096.0
62901.0174128359,172094.0
62901.02752200001,172111.0
62901.037631164116,172154.0
62901.04774032822,172127.0
62901.05784949233,172122.0
62901.06795865644,172147.0
62901.07806782054,172102.0
62901.08817698465,172133.0
62901.09828614876,172116.0
62901.10839531286,172117.0
62901.11850447697,172116.0
62901.12861364108,172132.0
62901.13872280518,172087.0
62901.148831969294,172063.0
62901.1589411334,172088.0
62901.1690502975,172096.0
62901.179159461615,172095.0
62901.18926862572,172061.0
62901.199377789824,172075.0
62901.209486953936,172044.0
62901.21959611804,172041.0
62901.229705282145,172073.0
62901.23981444625,172083.0
62901.24992361036,172068.0
62901.260032774466,172106.0
62901.27014193857,172084.0
62901.28025110268,172074.0
62901.29036026679,172095.0
62901.30046943089,172062.0
62901.310578595,172078.0
62901.32068775911,172072.0
62901.33079692321,172083.0
62901.340906087324,172042.0
62901.35101525143,172043.0
62901.36112441553,172057.0
62901.371233579644,172043.0
62901.38134274375,172095.0
62901.39145190785,172093.0
62901.401561071965,172080.0
62901.41167023607,172077.0
62901.421779400174,172074.0
62901.431888564286,172070.0
62901.44199772839,172078.0
62901.452106892495,172060.0
62901.46221605661,172031.0
62901.47232522071,172066.0
62901.482434384816,172074.0
62901.49254354893,172050.0
62901.50265271303,172038.0
62901.51276187714,172086.0
62901.52287104125,172071.0
62901.53298020535,172046.0
62901.54308936946,172049.0
62901.55319853356,172083.0
62901.563307697674,172051.0
62901.57341686178,172071.0
62901.58352602588,172084.0
62901.593635189995,172104.0
62901.6037443541,172028.0
62901.6138535182,172067.0
62901.623962682315,172065.0
62901.63407184642,172096.0
62901.644181010524,172085.0
62901.654290174636,172080.0
62901.66439933874,172065.0
62901.674508502845,172084.0
62901.68461766696,172078.0
62901.69472683106,172090.0
62901.704835995166,172117.0
62901.71494515928,172059.0
62901.72505432338,172086.0
62901.73516348749,172088.0
62901.7452726516,172047.0
62901.7553818157,172083.0
62901.76549097981,172108.0
62901.77560014392,172091.0
62901.785709308024,172085.0
62901.79581847213,172112.0
62901.80592763624,172110.0
62901.816036800345,172097.0
62901.82614596445,172074.0
62901.83625512856,172118.0
62901.846364292665,172067.0
62901.85647345677,172100.0
62901.866582620874,172073.0
62901.876691784986,172056.0
62901.88680094909,172111.0
62901.896910113195,172098.0
62901.90701927731,172075.0
62901.91712844141,172097.0
62901.927237605516,172121.0
62901.93734676963,172091.0
62901.94745593373,172059.0
62901.95756509784,172083.0
62901.96767426195,172094.0
62901.97778342605,172042.0
62901.98789259016,172063.0
62901.99800175427,172081.0
62902.008110918374,172069.0
62902.01822008248,172028.0
62902.02832924659,172050.0
62902.038438410695,172039.0
62902.0485475748,172073.0
62902.05865673891,172038.0
62902.068765903015,172058.0
62902.07887506712,172047.0
62902.08898423123,172073.0
62902.099093395336,172037.0
62902.10920255944,172051.0
62902.11931172355,172038.0
62902.12942088766,172052.0
62902.13953005176,172026.0
62902.14963921587,172034.0
62902.15974837998,172005.0
62902.16985754408,172043.0
62902.17996670819,172014.0
62902.1900758723,172045.0
62902.2001850364,172035.0
62902.21029420051,172049.0
62902.22040336462,172053.0
62902.230512528724,172036.0
62902.24062169283,172031.0
62902.25073085694,172049.0
62902.260840021045,172039.0
62902.27094918515,172039.0
62902.28105834926,172011.0
62902.291167513366,172017.0
62902.30127667747,172068.0
62902.31138584158,172038.0
62902.321495005686,172013.0
62902.33160416979,172053.0
62902.3417133339,172077.0
62902.35182249801,172029.0
62902.36193166211,172021.0
62902.37204082622,172043.0
62902.38214999033,172056.0
62902.39225915443,172041.0
62902.402368318544,172025.0
62902.41247748265,172047.0
62902.42258664675,172063.0
62902.432695810865,172028.0
62902.44280497497,172058.0
62902.452914139074,172012.0
62902.463023303186,172076.0
62902.47313246729,172060.0
62902.483241631395,172060.0
62902.4933507955,172042.0
62902.50345995961,172067.0
62902.513569123716,172034.0
62902.52367828782,172062.0
62902.53378745193,172037.0
62902.54389661604,172068.0
62902.55400578014,172062.0
62902.56411494425,172069.0
62902.57422410836,172045.0
62902.58433327246,172096.0
62902.59444243657,172087.0
62902.60455160068,172061.0
62902.61466076478,172052.0
62902.624769928894,172068.0
62902.634879093,172080.0
62902.6449882571,172066.0
62902.655097421215,172054.0
62902.66520658532,172076.0
62902.675315749424,172081.0
62902.685424913536,172060.0
62902.69553407764,172033.0
62902.705643241745,172035.0
62902.71575240586,172080.0
62902.72586156996,172061.0
62902.735970734066,172074.0
62902.74607989818,172082.0
62902.75618906228,172047.0
62902.76629822639,172074.0
62902.7764073905,172074.0
62902.7865165546,172055.0
62902.79662571871,172041.0
62902.80673488281,172089.0
62902.81684404692,172059.0
62902.82695321103,172032.0
62902.83706237513,172074.0
62902.847171539244,172075.0
62902.85728070335,172047.0
62902.86738986745,172020.0
62902.877499031565,172031.0
62902.88760819567,172038.0
62902.897717359774,172034.0
62902.907826523886,171977.0
62902.91793568799,172038.0
62902.928044852095,172066.0
62902.93815401621,171996.0
62902.94826318031,171988.0
62902.958372344416,171980.0
62902.96848150853,172042.0
62902.97859067263,172021.0
62902.98869983674,172013.0
62902.99880900085,171998.0
62903.00891816495,172022.0
62903.01902732906,172021.0
62903.02913649317,172019.0
62903.03924565727,172004.0
62903.04935482138,172040.0
62903.05946398549,172012.0
62903.069573149594,171991.0
62903.0796823137,171992.0
62903.0897914778,172021.0
62903.099900641915,172017.0
62903.11000980602,172015.0
62903.120118970124,171979.0
62903.130228134236,172025.0
62903.14033729834,172012.0
62903.150446462445,171987.0
62903.16055562656,171988.0
62903.17066479066,172036.0
62903.180773954766,172016.0
62903.19088311888,172038.0
62903.20099228298,171983.0
62903.21110144709,171988.0
62903.2212106112,172030.0
62903.2313197753,172018.0
62903.24142893941,172006.0
62903.25153810352,172032.0
62903.26164726762,172048.0
62903.27175643173,172028.0
62903.28186559584,172016.0
62903.291974759944,172025.0
62903.30208392405,172021.0
62903.31219308816,172031.0
62903.322302252265,172012.0
62903.33241141637,172025.0
62903.34252058048,172040.0
62903.352629744586,172029.0
62903.36273890869,171996.0
62903.3728480728,172006.0
62903.38295723691,172021.0
62903.39306640101,172039.0
62903.403175565116,172060.0
62903.41328472923,172006.0
62903.42339389333,172039.0
62903.43350305744,172040.0
62903.44361222155,172042.0
62903.45372138565,172047.0
62903.46383054976,172014.0
62903.47393971387,172035.0
62903.484048877974,172036.0
62903.49415804208,172047.0
62903.50426720619,172029.0
62903.514376370294,172040.0
62903.5244855344,172032.0
62903.53459469851,172047.0
62903.544703862615,172029.0
62903.55481302672,172043.0
62903.56492219083,172076.0
62903.575031354936,172073.0
62903.58514051904,172077.0
62903.59524968315,172050.0
62903.60535884726,172077.0
62903.61546801136,172020.0
62903.62557717547,172026.0
62903.63568633958,172038.0
62903.64579550368,172052.0
62903.655904667794,172041.0
62903.6660138319,172025.0
62903.676122996,172075.0
62903.686232160115,172068.0
62903.69634132422,172073.0
62903.706450488324,172029.0
62903.71655965243,172037.0
62903.72666881654,172052.0
62903.736777980645,172050.0
62903.74688714475,172041.0
62903.75699630886,172058.0
62903.767105472965,172033.0
62903.77721463707,172005.0
62903.78732380118,171986.0
62903.797432965286,172003.0
62903.80754212939,172016.0
62903.8176512935,172026.0
62903.82776045761,171983.0
62903.83786962171,172012.0
62903.84797878582,172007.0
62903.85808794993,172011.0
62903.86819711403,171979.0
62903.878306278144,171979.0
62903.88841544225,172011.0
62903.89852460635,172002.0
62903.908633770465,171997.0
62903.91874293457,172007.0
62903.928852098674,171994.0
62903.938961262786,172027.0
62903.94907042689,172020.0
62903.959179590995,172011.0
62903.96928875511,172002.0
62903.97939791921,171984.0
62903.989507083315,171997.0
62903.99961624743,172024.0
62904.00972541153,171971.0
62904.019834575636,171993.0
62904.02994373974,172020.0
62904.04005290385,172018.0
62904.05016206796,171981.0
62904.06027123206,172004.0
62904.07038039617,172018.0
62904.08048956028,172012.0
62904.09059872438,171992.0
62904.100707888494,172011.0
62904.1108170526,171999.0
62904.1209262167,172027.0
62904.131035380815,171982.0
62904.14114454492,171997.0
62904.151253709024,172005.0
62904.161362873136,171999.0
62904.17147203724,171993.0
62904.181581201345,172001.0
62904.19169036546,172025.0
62904.20179952956,172006.0
62904.211908693665,172006.0
62904.22201785778,172013.0
62904.23212702188,171998.0
62904.242236185986,172029.0
62904.2523453501,172007.0
62904.2624545142,172022.0
62904.27256367831,172027.0
62904.28267284242,171991.0
62904.29278200652,172027.0
62904.30289117063,172021.0
62904.31300033474,172008.0
62904.323109498844,172011.0
62904.33321866295,172043.0
62904.34332782705,172024.0
62904.353436991165,172042.0
62904.36354615527,172006.0
62904.373655319374,172007.0
62904.383764483486,172025.0
62904.39387364759,172005.0
62904.403982811695,172064.0
62904.41409197581,172024.0
62904.42420113991,172023.0
62904.434310304016,172029.0
62904.44441946813,172062.0
62904.45452863223,172035.0
62904.464637796336,172032.0
62904.47474696045,172038.0
62904.48485612455,172003.0
62904.49496528866,172030.0
62904.50507445277,172045.0
62904.51518361687,172040.0
62904.52529278098,172019.0
62904.53540194509,172045.0
62904.545511109194,172041.0
62904.5556202733,172038.0
62904.56572943741,172001.0
62904.575838601515,172044.0
62904.58594776562,172041.0
62904.59605692973,172047.0
62904.606166093836,172027.0
62904.61627525794,172053.0
62904.62638442205,172074.0
62904.63649358616,172032.0
62904.64660275026,172021.0
62904.656711914366,172035.0
62904.66682107848,172040.0
62904.67693024258,171991.0
62904.68703940669,172003.0
62904.6971485708,171999.0
62904.7072577349,172043.0
62904.71736689901,172004.0
62904.72747606312,172006.0
62904.73758522722,172001.0
62904.74769439133,172029.0
62904.75780355544,172004.0
62904.767912719544,172020.0
62904.77802188365,172007.0
62904.78813104776,172007.0
62904.798240211865,172007.0
62904.80834937597,171968.0
62904.81845854008,171964.0
62904.828567704186,171966.0
62904.83867686829,172037.0
62904.8487860324,172005.0
62904.85889519651,171979.0
62904.86900436061,172001.0
62904.87911352472,171971.0
62904.88922268883,172007.0
62904.89933185293,172008.0
62904.909441017044,172022.0
62904.91955018115,171984.0
62904.92965934525,172010.0
62904.939768509365,172031.0
62904.94987767347,172007.0
62904.95998683757,172019.0
62904.97009600168,172004.0
62904.98020516579,172041.0
62904.990314329894,171989.0
62905.000423494,171985.0
62905.01053265811,172016.0
62905.020641822215,172009.0
62905.03075098632,172002.0
62905.04086015043,172019.0
62905.050969314536,172017.0
62905.06107847864,171996.0
62905.07118764275,171987.0
62905.08129680686,171992.0
62905.09140597096,172013.0
62905.10151513507,171974.0
62905.11162429918,172005.0
62905.12173346328,172012.0
62905.131842627394,172027.0
62905.1419517915,172016.0
62905.1520609556,172005.0
62905.162170119715,172014.0
62905.17227928382,172013.0
62905.18238844792,172038.0
62905.192497612035,172001.0
62905.20260677614,172019.0
62905.212715940244,172038.0
62905.222825104356,171992.0
62905.23293426846,171985.0
62905.243043432565,172001.0
62905.25315259668,172037.0
62905.26326176078,172024.0
62905.273370924886,172001.0
62905.28348008899,172041.0
62905.2935892531,172059.0
62905.30369841721,172027.0
62905.31380758131,172024.0
62905.32391674542,172031.0
62905.33402590953,172027.0
62905.34413507363,172006.0
62905.354244237744,171999.0
62905.36435340185,172018.0
62905.37446256595,172039.0
62905.384571730065,172033.0
62905.39468089417,172017.0
62905.404790058274,172005.0
62905.414899222385,172020.0
62905.42500838649,172038.0
62905.435117550594,172039.0
62905.445226714706,172041.0
62905.45533587881,172055.0
62905.465445042915,172046.0
62905.47555420703,171999.0
62905.48566337113,172025.0
62905.495772535236,172025.0
62905.50588169935,172036.0
62905.51599086345,172076.0
62905.52610002756,172041.0
62905.53620919167,172035.0
62905.54631835577,172048.0
62905.55642751988,172073.0
62905.56653668399,172026.0
62905.576645848094,172051.0
62905.5867550122,172048.0
62905.5968641763,172027.0
62905.606973340415,172010.0
62905.61708250452,172068.0
62905.627191668624,172025.0
62905.637300832735,172028.0
62905.64740999684,172001.0
62905.657519160945,171985.0
62905.667628325056,172032.0
62905.67773748916,172017.0
62905.687846653265,171998.0
62905.69795581738,172003.0
62905.70806498148,172036.0
62905.718174145586,172003.0
62905.7282833097,171980.0
62905.7383924738,172031.0
62905.74850163791,172038.0
62905.75861080202,172006.0
62905.76871996612,172029.0
62905.77882913023,172006.0
62905.78893829434,172029.0
62905.799047458444,172008.0
62905.80915662255,171992.0
62905.81926578666,172003.0
62905.829374950765,172042.0
62905.83948411487,172017.0
62905.84959327898,171999.0
62905.859702443086,171980.0
62905.86981160719,172023.0
62905.8799207713,172041.0
62905.890029935406,172008.0
62905.90013909951,171980.0
62905.910248263615,171993.0
62905.92035742773,172008.0
62905.93046659183,172019.0
62905.940575755936,172003.0
62905.95068492005,172031.0
62905.96079408415,172007.0
62905.97090324826,172050.0
62905.98101241237,171992.0
62905.99112157647,172005.0
62906.00123074058,172016.0
62906.01133990469,172024.0
62906.021449068794,171978.0
62906.0315582329,172021.0
62906.04166739701,172014.0
62906.051776561115,172006.0
62906.06188572522,172028.0
62906.07199488933,171999.0
62906.082104053436,172027.0
62906.09221321754,172015.0
62906.10232238165,172045.0
62906.11243154576,171998.0
62906.12254070986,172030.0
62906.13264987397,172021.0
62906.14275903808,171986.0
62906.15286820218,171982.0
62906.16297736629,172000.0
62906.1730865304,172026.0
62906.1831956945,172045.0
62906.193304858614,172040.0
62906.20341402272,172029.0
62906.21352318682,172034.0
62906.22363235093,172018.0
62906.23374151504,172027.0
62906.243850679144,172032.0
62906.25395984325,172032.0
62906.26406900736,172041.0
62906.274178171465,172052.0
62906.28428733557,172027.0
62906.29439649968,172035.0
62906.304505663786,172017.0
62906.31461482789,172010.0
62906.324723992,172013.0
62906.33483315611,172043.0
62906.34494232021,172060.0
62906.35505148432,172020.0
62906.36516064843,172013.0
62906.37526981253,172052.0
62906.38537897664,172036.0
62906.39548814075,172081.0
62906.40559730485,172015.0
62906.415706468964,172019.0
62906.42581563307,172048.0
62906.43592479717,172034.0
62906.446033961285,172024.0
62906.45614312539,172055.0
62906.466252289494,172052.0
62906.476361453606,172075.0
62906.48647061771,172048.0
62906.496579781815,172055.0
62906.50668894593,172072.0
62906.51679811003,172074.0
62906.526907274136,172058.0
62906.53701643824,172059.0
62906.54712560235,172063.0
62906.55723476646,172029.0
62906.56734393056,172036.0
62906.57745309467,172028.0
62906.58756225878,172055.0
62906.59767142288,172063.0
62906.60778058699,172048.0
62906.6178897511,172024.0
62906.6279989152,172017.0
62906.638108079314,172030.0
62906.64821724342,172029.0
62906.65832640752,172016.0
62906.668435571635,172015.0
62906.67854473574,172006.0
62906.688653899844,172032.0
62906.698763063956,172006.0
62906.70887222806,172017.0
62906.718981392165,172012.0
62906.72909055628,172042.0
62906.73919972038,171995.0
62906.749308884486,172025.0
62906.7594180486,172032.0
62906.7695272127,172008.0
62906.77963637681,172034.0
62906.78974554092,172028.0
62906.79985470502,172015.0
62906.80996386913,172057.0
62906.82007303324,171998.0
62906.830182197344,172016.0
62906.84029136145,172019.0
62906.85040052555,172045.0
62906.860509689664,172008.0
62906.87061885377,171997.0
62906.88072801787,172022.0
62906.890837181985,172039.0
62906.90094634609,172038.0
62906.911055510194,171995.0
62906.921164674306,172038.0
62906.93127383841,172016.0
62906.941383002515,172009.0
62906.95149216663,171961.0
62906.96160133073,172015.0
62906.971710494836,172019.0
62906.98181965895,172061.0
62906.99192882305,172018.0
62907.00203798716,172046.0
62907.01214715127,172003.0
62907.02225631537,172029.0
62907.03236547948,172032.0
62907.04247464359,172043.0
62907.052583807694,172069.0
62907.0626929718,172060.0
62907.07280213591,172025.0
62907.082911300015,172008.0
62907.09302046412,172010.0
62907.10312962823,172029.0
62907.113238792335,172072.0
62907.12334795644,172041.0
62907.13345712055,172063.0
62907.143566284656,172054.0
62907.15367544876,172043.0
62907.163784612865,172047.0
62907.17389377698,172047.0
62907.18400294108,172014.0
62907.194112105186,172080.0
62907.2042212693,172062.0
62907.2143304334,172015.0
62907.22443959751,172031.0
62907.23454876162,172078.0
62907.24465792572,172066.0
62907.25476708983,172036.0
62907.26487625394,172057.0
62907.274985418044,172085.0
62907.28509458215,172086.0
62907.29520374626,172062.0
62907.305312910365,172048.0
62907.31542207447,172029.0
62907.32553123858,172031.0
62907.335640402685,172074.0
62907.34574956679,172070.0
62907.3558587309,172073.0
62907.365967895006,172046.0
62907.37607705911,172064.0
62907.38618622322,172058.0
62907.39629538733,172077.0
62907.40640455143,172083.0
62907.41651371554,172086.0
62907.42662287965,172041.0
62907.43673204375,172046.0
62907.446841207864,172098.0
62907.45695037197,172092.0
62907.46705953607,172073.0
62907.47716870018,172074.0
62907.48727786429,172131.0
62907.497387028394,172078.0
62907.5074961925,172074.0
62907.51760535661,172072.0
62907.527714520715,172057.0
62907.53782368482,172079.0
62907.54793284893,172081.0
62907.558042013035,172086.0
62907.56815117714,172034.0
62907.57826034125,172057.0
62907.588369505356,172022.0
62907.59847866946,172039.0
62907.60858783357,172049.0
62907.61869699768,172044.0
62907.62880616178,172039.0
62907.63891532589,172020.0
62907.64902449,172073.0
62907.6591336541,172059.0
62907.669242818214,172030.0
62907.67935198232,172049.0
62907.68946114642,172049.0
62907.699570310535,172065.0
62907.70967947464,172059.0
62907.719788638744,172024.0
62907.729897802856,172053.0
62907.74000696696,172069.0
62907.750116131065,172089.0
62907.76022529518,172029.0
62907.77033445928,172036.0
62907.780443623386,172072.0
62907.79055278749,172066.0
62907.8006619516,172087.0
62907.810771115706,172083.0
62907.82088027981,172038.0
62907.83098944392,172073.0
62907.84109860803,172089.0
62907.85120777213,172073.0
62907.86131693624,172096.0
62907.87142610035,172060.0
62907.88153526445,172017.0
62907.891644428564,172043.0
62907.90175359267,172044.0
62907.91186275677,172080.0
62907.921971920885,172080.0
62907.93208108499,172066.0
62907.942190249094,172063.0
62907.952299413206,172082.0
62907.96240857731,172073.0
62907.972517741415,172077.0
62907.98262690553,172083.0
62907.99273606963,172087.0
62908.002845233736,172055.0
62908.01295439785,172078.0
62908.02306356195,172045.0
62908.03317272606,172085.0
62908.04328189017,172060.0
62908.05339105427,172107.0
62908.06350021838,172102.0
62908.07360938249,172055.0
62908.08371854659,172122.0
62908.0938277107,172067.0
62908.1039368748,172081.0
62908.114046038914,172055.0
62908.12415520302,172083.0
62908.13426436712,172077.0
62908.144373531235,172118.0
62908.15448269534,172042.0
62908.164591859444,172092.0
62908.174701023556,172094.0
62908.18481018766,172075.0
62908.194919351765,172076.0
62908.20502851588,172090.0
62908.21513767998,172124.0
62908.225246844086,172121.0
62908.2353560082,172064.0
62908.2454651723,172093.0
62908.25557433641,172097.0
62908.26568350052,172082.0
62908.27579266462,172063.0
62908.28590182873,172075.0
62908.29601099284,172096.0
62908.30612015694,172125.0
62908.31622932105,172115.0
62908.32633848516,172103.0
62908.336447649264,172096.0
62908.34655681337,172132.0
62908.35666597748,172103.0
62908.366775141585,172107.0
62908.37688430569,172131.0
62908.3869934698,172121.0
62908.397102633906,172081.0
62908.40721179801,172102.0
62908.417320962115,172113.0
62908.42743012623,172104.0
62908.43753929033,172063.0
62908.447648454436,172098.0
62908.45775761855,172073.0
62908.46786678265,172098.0
62908.47797594676,172097.0
