time,ppg
63011.66204782211,167370.0
63011.67213678965,167382.0
63011.682225757206,167370.0
63011.69231472475,167362.0
63011.702403692296,167279.0
63011.71249265985,167298.0
63011.72258162739,167298.0
63011.73267059494,167221.0
63011.74275956249,167229.0
63011.752848530035,167185.0
63011.76293749758,167168.0
63011.77302646513,167146.0
63011.78311543268,167170.0
63011.79320440022,167137.0
63011.80329336777,167122.0
63011.81338233532,167127.0
63011.823471302865,167097.0
63011.83356027041,167113.0
63011.84364923796,167147.0
63011.85373820551,167123.0
63011.86382717305,167142.0
63011.873916140605,167124.0
63011.88400510815,167142.0
63011.894094075695,167146.0
63011.90418304325,167138.0
63011.91427201079,167163.0
63011.92436097834,167153.0
63011.93444994589,167116.0
63011.944538913434,167156.0
63011.95462788098,167140.0
63011.964716848524,167147.0
63011.97480581608,167114.0
63011.98489478362,167171.0
63011.99498375117,167108.0
63012.00507271872,167146.0
63012.015161686264,167161.0
63012.02525065381,167126.0
63012.03533962136,167142.0
63012.045428588906,167150.0
63012.05551755645,167097.0
63012.065606524004,167128.0
63012.07569549155,167160.0
63012.085784459094,167148.0
63012.095873426646,167121.0
63012.10596239419,167144.0
63012.116051361736,167160.0
63012.12614032929,167172.0
63012.13622929683,167158.0
63012.14631826438,167150.0
63012.15640723192,167171.0
63012.166496199476,167212.0
63012.17658516702,167205.0
63012.186674134566,167197.0
63012.19676310212,167185.0
63012.20685206966,167239.0
63012.21694103721,167219.0
63012.22703000476,167233.0
63012.237118972305,167277.0
63012.24720793985,167264.0
63012.2572969074,167282.0
63012.26738587495,167250.0
63012.27747484249,167308.0
63012.287563810045,167302.0
63012.29765277759,167267.0
63012.307741745135,167300.0
63012.31783071269,167275.0
63012.32791968023,167321.0
63012.33800864778,167327.0
63012.34809761532,167349.0
63012.358186582875,167355.0
63012.36827555042,167348.0
63012.378364517965,167360.0
63012.38845348552,167324.0
63012.39854245306,167327.0
63012.40863142061,167356.0
63012.41872038816,167375.0
63012.428809355704,167399.0
63012.43889832325,167394.0
63012.4489872908,167356.0
63012.45907625835,167404.0
63012.46916522589,167439.0
63012.479254193444,167407.0
63012.48934316099,167389.0
63012.499432128534,167381.0
63012.509521096086,167339.0
63012.51961006363,167280.0
63012.529699031176,167293.0
63012.53978799872,167257.0
63012.54987696627,167228.0
63012.55996593382,167217.0
63012.57005490136,167222.0
63012.580143868916,167169.0
63012.59023283646,167161.0
63012.600321804006,167180.0
63012.61041077156,167157.0
63012.6204997391,167164.0
63012.63058870665,167179.0
63012.6406776742,167155.0
63012.650766641746,167175.0
63012.66085560929,167190.0
63012.67094457684,167198.0
63012.68103354439,167163.0
63012.69112251193,167202.0
63012.70121147948,167199.0
63012.71130044703,167160.0
63012.721389414575,167207.0
63012.73147838212,167179.0
63012.74156734967,167217.0
63012.75165631722,167198.0
63012.76174528476,167191.0
63012.771834252315,167228.0
63012.78192321986,167212.0
63012.792012187405,167209.0
63012.80210115496,167204.0
63012.8121901225,167217.0
63012.82227909005,167210.0
63012.8323680576,167240.0
63012.842457025145,167191.0
63012.85254599269,167210.0
63012.86263496024,167212.0
63012.87272392779,167190.0
63012.88281289533,167215.0
63012.89290186288,167210.0
63012.90299083043,167230.0
63012.913079797974,167226.0
63012.92316876552,167247.0
63012.93325773307,167200.0
63012.94334670062,167241.0
63012.95343566816,167258.0
63012.963524635714,167286.0
63012.97361360326,167279.0
63012.983702570804,167279.0
63012.993791538356,167308.0
63013.0038805059,167321.0
63013.013969473446,167318.0
63013.024058441,167363.0
63013.03414740854,167351.0
63013.04423637609,167337.0
63013.05432534363,167382.0
63013.064414311186,167370.0
63013.07450327873,167385.0
63013.084592246276,167394.0
63013.09468121383,167371.0
63013.10477018137,167391.0
63013.11485914892,167415.0
63013.12494811647,167398.0
63013.135037084015,167381.0
63013.14512605156,167386.0
63013.15521501911,167432.0
63013.16530398666,167431.0
63013.1753929542,167444.0
63013.185481921755,167455.0
63013.1955708893,167463.0
63013.205659856845,167491.0
63013.2157488244,167472.0
63013.22583779194,167502.0
63013.23592675949,167511.0
63013.24601572703,167489.0
63013.256104694585,167495.0
63013.26619366213,167537.0
63013.276282629675,167529.0
63013.28637159723,167540.0
63013.29646056477,167573.0
63013.30654953232,167535.0
63013.31663849987,167523.0
63013.326727467414,167519.0
63013.33681643496,167480.0
63013.34690540251,167448.0
63013.35699437006,167441.0
63013.3670833376,167376.0
63013.377172305154,167390.0
63013.3872612727,167368.0
63013.397350240244,167338.0
63013.4074392078,167339.0
63013.41752817534,167308.0
63013.42761714289,167299.0
63013.43770611043,167322.0
63013.447795077984,167314.0
63013.45788404553,167293.0
63013.467973013074,167323.0
63013.478061980626,167321.0
63013.48815094817,167318.0
63013.498239915716,167342.0
63013.50832888327,167303.0
63013.51841785081,167317.0
63013.52850681836,167334.0
63013.53859578591,167340.0
63013.548684753456,167341.0
63013.558773721,167349.0
63013.56886268855,167355.0
63013.5789516561,167331.0
63013.58904062364,167373.0
63013.59912959119,167350.0
63013.60921855874,167357.0
63013.619307526285,167346.0
63013.62939649383,167352.0
63013.63948546138,167340.0
63013.64957442893,167368.0
63013.65966339647,167362.0
63013.669752364025,167328.0
63013.67984133157,167349.0
63013.689930299115,167358.0
63013.70001926667,167353.0
63013.71010823421,167354.0
63013.72019720176,167395.0
63013.73028616931,167387.0
63013.740375136855,167362.0
63013.7504641044,167398.0
63013.76055307195,167401.0
63013.7706420395,167385.0
63013.78073100704,167353.0
63013.79081997459,167347.0
63013.80090894214,167366.0
63013.810997909684,167391.0
63013.82108687723,167389.0
63013.83117584478,167375.0
63013.84126481233,167408.0
63013.85135377987,167414.0
63013.861442747424,167416.0
63013.87153171497,167457.0
63013.881620682514,167409.0
63013.891709650066,167459.0
63013.90179861761,167448.0
63013.91188758516,167445.0
63013.92197655271,167466.0
63013.932065520254,167502.0
63013.9421544878,167482.0
63013.95224345535,167505.0
63013.962332422896,167529.0
63013.97242139044,167527.0
63013.982510357986,167493.0
63013.99259932554,167519.0
63014.00268829308,167546.0
63014.01277726063,167534.0
63014.02286622818,167520.0
63014.032955195726,167514.0
63014.04304416327,167538.0
63014.05313313082,167484.0
63014.06322209837,167517.0
63014.07331106591,167544.0
63014.083400033465,167525.0
63014.09348900101,167541.0
63014.103577968555,167555.0
63014.11366693611,167571.0
63014.12375590365,167511.0
63014.1338448712,167542.0
63014.14393383874,167500.0
63014.154022806295,167456.0
63014.16411177384,167442.0
63014.174200741385,167427.0
63014.18428970894,167407.0
63014.19437867648,167364.0
63014.20446764403,167358.0
63014.21455661158,167317.0
63014.224645579125,167333.0
63014.23473454667,167303.0
63014.24482351422,167333.0
63014.25491248177,167271.0
63014.26500144931,167310.0
63014.275090416864,167310.0
63014.28517938441,167307.0
63014.295268351954,167322.0
63014.30535731951,167317.0
63014.31544628705,167312.0
63014.3255352546,167306.0
63014.33562422214,167344.0
63014.345713189694,167340.0
63014.35580215724,167346.0
63014.365891124784,167356.0
63014.375980092336,167374.0
63014.38606905988,167373.0
63014.396158027426,167369.0
63014.40624699498,167389.0
63014.41633596252,167352.0
63014.42642493007,167390.0
63014.43651389762,167376.0
63014.446602865166,167332.0
63014.45669183271,167367.0
63014.46678080026,167353.0
63014.47686976781,167391.0
63014.48695873535,167380.0
63014.497047702906,167397.0
63014.50713667045,167371.0
63014.517225637996,167363.0
63014.52731460554,167401.0
63014.53740357309,167414.0
63014.54749254064,167401.0
63014.55758150818,167377.0
63014.567670475735,167405.0
63014.57775944328,167403.0
63014.587848410825,167406.0
63014.59793737838,167442.0
63014.60802634592,167428.0
63014.61811531347,167446.0
63014.62820428102,167456.0
63014.638293248565,167489.0
63014.64838221611,167483.0
63014.65847118366,167538.0
63014.66856015121,167513.0
63014.67864911875,167548.0
63014.6887380863,167558.0
63014.69882705385,167560.0
63014.708916021395,167566.0
63014.71900498894,167568.0
63014.72909395649,167557.0
63014.73918292404,167556.0
63014.74927189158,167546.0
63014.759360859134,167572.0
63014.76944982668,167572.0
63014.779538794224,167597.0
63014.78962776178,167601.0
63014.79971672932,167586.0
63014.80980569687,167578.0
63014.81989466442,167552.0
63014.829983631964,167605.0
63014.84007259951,167597.0
63014.85016156706,167598.0
63014.860250534606,167613.0
63014.87033950215,167584.0
63014.880428469696,167614.0
63014.89051743725,167619.0
63014.90060640479,167588.0
63014.91069537234,167611.0
63014.92078433989,167599.0
63014.930873307436,167580.0
63014.94096227498,167554.0
63014.95105124253,167519.0
63014.96114021008,167517.0
63014.97122917762,167364.0
63014.981318145175,167354.0
63014.99140711272,167368.0
63015.001496080265,167358.0
63015.01158504782,167358.0
63015.02167401536,167391.0
63015.03176298291,167399.0
63015.04185195046,167369.0
63015.051940918005,167378.0
63015.06202988555,167413.0
63015.072118853095,167370.0
63015.08220782065,167420.0
63015.09229678819,167453.0
63015.10238575574,167402.0
63015.11247472329,167438.0
63015.122563690835,167424.0
63015.13265265838,167426.0
63015.14274162593,167395.0
63015.15283059348,167417.0
63015.16291956102,167418.0
63015.173008528574,167383.0
63015.18309749612,167397.0
63015.193186463664,167392.0
63015.20327543122,167405.0
63015.21336439876,167387.0
63015.22345336631,167402.0
63015.23354233385,167374.0
63015.243631301404,167418.0
63015.25372026895,167434.0
63015.263809236494,167444.0
63015.27389820405,167415.0
63015.28398717159,167448.0
63015.29407613914,167451.0
63015.30416510669,167424.0
63015.314254074234,167457.0
63015.32434304178,167478.0
63015.33443200933,167470.0
63015.344520976876,167503.0
63015.35460994442,167530.0
63015.36469891197,167520.0
63015.37478787952,167519.0
63015.38487684706,167548.0
63015.394965814616,167554.0
63015.40505478216,167559.0
63015.415143749706,167559.0
63015.42523271725,167511.0
63015.4353216848,167541.0
63015.44541065235,167574.0
63015.45549961989,167591.0
63015.465588587445,167595.0
63015.47567755499,167582.0
63015.485766522535,167594.0
63015.49585549009,167587.0
63015.50594445763,167616.0
63015.51603342518,167626.0
63015.52612239273,167617.0
63015.536211360275,167610.0
63015.54630032782,167621.0
63015.55638929537,167604.0
63015.56647826292,167593.0
63015.57656723046,167553.0
63015.58665619801,167594.0
63015.59674516556,167555.0
63015.606834133105,167553.0
63015.61692310065,167517.0
63015.6270120682,167481.0
63015.63710103575,167451.0
63015.64719000329,167456.0
63015.657278970844,167428.0
63015.66736793839,167364.0
63015.677456905934,167421.0
63015.68754587349,167350.0
63015.69763484103,167324.0
63015.70772380858,167343.0
63015.71781277613,167344.0
63015.727901743674,167363.0
63015.73799071122,167363.0
63015.74807967877,167343.0
63015.758168646316,167366.0
63015.76825761386,167324.0
63015.77834658141,167369.0
63015.78843554896,167364.0
63015.798524516504,167381.0
63015.80861348405,167356.0
63015.8187024516,167390.0
63015.828791419146,167386.0
63015.83888038669,167400.0
63015.84896935424,167357.0
63015.85905832179,167392.0
63015.86914728933,167422.0
63015.879236256886,167403.0
63015.88932522443,167365.0
63015.899414191976,167393.0
63015.90950315953,167371.0
63015.91959212707,167377.0
63015.92968109462,167395.0
63015.93977006217,167374.0
63015.949859029715,167374.0
63015.95994799726,167353.0
63015.970036964805,167396.0
63015.98012593236,167370.0
63015.9902148999,167382.0
63016.00030386745,167396.0
63016.010392835,167427.0
63016.020481802545,167423.0
63016.03057077009,167420.0
63016.04065973764,167456.0
63016.05074870519,167431.0
63016.06083767273,167457.0
63016.070926640285,167463.0
63016.08101560783,167484.0
63016.091104575375,167471.0
63016.10119354293,167471.0
63016.11128251047,167524.0
63016.12137147802,167466.0
63016.13146044556,167497.0
63016.141549413114,167514.0
63016.15163838066,167521.0
63016.161727348204,167527.0
63016.17181631576,167506.0
63016.1819052833,167557.0
63016.19199425085,167571.0
63016.2020832184,167574.0
63016.212172185944,167603.0
63016.22226115349,167549.0
63016.23235012104,167613.0
63016.242439088586,167565.0
63016.25252805613,167603.0
63016.26261702368,167601.0
63016.27270599123,167628.0
63016.28279495877,167603.0
63016.292883926326,167590.0
63016.30297289387,167569.0
63016.313061861416,167571.0
63016.32315082896,167536.0
63016.33323979651,167514.0
63016.34332876406,167478.0
63016.3534177316,167474.0
63016.363506699156,167471.0
63016.3735956667,167435.0
63016.383684634246,167407.0
63016.3937736018,167410.0
63016.40386256934,167388.0
63016.41395153689,167431.0
63016.42404050444,167390.0
63016.434129471985,167394.0
63016.44421843953,167370.0
63016.45430740708,167430.0
63016.46439637463,167402.0
63016.47448534217,167401.0
63016.484574309725,167380.0
63016.49466327727,167392.0
63016.504752244815,167377.0
63016.51484121236,167414.0
63016.52493017991,167412.0
63016.53501914746,167435.0
63016.545108115,167464.0
63016.555197082555,167440.0
63016.5652860501,167442.0
63016.575375017645,167448.0
63016.5854639852,167397.0
63016.59555295274,167429.0
63016.60564192029,167419.0
63016.61573088784,167420.0
63016.625819855384,167377.0
63016.63590882293,167380.0
63016.64599779048,167382.0
63016.65608675803,167377.0
63016.66617572557,167346.0
63016.67626469312,167377.0
63016.68635366067,167334.0
63016.696442628214,167393.0
63016.70653159576,167342.0
63016.71662056331,167348.0
63016.726709530856,167370.0
63016.7367984984,167400.0
63016.74688746595,167391.0
63016.7569764335,167419.0
63016.76706540104,167419.0
63016.777154368596,167452.0
63016.78724333614,167459.0
63016.797332303686,167481.0
63016.80742127124,167468.0
63016.81751023878,167483.0
63016.82759920633,167515.0
63016.83768817388,167537.0
63016.847777141425,167516.0
63016.85786610897,167505.0
63016.867955076515,167558.0
63016.87804404407,167560.0
63016.88813301161,167558.0
63016.89822197916,167546.0
63016.90831094671,167586.0
63016.918399914255,167563.0
63016.9284888818,167579.0
63016.93857784935,167609.0
63016.9486668169,167581.0
63016.95875578444,167615.0
63016.968844751995,167614.0
63016.97893371954,167626.0
63016.989022687085,167600.0
63016.99911165464,167629.0
63017.00920062218,167597.0
63017.01928958973,167552.0
63017.02937855728,167561.0
63017.039467524824,167499.0
63017.04955649237,167478.0
63017.059645459914,167441.0
63017.06973442747,167396.0
63017.07982339501,167381.0
63017.08991236256,167367.0
63017.10000133011,167363.0
63017.110090297654,167335.0
63017.1201792652,167326.0
63017.13026823275,167314.0
63017.1403572003,167284.0
63017.15044616784,167271.0
63017.160535135394,167297.0
63017.17062410294,167269.0
63017.180713070484,167232.0
63017.190802038036,167232.0
63017.20089100558,167234.0
63017.210979973126,167246.0
63017.22106894067,167204.0
63017.23115790822,167269.0
63017.24124687577,167204.0
63017.25133584331,167234.0
63017.261424810866,167221.0
63017.27151377841,167208.0
63017.281602745956,167183.0
63017.29169171351,167230.0
63017.30178068105,167149.0
63017.3118696486,167134.0
63017.32195861615,167158.0
63017.332047583695,167101.0
63017.34213655124,167112.0
63017.35222551879,167076.0
63017.36231448634,167101.0
63017.37240345388,167081.0
63017.382492421435,167074.0
63017.39258138898,167067.0
63017.402670356525,167028.0
63017.41275932407,167065.0
63017.42284829162,167058.0
63017.43293725917,167040.0
63017.44302622671,167034.0
63017.453115194265,167056.0
63017.46320416181,167040.0
63017.473293129355,167004.0
63017.48338209691,166998.0
63017.49347106445,167001.0
63017.503560032,167047.0
63017.51364899955,167020.0
63017.523737967094,167063.0
63017.53382693464,167011.0
63017.54391590219,167041.0
63017.55400486974,167005.0
63017.56409383728,167041.0
63017.574182804834,167068.0
63017.58427177238,167048.0
63017.594360739924,167047.0
63017.60444970747,167047.0
63017.61453867502,167066.0
63017.624627642566,167084.0
63017.63471661011,167078.0
63017.644805577664,167055.0
63017.65489454521,167048.0
63017.664983512754,167064.0
63017.675072480306,167053.0
63017.68516144785,167085.0
63017.695250415396,167013.0
63017.70533938295,167010.0
63017.71542835049,167007.0
63017.72551731804,166963.0
63017.73560628559,166946.0
63017.745695253136,166917.0
63017.75578422068,166902.0
63017.765873188226,166860.0
63017.77596215578,166905.0
63017.78605112332,166868.0
63017.79614009087,166851.0
63017.80622905842,166858.0
63017.816318025965,166865.0
63017.82640699351,166819.0
63017.83649596106,166850.0
63017.84658492861,166864.0
63017.85667389615,166814.0
63017.866762863705,166845.0
63017.87685183125,166860.0
63017.886940798795,166841.0
63017.89702976635,166866.0
63017.90711873389,166891.0
63017.91720770144,166880.0
63017.92729666899,166878.0
63017.937385636535,166870.0
63017.94747460408,166878.0
63017.957563571625,166888.0
63017.96765253918,166850.0
63017.97774150672,166893.0
63017.98783047427,166856.0
63017.99791944182,166864.0
63018.008008409364,166892.0
63018.01809737691,166874.0
63018.02818634446,166831.0
63018.03827531201,166864.0
63018.04836427955,166889.0
63018.058453247104,166843.0
63018.06854221465,166870.0
63018.078631182194,166874.0
63018.088720149746,166867.0
63018.09880911729,166873.0
63018.108898084836,166923.0
63018.11898705239,166894.0
63018.12907601993,166911.0
63018.13916498748,166917.0
63018.14925395502,166962.0
63018.159342922576,166944.0
63018.16943189012,166939.0
63018.179520857666,166988.0
63018.18960982522,166920.0
63018.19969879276,166968.0
63018.20978776031,166971.0
63018.21987672786,166977.0
63018.229965695406,166945.0
63018.24005466295,166987.0
63018.2501436305,167000.0
63018.26023259805,166949.0
63018.27032156559,167000.0
63018.280410533145,167003.0
63018.29049950069,166993.0
63018.300588468235,167015.0
63018.31067743578,166968.0
63018.32076640333,167020.0
63018.33085537088,166973.0
63018.34094433842,166990.0
63018.351033305975,166959.0
63018.36112227352,166921.0
63018.371211241065,166905.0
63018.38130020862,166854.0
63018.39138917616,166824.0
63018.40147814371,166858.0
63018.41156711126,166802.0
63018.421656078805,166751.0
63018.43174504635,166759.0
63018.4418340139,166733.0
63018.45192298145,166718.0
63018.46201194899,166691.0
63018.472100916544,166719.0
63018.48218988409,166671.0
63018.492278851634,166677.0
63018.50236781918,166695.0
63018.51245678673,166644.0
63018.52254575428,166631.0
63018.53263472182,166672.0
63018.542723689374,166685.0
63018.55281265692,166655.0
63018.562901624464,166652.0
63018.572990592016,166630.0
63018.58307955956,166588.0
63018.593168527106,166604.0
63018.60325749466,166591.0
63018.6133464622,166570.0
63018.62343542975,166541.0
63018.6335243973,166514.0
63018.643613364846,166489.0
63018.65370233239,166486.0
63018.66379129994,166450.0
63018.67388026749,166507.0
63018.68396923503,166477.0
63018.69405820258,166455.0
63018.70414717013,166424.0
63018.714236137675,166432.0
63018.72432510522,166386.0
63018.73441407277,166406.0
63018.74450304032,166437.0
63018.75459200786,166386.0
63018.764680975415,166427.0
63018.77476994296,166377.0
63018.784858910505,166347.0
63018.79494787806,166411.0
63018.8050368456,166404.0
63018.81512581315,166382.0
63018.8252147807,166401.0
63018.835303748245,166358.0
63018.84539271579,166305.0
63018.855481683335,166335.0
63018.86557065089,166297.0
63018.87565961843,166300.0
63018.88574858598,166294.0
63018.89583755353,166329.0
63018.905926521074,166305.0
63018.91601548862,166304.0
63018.92610445617,166297.0
63018.93619342372,166344.0
63018.94628239126,166324.0
63018.956371358814,166326.0
63018.96646032636,166361.0
63018.976549293904,166309.0
63018.98663826146,166327.0
63018.996727229,166286.0
63019.00681619655,166263.0
63019.0169051641,166288.0
63019.026994131644,166233.0
63019.03708309919,166147.0
63019.047172066734,166118.0
63019.057261034286,166036.0
63019.06735000183,165974.0
63019.077438969376,165935.0
63019.08752793693,165924.0
63019.09761690447,165957.0
63019.10770587202,166082.0
63019.11779483957,166152.0
63019.127883807116,166243.0
63019.13797277466,166346.0
63019.14806174221,166431.0
63019.15815070976,166490.0
63019.1682396773,166573.0
63019.178328644855,166490.0
63019.1884176124,166582.0
63019.198506579945,166621.0
63019.20859554749,166656.0
63019.21868451504,166787.0
63019.22877348259,166833.0
63019.23886245013,166859.0
63019.248951417685,166893.0
63019.25904038523,166938.0
63019.269129352775,166958.0
63019.27921832033,166935.0
63019.28930728787,166901.0
63019.29939625542,166852.0
63019.30948522297,166740.0
63019.319574190515,166675.0
63019.32966315806,166599.0
63019.33975212561,166568.0
63019.34984109316,166586.0
63019.3599300607,166597.0
63019.370019028254,166582.0
63019.3801079958,166572.0
63019.390196963344,166583.0
63019.40028593089,166525.0
63019.41037489844,166517.0
63019.42046386599,166500.0
63019.43055283353,166456.0
63019.440641801084,166387.0
63019.45073076863,166328.0
63019.460819736174,166288.0
63019.470908703726,166133.0
63019.48099767127,166007.0
63019.491086638816,165891.0
63019.50117560637,165829.0
63019.511264573914,165750.0
63019.52135354146,165640.0
63019.53144250901,165577.0
63019.541531476556,165538.0
63019.5516204441,165588.0
63019.56170941165,165583.0
63019.5717983792,165534.0
63019.58188734674,165551.0
63019.59197631429,165503.0
63019.60206528184,165454.0
63019.612154249386,165415.0
63019.62224321693,165444.0
63019.63233218448,165415.0
63019.64242115203,165421.0
63019.65251011957,165398.0
63019.662599087125,165432.0
63019.67268805467,165414.0
63019.682777022215,165391.0
63019.69286598977,165374.0
63019.70295495731,165387.0
63019.71304392486,165375.0
63019.72313289241,165373.0
63019.733221859955,165327.0
63019.7433108275,165269.0
63019.753399795045,165257.0
63019.7634887626,165234.0
63019.77357773014,165266.0
63019.78366669769,165266.0
63019.79375566524,165308.0
63019.803844632785,165302.0
63019.81393360033,165276.0
63019.82402256788,165244.0
63019.83411153543,165349.0
63019.84420050297,165429.0
63019.854289470524,165496.0
63019.86437843807,165597.0
63019.874467405614,165660.0
63019.88455637317,165682.0
63019.89464534071,165733.0
63019.90473430826,165736.0
63019.91482327581,165773.0
63019.924912243354,165815.0
63019.9350012109,165813.0
63019.945090178444,165878.0
63019.955179145996,165874.0
63019.96526811354,165862.0
63019.975357081086,165844.0
63019.98544604864,165842.0
63019.99553501618,165917.0
63020.00562398373,165896.0
63020.01571295128,165982.0
63020.025801918826,165989.0
63020.03589088637,166012.0
63020.04597985392,166076.0
63020.05606882147,166105.0
63020.06615778901,166127.0
63020.076246756566,166152.0
63020.08633572411,166207.0
63020.096424691656,166233.0
63020.10651365921,166509.0
63020.11660262675,166536.0
63020.1266915943,166570.0
63020.13678056184,166590.0
63020.146869529395,166588.0
63020.15695849694,166631.0
63020.167047464485,166661.0
63020.17713643204,166678.0
63020.18722539958,166746.0
63020.19731436713,166721.0
63020.20740333468,166743.0
63020.217492302225,166700.0
63020.22758126977,166724.0
63020.23767023732,166670.0
63020.24775920487,166658.0
63020.25784817241,166619.0
63020.267937139964,166577.0
63020.27802610751,166557.0
63020.288115075055,166565.0
63020.2982040426,166503.0
63020.30829301015,166486.0
63020.3183819777,166487.0
63020.32847094524,166479.0
63020.338559912794,166450.0
63020.34864888034,166462.0
63020.358737847884,166447.0
63020.36882681544,166462.0
63020.37891578298,166450.0
63020.38900475053,166486.0
63020.39909371808,166436.0
63020.409182685624,166461.0
63020.41927165317,166448.0
63020.42936062072,166437.0
63020.439449588266,166464.0
63020.44953855581,166461.0
63020.45962752336,166441.0
63020.46971649091,166438.0
63020.47980545845,166424.0
63020.489894426,166436.0
63020.49998339355,166467.0
63020.510072361096,166472.0
63020.52016132864,166472.0
63020.53025029619,166434.0
63020.54033926374,166450.0
63020.55042823128,166478.0
63020.560517198835,166421.0
63020.57060616638,166435.0
63020.580695133925,166449.0
63020.59078410148,166446.0
63020.60087306902,166443.0
63020.61096203657,166451.0
63020.62105100412,166463.0
63020.631139971665,166451.0
63020.64122893921,166487.0
63020.65131790676,166471.0
63020.66140687431,166492.0
63020.67149584185,166496.0
63020.6815848094,166518.0
63020.69167377695,166502.0
63020.701762744495,166516.0
63020.71185171204,166553.0
63020.72194067959,166548.0
63020.73202964714,166543.0
63020.74211861468,166569.0
63020.752207582234,166549.0
63020.76229654978,166583.0
63020.772385517324,166625.0
63020.78247448488,166617.0
63020.79256345242,166604.0
63020.80265241997,166591.0
63020.81274138752,166645.0
63020.822830355064,166657.0
63020.83291932261,166651.0
63020.843008290154,166647.0
63020.85309725771,166664.0
63020.86318622525,166643.0
63020.8732751928,166614.0
63020.88336416035,166631.0
63020.893453127894,166553.0
63020.90354209544,166550.0
63020.91363106299,166523.0
63020.923720030536,166486.0
63020.93380899808,166456.0
63020.94389796563,166425.0
63020.95398693318,166370.0
63020.96407590072,166348.0
63020.974164868276,166369.0
63020.98425383582,166316.0
63020.994342803366,166294.0
63021.00443177092,166309.0
63021.01452073846,166294.0
63021.02460970601,166269.0
63021.03469867355,166268.0
63021.044787641105,166279.0
63021.05487660865,166254.0
63021.064965576195,166265.0
63021.07505454375,166248.0
63021.08514351129,166221.0
63021.09523247884,166232.0
63021.10532144639,166210.0
63021.115410413935,166226.0
63021.12549938148,166217.0
63021.13558834903,166225.0
63021.14567731658,166228.0
63021.15576628412,166223.0
63021.165855251675,166194.0
63021.17594421922,166243.0
63021.186033186765,166171.0
63021.19612215432,166204.0
63021.20621112186,166223.0
63021.21630008941,166186.0
63021.22638905695,166198.0
63021.236478024504,166165.0
63021.24656699205,166186.0
63021.256655959594,166129.0
63021.26674492715,166181.0
63021.27683389469,166165.0
63021.28692286224,166149.0
63021.29701182979,166153.0
63021.307100797334,166125.0
63021.31718976488,166141.0
63021.32727873243,166130.0
63021.337367699976,166150.0
63021.34745666752,166145.0
63021.35754563507,166134.0
63021.36763460262,166128.0
63021.377723570164,166173.0
63021.38781253771,166160.0
63021.39790150526,166188.0
63021.407990472806,166192.0
63021.41807944035,166163.0
63021.4281684079,166207.0
63021.43825737545,166199.0
63021.44834634299,166238.0
63021.458435310546,166221.0
63021.46852427809,166274.0
63021.478613245636,166284.0
63021.48870221319,166278.0
63021.49879118073,166343.0
63021.50888014828,166293.0
63021.51896911583,166341.0
63021.529058083375,166307.0
63021.53914705092,166361.0
63021.54923601847,166321.0
63021.55932498602,166298.0
63021.56941395356,166266.0
63021.57950292111,166233.0
63021.58959188866,166215.0
63021.599680856205,166198.0
63021.60976982375,166154.0
63021.6198587913,166145.0
63021.62994775885,166136.0
63021.64003672639,166054.0
63021.650125693945,166058.0
63021.66021466149,166015.0
63021.670303629035,166044.0
63021.68039259659,166034.0
63021.69048156413,166035.0
63021.70057053168,166023.0
63021.71065949923,166011.0
63021.720748466774,165999.0
63021.73083743432,166015.0
63021.74092640187,166037.0
63021.75101536942,165976.0
63021.76110433696,166016.0
63021.77119330451,165988.0
63021.78128227206,165978.0
63021.791371239604,165975.0
63021.80146020715,166016.0
63021.8115491747,166027.0
63021.821638142246,166041.0
63021.83172710979,166059.0
63021.84181607734,166000.0
63021.85190504489,166019.0
63021.86199401243,166003.0
63021.872082979986,166013.0
63021.88217194753,166042.0
63021.892260915076,166020.0
63021.90234988263,165980.0
63021.91243885017,165961.0
63021.92252781772,166003.0
63021.93261678526,165979.0
63021.942705752816,165987.0
63021.95279472036,165966.0
63021.962883687906,165989.0
63021.97297265546,165972.0
63021.983061623,165944.0
63021.99315059055,165931.0
63022.0032395581,165922.0
63022.013328525645,165912.0
63022.02341749319,165947.0
63022.03350646074,165879.0
63022.04359542829,165846.0
63022.05368439583,165880.0
63022.063773363385,165871.0
63022.07386233093,165940.0
63022.083951298475,165966.0
63022.09404026603,165995.0
63022.10412923357,165998.0
63022.11421820112,166023.0
63022.12430716866,166050.0
63022.134396136214,166085.0
63022.14448510376,166089.0
63022.154574071305,166091.0
63022.16466303886,166067.0
63022.1747520064,166056.0
63022.18484097395,166091.0
63022.1949299415,166122.0
63022.205018909044,166124.0
63022.21510787659,166181.0
63022.22519684414,166192.0
63022.23528581169,166206.0
63022.24537477923,166248.0
63022.255463746784,166296.0
63022.26555271433,166316.0
63022.275641681874,166291.0
63022.285730649426,166298.0
63022.29581961697,166302.0
63022.305908584516,166288.0
63022.31599755206,166336.0
63022.32608651961,166297.0
63022.33617548716,166309.0
63022.3462644547,166340.0
63022.356353422256,166315.0
63022.3664423898,166317.0
63022.376531357346,166280.0
63022.3866203249,166319.0
63022.39670929244,166304.0
63022.40679825999,166370.0
63022.41688722754,166413.0
63022.426976195085,166397.0
63022.43706516263,166450.0
63022.44715413018,166470.0
63022.45724309773,166557.0
63022.46733206527,166560.0
63022.47742103282,166584.0
63022.48751000037,166617.0
63022.497598967915,166612.0
63022.50768793546,166630.0
63022.51777690301,166653.0
63022.52786587056,166643.0
63022.5379548381,166660.0
63022.548043805655,166734.0
63022.5581327732,166785.0
63022.568221740745,166701.0
63022.5783107083,166688.0
63022.58839967584,166732.0
63022.59848864339,166742.0
63022.60857761094,166777.0
63022.618666578484,166788.0
63022.62875554603,166775.0
63022.63884451358,166804.0
63022.64893348113,166810.0
63022.65902244867,166781.0
63022.66911141622,166787.0
63022.67920038377,166839.0
63022.689289351314,166881.0
63022.69937831886,166880.0
63022.70946728641,166930.0
63022.71955625396,166931.0
63022.7296452215,166978.0
63022.739734189054,167011.0
63022.7498231566,167086.0
63022.759912124144,167126.0
63022.770001091696,167139.0
63022.78009005924,167167.0
63022.790179026786,167206.0
63022.80026799434,167173.0
63022.81035696188,167183.0
63022.82044592943,167179.0
63022.83053489697,167179.0
63022.840623864526,167191.0
63022.85071283207,167256.0
63022.860801799616,167267.0
63022.87089076717,167343.0
63022.88097973471,167398.0
63022.89106870226,167415.0
63022.90115766981,167385.0
63022.911246637355,167395.0
63022.9213356049,167337.0
63022.93142457245,167331.0
63022.94151354,167314.0
63022.95160250754,167251.0
63022.961691475095,167241.0
63022.97178044264,167175.0
63022.981869410185,167108.0
63022.99195837774,167119.0
63023.00204734528,167078.0
63023.01213631283,167088.0
63023.02222528037,167086.0
63023.032314247925,167056.0
63023.04240321547,167077.0
63023.052492183015,167055.0
63023.06258115057,166965.0
63023.07267011811,166907.0
63023.08275908566,166839.0
63023.09284805321,166716.0
63023.102937020754,166617.0
63023.1130259883,166523.0
63023.12311495585,166402.0
63023.1332039234,166312.0
63023.14329289094,166254.0
63023.153381858494,166183.0
63023.16347082604,166116.0
63023.173559793584,166063.0
63023.183648761136,166029.0
63023.19373772868,166050.0
63023.203826696226,165975.0
63023.21391566377,165989.0
63023.22400463132,165890.0
63023.23409359887,165859.0
63023.244182566414,165836.0
63023.254271533966,165803.0
63023.26436050151,165782.0
63023.274449469056,165720.0
63023.28453843661,165663.0
63023.29462740415,165598.0
63023.3047163717,165495.0
63023.31480533925,165446.0
63023.324894306796,165341.0
63023.33498327434,165303.0
63023.34507224189,165206.0
63023.35516120944,165223.0
63023.36525017698,165122.0
63023.37533914453,165140.0
63023.38542811208,165127.0
63023.395517079625,165128.0
63023.40560604717,165091.0
63023.41569501472,165118.0
63023.42578398227,165082.0
63023.43587294981,165030.0
63023.445961917365,165017.0
63023.45605088491,164996.0
63023.466139852455,164958.0
63023.47622882001,164890.0
63023.48631778755,164858.0
63023.4964067551,164729.0
63023.50649572265,164648.0
63023.516584690195,164643.0
63023.52667365774,164577.0
63023.53676262529,164499.0
63023.54685159284,164441.0
63023.55694056038,164375.0
63023.56702952793,164313.0
63023.57711849548,164302.0
63023.587207463024,164265.0
63023.59729643057,164109.0
63023.60738539812,164051.0
63023.61747436567,163944.0
63023.62756333321,163848.0
63023.637652300764,163813.0
63023.64774126831,163688.0
63023.657830235854,163616.0
63023.667919203406,163552.0
63023.67800817095,163568.0
63023.688097138496,163538.0
63023.69818610605,163593.0
63023.70827507359,163617.0
63023.71836404114,163662.0
63023.72845300869,163629.0
63023.738541976236,163609.0
63023.74863094378,163574.0
63023.758719911326,163537.0
63023.76880887888,163473.0
63023.77889784642,163470.0
63023.78898681397,163443.0
63023.79907578152,163410.0
63023.809164749066,163430.0
63023.81925371661,163389.0
63023.82934268416,163430.0
63023.83943165171,163470.0
63023.84952061925,163512.0
63023.859609586805,163505.0
63023.86969855435,163521.0
63023.879787521895,163506.0
63023.88987648945,163475.0
63023.89996545699,163432.0
63023.91005442454,163482.0
63023.92014339208,163453.0
63023.930232359635,163471.0
63023.94032132718,163469.0
63023.950410294725,163491.0
63023.96049926228,163553.0
63023.97058822982,163682.0
63023.98067719737,163777.0
63023.99076616492,163828.0
63024.000855132464,163842.0
63024.01094410001,163841.0
63024.02103306756,163816.0
63024.03112203511,163821.0
63024.04121100265,163830.0
63024.051299970204,163806.0
63024.06138893775,163831.0
63024.071477905294,163849.0
63024.08156687285,163848.0
63024.09165584039,163924.0
63024.10174480794,164031.0
63024.11183377548,164185.0
63024.121922743034,164350.0
63024.13201171058,164489.0
63024.142100678124,164528.0
63024.152189645676,164515.0
63024.16227861322,164469.0
63024.172367580766,164418.0
63024.18245654832,164316.0
63024.19254551586,164283.0
63024.20263448341,164252.0
63024.21272345096,164188.0
63024.222812418506,164119.0
63024.23290138605,164025.0
63024.2429903536,163954.0
63024.25307932115,163842.0
63024.26316828869,163783.0
63024.273257256245,163757.0
63024.28334622379,163711.0
63024.293435191335,163729.0
63024.30352415888,163696.0
63024.31361312643,163707.0
63024.32370209398,163790.0
63024.33379106152,163860.0
63024.343880029075,163866.0
63024.35396899662,163927.0
63024.364057964165,164001.0
63024.37414693172,164079.0
63024.38423589926,164105.0
63024.39432486681,164191.0
63024.40441383436,164207.0
63024.414502801905,164226.0
63024.42459176945,164337.0
63024.434680737,164355.0
63024.44476970455,164423.0
63024.45485867209,164457.0
63024.46494763964,164543.0
63024.47503660719,164547.0
63024.485125574734,164629.0
63024.49521454228,164665.0
63024.50530350983,164704.0
63024.51539247738,164753.0
63024.52548144492,164788.0
63024.535570412474,164823.0
63024.54565938002,164806.0
63024.555748347564,164874.0
63024.56583731512,164845.0
63024.57592628266,164866.0
63024.58601525021,164854.0
63024.59610421776,164849.0
63024.606193185304,164816.0
63024.61628215285,164758.0
63024.6263711204,164791.0
63024.636460087946,164734.0
63024.64654905549,164737.0
63024.656638023036,164728.0
63024.66672699059,164690.0
63024.67681595813,164679.0
63024.68690492568,164684.0
63024.69699389323,164656.0
63024.707082860776,164619.0
63024.71717182832,164602.0
63024.72726079587,164555.0
63024.73734976342,164473.0
63024.74743873096,164432.0
63024.757527698515,164377.0
63024.76761666606,164352.0
63024.777705633605,164322.0
63024.78779460116,164293.0
63024.7978835687,164144.0
63024.80797253625,164075.0
63024.8180615038,163974.0
63024.828150471345,163945.0
63024.83823943889,163874.0
63024.848328406435,163807.0
63024.85841737399,163781.0
63024.86850634153,163687.0
63024.87859530908,163666.0
63024.88868427663,163617.0
63024.898773244175,163535.0
63024.90886221172,163478.0
63024.91895117927,163454.0
63024.92904014682,163380.0
63024.93912911436,163299.0
63024.949218081914,163206.0
63024.95930704946,163119.0
63024.969396017004,163072.0
63024.97948498456,163041.0
63024.9895739521,163000.0
63024.99966291965,162958.0
63025.00975188719,162907.0
63025.019840854744,162903.0
63025.02992982229,162888.0
63025.040018789834,162826.0
63025.050107757386,162755.0
63025.06019672493,162624.0
63025.070285692476,162557.0
63025.08037466003,162487.0
63025.09046362757,162406.0
63025.10055259512,162337.0
63025.11064156267,162222.0
63025.120730530216,162029.0
63025.13081949776,161740.0
63025.14090846531,161467.0
63025.15099743286,161191.0
63025.1610864004,160999.0
63025.171175367956,160905.0
63025.1812643355,160795.0
63025.191353303046,160699.0
63025.20144227059,160622.0
63025.21153123814,160614.0
63025.22162020569,160669.0
63025.23170917323,160718.0
63025.241798140785,160775.0
63025.25188710833,160862.0
63025.261976075875,160928.0
63025.27206504343,161064.0
63025.28215401097,161099.0
63025.29224297852,161176.0
63025.30233194607,161266.0
63025.312420913615,161339.0
63025.32250988116,161325.0
63025.33259884871,161139.0
63025.34268781626,161079.0
63025.3527767838,161084.0
63025.36286575135,161028.0
63025.3729547189,161009.0
63025.383043686445,160963.0
63025.39313265399,160922.0
63025.40322162154,160968.0
63025.41331058909,161012.0
63025.42339955663,161056.0
63025.433488524184,161134.0
63025.44357749173,161204.0
63025.453666459274,161291.0
63025.46375542683,161421.0
63025.47384439437,161513.0
63025.48393336192,161620.0
63025.49402232947,161738.0
63025.504111297014,161892.0
63025.51420026456,162003.0
63025.52428923211,162124.0
63025.534378199656,162227.0
63025.5444671672,162366.0
63025.554556134746,162454.0
63025.5646451023,162570.0
63025.57473406984,162655.0
63025.58482303739,162760.0
63025.59491200494,162896.0
63025.605000972486,163016.0
63025.61508994003,163134.0
63025.62517890758,163214.0
63025.63526787513,163328.0
63025.64535684267,163419.0
63025.655445810226,163487.0
63025.66553477777,163577.0
63025.675623745316,163639.0
63025.68571271287,163719.0
63025.69580168041,163764.0
63025.70589064796,163841.0
63025.71597961551,163892.0
63025.726068583055,163930.0
63025.7361575506,163947.0
63025.746246518145,164033.0
63025.7563354857,164075.0
63025.76642445324,164088.0
63025.77651342079,164100.0
63025.78660238834,164142.0
63025.796691355885,164225.0
63025.80678032343,164256.0
63025.81686929098,164259.0
63025.82695825853,164289.0
63025.83704722607,164358.0
63025.847136193624,164365.0
63025.85722516117,164449.0
63025.867314128714,164469.0
63025.87740309627,164492.0
63025.88749206381,164518.0
63025.89758103136,164577.0
63025.9076699989,164556.0
63025.917758966454,164596.0
63025.927847934,164612.0
63025.937936901544,164629.0
63025.9480258691,164673.0
63025.95811483664,164697.0
63025.96820380419,164682.0
63025.97829277174,164679.0
63025.988381739284,164701.0
63025.99847070683,164659.0
63026.00855967438,164665.0
63026.018648641926,164646.0
63026.02873760947,164655.0
63026.03882657702,164579.0
63026.04891554457,164611.0
63026.05900451211,164591.0
63026.069093479666,164609.0
63026.07918244721,164597.0
63026.089271414756,164587.0
63026.0993603823,164610.0
63026.10944934985,164636.0
63026.1195383174,164597.0
63026.12962728494,164612.0
63026.139716252495,164631.0
63026.14980522004,164660.0
63026.159894187585,164611.0
63026.16998315514,164684.0
63026.18007212268,164639.0
63026.19016109023,164666.0
63026.20025005778,164713.0
63026.210339025325,164713.0
63026.22042799287,164752.0
63026.23051696042,164755.0
63026.24060592797,164727.0
63026.25069489551,164756.0
63026.260783863065,164747.0
63026.27087283061,164783.0
63026.280961798155,164791.0
63026.2910507657,164787.0
63026.30113973325,164805.0
63026.3112287008,164819.0
63026.32131766834,164796.0
63026.331406635894,164831.0
63026.34149560344,164807.0
63026.351584570984,164824.0
63026.36167353854,164848.0
63026.37176250608,164876.0
63026.38185147363,164863.0
63026.39194044118,164884.0
63026.402029408724,164925.0
63026.41211837627,164943.0
63026.42220734382,164955.0
63026.43229631137,164967.0
63026.44238527891,164978.0
63026.45247424646,165005.0
63026.46256321401,165012.0
63026.472652181554,165039.0
63026.4827411491,165074.0
63026.49283011665,165075.0
63026.502919084196,165078.0
63026.51300805174,165132.0
63026.52309701929,165139.0
63026.53318598684,165112.0
63026.54327495438,165148.0
63026.553363921936,165186.0
63026.56345288948,165199.0
63026.573541857026,165211.0
63026.58363082458,165238.0
63026.59371979212,165227.0
63026.60380875967,165267.0
63026.61389772722,165277.0
63026.623986694765,165249.0
63026.63407566231,165236.0
63026.644164629855,165240.0
63026.65425359741,165199.0
63026.66434256495,165218.0
63026.6744315325,165214.0
63026.68452050005,165192.0
63026.694609467595,165198.0
63026.70469843514,165158.0
63026.71478740269,165151.0
63026.72487637024,165187.0
63026.73496533778,165192.0
63026.745054305335,165164.0
63026.75514327288,165210.0
63026.765232240425,165190.0
63026.77532120798,165166.0
63026.78541017552,165183.0
63026.79549914307,165159.0
63026.80558811062,165222.0
63026.815677078164,165232.0
63026.82576604571,165219.0
63026.835855013254,165184.0
63026.84594398081,165234.0
63026.85603294835,165222.0
63026.8661219159,165255.0
63026.87621088345,165299.0
63026.886299850994,165252.0
63026.89638881854,165279.0
63026.90647778609,165271.0
63026.916566753636,165261.0
63026.92665572118,165253.0
63026.93674468873,165253.0
63026.94683365628,165284.0
63026.95692262382,165267.0
63026.967011591376,165302.0
63026.97710055892,165267.0
63026.987189526466,165284.0
63026.99727849401,165292.0
63027.00736746156,165290.0
63027.01745642911,165339.0
63027.02754539665,165316.0
63027.037634364206,165298.0
63027.04772333175,165293.0
63027.057812299296,165318.0
63027.06790126685,165314.0
63027.07799023439,165348.0
63027.08807920194,165341.0
63027.09816816949,165371.0
63027.108257137035,165338.0
63027.11834610458,165364.0
63027.12843507213,165346.0
63027.13852403968,165376.0
63027.14861300722,165408.0
63027.158701974775,165418.0
63027.16879094232,165424.0
63027.178879909865,165413.0
63027.18896887741,165456.0
63027.19905784496,165455.0
63027.20914681251,165466.0
63027.21923578005,165471.0
63027.229324747605,165452.0
63027.23941371515,165431.0
63027.249502682695,165424.0
63027.25959165025,165454.0
63027.26968061779,165377.0
63027.27976958534,165378.0
63027.28985855289,165370.0
63027.299947520434,165323.0
63027.31003648798,165312.0
63027.32012545553,165287.0
63027.33021442308,165304.0
63027.34030339062,165286.0
63027.350392358174,165292.0
63027.36048132572,165264.0
63027.370570293264,165217.0
63027.38065926081,165254.0
63027.39074822836,165280.0
63027.400837195906,165245.0
63027.41092616345,165260.0
63027.421015131,165285.0
63027.43110409855,165270.0
63027.44119306609,165287.0
63027.451282033646,165293.0
63027.46137100119,165275.0
63027.471459968736,165259.0
63027.48154893629,165306.0
63027.49163790383,165319.0
63027.50172687138,165285.0
63027.51181583893,165304.0
63027.521904806476,165302.0
63027.53199377402,165321.0
63027.542082741566,165295.0
63027.55217170912,165325.0
63027.56226067666,165312.0
63027.57234964421,165292.0
63027.58243861176,165319.0
63027.592527579305,165313.0
63027.60261654685,165303.0
63027.6127055144,165305.0
63027.62279448195,165265.0
63027.63288344949,165292.0
63027.642972417045,165336.0
63027.65306138459,165312.0
63027.663150352135,165298.0
63027.67323931969,165338.0
63027.68332828723,165355.0
63027.69341725478,165336.0
63027.70350622233,165313.0
63027.713595189874,165387.0
63027.72368415742,165368.0
63027.733773124965,165371.0
63027.74386209252,165356.0
63027.75395106006,165371.0
63027.76404002761,165419.0
63027.77412899516,165417.0
63027.784217962704,165449.0
63027.79430693025,165404.0
63027.8043958978,165429.0
63027.81448486535,165437.0
63027.82457383289,165449.0
63027.834662800444,165416.0
63027.84475176799,165430.0
63027.854840735534,165428.0
63027.864929703086,165378.0
63027.87501867063,165395.0
63027.885107638176,165367.0
63027.89519660573,165314.0
63027.90528557327,165271.0
63027.91537454082,165270.0
63027.92546350836,165215.0
63027.935552475916,165209.0
63027.94564144346,165163.0
63027.955730411006,165139.0
63027.96581937856,165151.0
63027.9759083461,165160.0
63027.98599731365,165113.0
63027.9960862812,165114.0
63028.006175248745,165138.0
63028.01626421629,165117.0
63028.02635318384,165112.0
63028.03644215139,165116.0
63028.04653111893,165136.0
63028.056620086485,165130.0
63028.06670905403,165125.0
63028.076798021575,165124.0
63028.08688698912,165134.0
63028.09697595667,165148.0
63028.10706492422,165115.0
63028.11715389176,165166.0
63028.127242859315,165141.0
63028.13733182686,165136.0
63028.147420794405,165133.0
63028.15750976196,165131.0
63028.1675987295,165149.0
63028.17768769705,165134.0
63028.1877766646,165121.0
63028.197865632144,165119.0
63028.20795459969,165152.0
63028.21804356724,165100.0
63028.22813253479,165117.0
63028.23822150233,165145.0
63028.248310469884,165093.0
63028.25839943743,165148.0
63028.268488404974,165137.0
63028.27857737252,165122.0
63028.28866634007,165145.0
63028.29875530762,165133.0
63028.30884427516,165144.0
63028.318933242714,165157.0
63028.32902221026,165150.0
63028.339111177804,165204.0
63028.349200145356,165189.0
63028.3592891129,165199.0
63028.369378080446,165208.0
63028.379467048,165210.0
63028.38955601554,165225.0
63028.39964498309,165224.0
63028.40973395064,165242.0
63028.419822918186,165231.0
63028.42991188573,165261.0
63028.44000085328,165271.0
63028.45008982083,165240.0
63028.46017878837,165288.0
63028.47026775592,165282.0
63028.48035672347,165238.0
63028.490445691015,165250.0
63028.50053465856,165256.0
63028.51062362611,165211.0
63028.52071259366,165172.0
63028.5308015612,165157.0
63028.540890528755,165125.0
63028.5509794963,165080.0
63028.561068463845,165034.0
63028.5711574314,165008.0
63028.58124639894,164976.0
63028.59133536649,164958.0
63028.60142433404,164961.0
63028.611513301585,164935.0
63028.62160226913,164936.0
63028.631691236675,164920.0
63028.64178020423,164919.0
63028.65186917177,164871.0
63028.66195813932,164882.0
63028.67204710687,164883.0
63028.682136074414,164868.0
63028.69222504196,164903.0
63028.70231400951,164876.0
63028.71240297706,164825.0
63028.7224919446,164846.0
63028.732580912154,164875.0
63028.7426698797,164865.0
63028.752758847244,164857.0
63028.762847814796,164856.0
63028.77293678234,164840.0
63028.783025749886,164883.0
63028.79311471744,164859.0
63028.80320368498,164834.0
63028.81329265253,164827.0
63028.82338162007,164815.0
63028.833470587626,164782.0
63028.84355955517,164783.0
63028.853648522716,164787.0
63028.86373749027,164832.0
63028.87382645781,164790.0
63028.88391542536,164809.0
63028.89400439291,164832.0
63028.904093360456,164826.0
63028.914182328,164800.0
63028.92427129555,164830.0
63028.9343602631,164857.0
63028.94444923064,164831.0
63028.954538198195,164893.0
63028.96462716574,164864.0
63028.974716133285,164864.0
63028.98480510083,164869.0
63028.99489406838,164859.0
63029.00498303593,164890.0
63029.01507200347,164873.0
63029.025160971025,164904.0
63029.03524993857,164889.0
63029.045338906115,164914.0
63029.05542787367,164921.0
63029.06551684121,164976.0
63029.07560580876,164928.0
63029.08569477631,164951.0
63029.095783743855,164929.0
63029.1058727114,164942.0
63029.11596167895,164965.0
63029.1260506465,164977.0
63029.13613961404,164989.0
63029.146228581594,164974.0
63029.15631754914,165003.0
63029.166406516684,164983.0
63029.17649548423,164992.0
63029.18658445178,164963.0
63029.19667341933,164893.0
63029.20676238687,164900.0
63029.216851354424,164849.0
63029.22694032197,164841.0
63029.237029289514,164774.0
63029.247118257066,164754.0
63029.25720722461,164746.0
63029.267296192156,164738.0
63029.27738515971,164673.0
63029.28747412725,164678.0
63029.2975630948,164649.0
63029.30765206235,164641.0
63029.317741029896,164700.0
63029.32782999744,164685.0
63029.33791896499,164659.0
63029.34800793254,164626.0
63029.35809690008,164704.0
63029.36818586763,164662.0
63029.37827483518,164652.0
63029.388363802726,164656.0
63029.39845277027,164663.0
63029.40854173782,164656.0
63029.41863070537,164679.0
63029.42871967291,164693.0
63029.438808640465,164675.0
63029.44889760801,164678.0
63029.458986575555,164674.0
63029.46907554311,164688.0
63029.47916451065,164676.0
63029.4892534782,164629.0
63029.49934244575,164652.0
63029.509431413295,164646.0
63029.51952038084,164651.0
63029.529609348385,164604.0
63029.53969831594,164641.0
63029.54978728348,164633.0
63029.55987625103,164666.0
63029.56996521858,164640.0
63029.580054186124,164649.0
63029.59014315367,164635.0
63029.60023212122,164684.0
63029.61032108877,164634.0
63029.62041005631,164679.0
63029.630499023864,164685.0
63029.64058799141,164695.0
63029.650676958954,164713.0
63029.66076592651,164707.0
63029.67085489405,164708.0
63029.6809438616,164731.0
63029.69103282915,164710.0
63029.701121796694,164738.0
63029.71121076424,164763.0
63029.721299731784,164765.0
63029.731388699336,164750.0
63029.74147766688,164774.0
63029.751566634426,164777.0
63029.76165560198,164769.0
63029.77174456952,164787.0
63029.78183353707,164813.0
63029.79192250462,164811.0
63029.802011472166,164830.0
63029.81210043971,164787.0
63029.82218940726,164844.0
63029.83227837481,164836.0
63029.84236734235,164814.0
63029.852456309905,164860.0
63029.86254527745,164841.0
63029.872634244995,164862.0
63029.88272321255,164830.0
63029.89281218009,164887.0
63029.90290114764,164843.0
63029.91299011518,164864.0
63029.923079082735,164811.0
63029.93316805028,164757.0
63029.943257017825,164731.0
63029.95334598538,164735.0
63029.96343495292,164683.0
63029.97352392047,164667.0
63029.98361288802,164603.0
63029.993701855565,164628.0
63030.00379082311,164575.0
63030.01387979066,164562.0
63030.02396875821,164576.0
63030.03405772575,164575.0
63030.044146693304,164586.0
63030.05423566085,164584.0
63030.064324628394,164536.0
63030.07441359594,164579.0
63030.08450256349,164565.0
63030.09459153104,164587.0
63030.10468049858,164569.0
63030.114769466134,164610.0
63030.12485843368,164608.0
63030.134947401224,164588.0
63030.145036368776,164605.0
63030.15512533632,164620.0
63030.16521430387,164619.0
63030.17530327142,164646.0
63030.185392238964,164655.0
63030.19548120651,164622.0
63030.20557017406,164634.0
63030.215659141606,164605.0
63030.22574810915,164578.0
63030.2358370767,164616.0
63030.24592604425,164610.0
63030.25601501179,164603.0
63030.26610397934,164610.0
63030.27619294689,164617.0
63030.286281914436,164610.0
63030.29637088198,164641.0
63030.30645984953,164643.0
63030.31654881708,164613.0
63030.32663778462,164617.0
63030.336726752175,164646.0
63030.34681571972,164633.0
63030.356904687265,164629.0
63030.36699365482,164671.0
63030.37708262236,164694.0
63030.38717158991,164701.0
63030.39726055746,164727.0
63030.407349525005,164706.0
63030.41743849255,164740.0
63030.4275274601,164713.0
63030.43761642765,164751.0
63030.44770539519,164733.0
63030.45779436274,164739.0
63030.46788333029,164765.0
63030.477972297835,164793.0
63030.48806126538,164787.0
63030.49815023293,164767.0
63030.50823920048,164833.0
63030.51832816802,164769.0
63030.528417135574,164817.0
63030.53850610312,164829.0
63030.548595070664,164845.0
63030.55868403822,164799.0
63030.56877300576,164855.0
63030.57886197331,164880.0
63030.58895094086,164829.0
63030.599039908404,164870.0
63030.60912887595,164880.0
63030.619217843494,164866.0
63030.629306811046,164876.0
63030.63939577859,164907.0
63030.649484746136,164901.0
63030.65957371369,164881.0
63030.66966268123,164921.0
63030.67975164878,164894.0
63030.68984061633,164866.0
63030.699929583876,164817.0
63030.71001855142,164791.0
63030.72010751897,164751.0
63030.73019648652,164730.0
63030.74028545406,164713.0
63030.750374421616,164672.0
63030.76046338916,164652.0
63030.770552356706,164629.0
63030.78064132426,164630.0
63030.7907302918,164574.0
63030.80081925935,164590.0
63030.81090822689,164589.0
63030.820997194445,164588.0
63030.83108616199,164587.0
63030.841175129535,164613.0
63030.85126409709,164566.0
63030.86135306463,164565.0
63030.87144203218,164627.0
63030.88153099973,164609.0
63030.891619967275,164618.0
63030.90170893482,164627.0
63030.91179790237,164626.0
63030.92188686992,164649.0
63030.93197583746,164671.0
63030.942064805015,164653.0
63030.95215377256,164610.0
63030.962242740105,164633.0
63030.97233170766,164620.0
63030.9824206752,164592.0
63030.99250964275,164593.0
63031.00259861029,164583.0
63031.012687577844,164603.0
63031.02277654539,164621.0
63031.032865512934,164609.0
63031.04295448049,164632.0
63031.05304344803,164589.0
63031.06313241558,164628.0
63031.07322138313,164615.0
63031.083310350674,164614.0
63031.09339931822,164618.0
63031.10348828577,164648.0
63031.113577253316,164641.0
63031.12366622086,164613.0
63031.13375518841,164648.0
63031.14384415596,164680.0
63031.1539331235,164672.0
63031.16402209105,164678.0
63031.1741110586,164698.0
63031.184200026146,164723.0
63031.19428899369,164719.0
63031.20437796124,164770.0
63031.21446692879,164758.0
63031.22455589633,164773.0
63031.234644863885,164785.0
63031.24473383143,164742.0
63031.254822798976,164760.0
63031.26491176653,164800.0
63031.27500073407,164842.0
63031.28508970162,164834.0
63031.29517866917,164820.0
63031.305267636715,164839.0
63031.31535660426,164829.0
63031.32544557181,164831.0
63031.33553453936,164855.0
63031.3456235069,164869.0
63031.35571247445,164888.0
63031.365801442,164882.0
63031.375890409545,164860.0
63031.38597937709,164868.0
63031.39606834464,164877.0
63031.40615731219,164942.0
63031.41624627973,164916.0
63031.426335247284,164927.0
63031.43642421483,164940.0
63031.446513182374,164934.0
63031.45660214993,164950.0
63031.46669111747,164897.0
63031.47678008502,164891.0
63031.48686905257,164871.0
63031.496958020114,164843.0
63031.50704698766,164772.0
63031.51713595521,164757.0
63031.52722492276,164758.0
63031.5373138903,164682.0
63031.54740285785,164698.0
63031.5574918254,164681.0
63031.567580792944,164624.0
63031.57766976049,164629.0
63031.58775872804,164644.0
63031.597847695586,164636.0
63031.60793666313,164632.0
63031.61802563068,164643.0
63031.62811459823,164616.0
63031.63820356577,164628.0
63031.648292533326,164631.0
63031.65838150087,164665.0
63031.668470468416,164643.0
63031.67855943597,164679.0
63031.68864840351,164674.0
63031.69873737106,164685.0
63031.7088263386,164665.0
63031.718915306155,164687.0
63031.7290042737,164712.0
63031.739093241245,164682.0
63031.7491822088,164660.0
63031.75927117634,164665.0
63031.76936014389,164651.0
63031.77944911144,164660.0
63031.789538078985,164686.0
63031.79962704653,164660.0
63031.80971601408,164640.0
63031.81980498163,164678.0
63031.82989394917,164638.0
63031.839982916725,164659.0
63031.85007188427,164669.0
63031.860160851815,164655.0
63031.87024981937,164687.0
63031.88033878691,164676.0
63031.89042775446,164722.0
63031.900516722,164671.0
63031.910605689554,164701.0
63031.9206946571,164717.0
63031.930783624644,164707.0
63031.9408725922,164715.0
63031.95096155974,164716.0
63031.96105052729,164763.0
63031.97113949484,164738.0
63031.981228462384,164817.0
63031.99131742993,164762.0
63032.00140639748,164781.0
63032.011495365026,164820.0
63032.02158433257,164844.0
63032.031673300124,164817.0
63032.04176226767,164849.0
63032.051851235214,164823.0
63032.061940202766,164832.0
63032.07202917031,164886.0
63032.082118137856,164894.0
63032.0922071054,164895.0
63032.10229607295,164890.0
63032.1123850405,164933.0
63032.12247400804,164925.0
63032.132562975596,164912.0
63032.14265194314,164918.0
63032.152740910686,164917.0
63032.16282987824,164901.0
63032.17291884578,164942.0
63032.18300781333,164956.0
63032.19309678088,164932.0
63032.203185748425,164943.0
63032.21327471597,164981.0
63032.22336368352,164969.0
63032.23345265107,164960.0
63032.24354161861,165014.0
63032.25363058616,165000.0
63032.26371955371,165009.0
63032.273808521255,164979.0
63032.2838974888,164913.0
63032.29398645635,164914.0
63032.3040754239,164863.0
63032.31416439144,164877.0
63032.324253358995,164776.0
63032.33434232654,164783.0
63032.344431294085,164741.0
63032.35452026164,164716.0
63032.36460922918,164733.0
63032.37469819673,164716.0
63032.38478716428,164663.0
63032.394876131824,164699.0
63032.40496509937,164730.0
63032.41505406692,164702.0
63032.42514303447,164675.0
63032.43523200201,164683.0
63032.44532096956,164716.0
63032.45540993711,164701.0
63032.465498904654,164705.0
63032.4755878722,164739.0
63032.48567683975,164711.0
63032.495765807296,164729.0
63032.50585477484,164717.0
63032.51594374239,164768.0
63032.52603270994,164762.0
63032.53612167748,164748.0
63032.546210645036,164740.0
63032.55629961258,164733.0
63032.566388580126,164752.0
63032.57647754768,164689.0
63032.58656651522,164722.0
63032.59665548277,164727.0
63032.60674445031,164705.0
63032.616833417866,164673.0
63032.62692238541,164719.0
63032.637011352956,164726.0
63032.64710032051,164745.0
63032.65718928805,164707.0
63032.6672782556,164732.0
63032.67736722315,164717.0
63032.687456190695,164728.0
63032.69754515824,164730.0
63032.70763412579,164760.0
63032.71772309334,164761.0
63032.72781206088,164768.0
63032.737901028435,164815.0
63032.74798999598,164789.0
63032.758078963525,164799.0
63032.76816793108,164831.0
63032.77825689862,164793.0
63032.78834586617,164843.0
63032.79843483371,164891.0
63032.808523801265,164857.0
63032.81861276881,164874.0
63032.828701736355,164884.0
63032.83879070391,164851.0
63032.84887967145,164872.0
63032.858968639,164887.0
63032.86905760655,164924.0
63032.879146574094,164884.0
63032.88923554164,164940.0
63032.89932450919,164897.0
63032.90941347674,164930.0
63032.91950244428,164911.0
63032.929591411834,164946.0
63032.93968037938,164958.0
63032.949769346924,164962.0
63032.959858314476,165003.0
63032.96994728202,164960.0
63032.980036249566,164962.0
63032.99012521711,165011.0
63033.00021418466,164983.0
63033.01030315221,164993.0
63033.02039211975,164996.0
63033.030481087306,165031.0
63033.04057005485,165006.0
63033.050659022396,165056.0
63033.06074798995,165039.0
63033.07083695749,165058.0
63033.08092592504,165004.0
63033.09101489259,165052.0
63033.101103860135,164963.0
63033.11119282768,164970.0
63033.12128179523,164954.0
63033.13137076278,164890.0
63033.14145973032,164879.0
63033.15154869787,164823.0
63033.16163766542,164813.0
63033.171726632965,164753.0
63033.18181560051,164748.0
63033.19190456806,164741.0
63033.20199353561,164749.0
63033.21208250315,164736.0
63033.222171470705,164695.0
63033.23226043825,164735.0
63033.242349405795,164734.0
63033.25243837335,164771.0
63033.26252734089,164737.0
63033.27261630844,164701.0
63033.28270527599,164742.0
63033.292794243534,164743.0
63033.30288321108,164749.0
63033.31297217863,164743.0
63033.32306114618,164762.0
63033.33315011372,164770.0
63033.34323908127,164785.0
63033.35332804882,164797.0
63033.363417016364,164772.0
63033.37350598391,164787.0
63033.38359495146,164731.0
63033.39368391901,164738.0
63033.40377288655,164735.0
63033.413861854104,164742.0
63033.42395082165,164734.0
63033.434039789194,164749.0
63033.444128756746,164723.0
63033.45421772429,164729.0
63033.464306691836,164731.0
63033.47439565939,164719.0
63033.48448462693,164743.0
63033.49457359448,164724.0
63033.50466256203,164722.0
63033.514751529576,164728.0
63033.52484049712,164779.0
63033.534929464666,164775.0
63033.54501843222,164781.0
63033.55510739976,164784.0
63033.56519636731,164793.0
63033.57528533486,164803.0
63033.585374302405,164843.0
63033.59546326995,164850.0
63033.6055522375,164846.0
63033.61564120505,164848.0
63033.62573017259,164870.0
63033.635819140145,164870.0
63033.64590810769,164855.0
63033.655997075235,164877.0
63033.66608604279,164904.0
63033.67617501033,164878.0
63033.68626397788,164936.0
63033.69635294542,164906.0
63033.706441912975,164911.0
63033.71653088052,164913.0
63033.726619848065,164944.0
63033.73670881562,164933.0
63033.74679778316,164922.0
63033.75688675071,164910.0
63033.76697571826,164956.0
63033.777064685804,164961.0
63033.78715365335,164990.0
63033.7972426209,164989.0
63033.80733158845,164968.0
63033.81742055599,164991.0
63033.827509523544,165027.0
63033.83759849109,164985.0
63033.847687458634,165003.0
63033.857776426186,165019.0
63033.86786539373,165016.0
63033.877954361276,164976.0
63033.88804332882,164978.0
63033.898132296374,164948.0
63033.90822126392,164892.0
63033.918310231464,164899.0
63033.928399199016,164848.0
63033.93848816656,164822.0
63033.948577134106,164772.0
63033.95866610166,164780.0
63033.9687550692,164740.0
63033.97884403675,164729.0
63033.9889330043,164689.0
63033.999021971846,164681.0
63034.00911093939,164663.0
63034.01919990694,164685.0
63034.02928887449,164710.0
63034.03937784203,164662.0
63034.049466809585,164719.0
63034.05955577713,164707.0
63034.069644744675,164637.0
63034.07973371222,164658.0
63034.08982267977,164701.0
63034.09991164732,164701.0
63034.11000061486,164729.0
63034.120089582415,164709.0
63034.13017854996,164684.0
63034.140267517505,164715.0
63034.15035648506,164668.0
63034.1604454526,164718.0
63034.17053442015,164694.0
63034.1806233877,164694.0
63034.190712355245,164639.0
63034.20080132279,164648.0
63034.21089029034,164629.0
63034.22097925789,164652.0
63034.23106822543,164659.0
63034.24115719298,164660.0
63034.25124616053,164699.0
63034.261335128074,164634.0
63034.27142409562,164665.0
63034.28151306317,164659.0
63034.29160203072,164654.0
63034.30169099826,164679.0
63034.311779965814,164705.0
63034.32186893336,164683.0
63034.331957900904,164701.0
63034.342046868456,164696.0
63034.352135836,164729.0
63034.362224803546,164749.0
63034.3723137711,164753.0
63034.38240273864,164780.0
63034.39249170619,164768.0
63034.40258067374,164776.0
63034.412669641286,164761.0
63034.42275860883,164766.0
63034.432847576376,164809.0
63034.44293654393,164814.0
63034.45302551147,164825.0
63034.46311447902,164795.0
63034.47320344657,164831.0
63034.483292414116,164844.0
63034.49338138166,164830.0
63034.50347034921,164857.0
63034.51355931676,164851.0
63034.5236482843,164855.0
63034.533737251855,164869.0
63034.5438262194,164877.0
63034.553915186945,164878.0
63034.5640041545,164893.0
63034.57409312204,164922.0
63034.58418208959,164887.0
63034.59427105714,164878.0
63034.604360024685,164915.0
63034.61444899223,164914.0
63034.624537959775,164906.0
63034.63462692733,164915.0
63034.64471589487,164910.0
63034.65480486242,164898.0
63034.66489382997,164826.0
63034.674982797515,164807.0
63034.68507176506,164777.0
63034.69516073261,164720.0
63034.70524970016,164720.0
63034.7153386677,164666.0
63034.725427635254,164594.0
63034.7355166028,164614.0
63034.745605570344,164623.0
63034.7556945379,164562.0
63034.76578350544,164573.0
63034.77587247299,164579.0
63034.78596144053,164566.0
63034.796050408084,164594.0
63034.80613937563,164557.0
63034.816228343174,164574.0
63034.826317310726,164551.0
63034.83640627827,164596.0
63034.846495245816,164546.0
63034.85658421337,164517.0
63034.86667318091,164541.0
63034.87676214846,164559.0
63034.88685111601,164560.0
63034.896940083556,164555.0
63034.9070290511,164558.0
63034.91711801865,164541.0
63034.9272069862,164551.0
63034.93729595374,164571.0
63034.947384921295,164555.0
63034.95747388884,164511.0
63034.967562856385,164539.0
63034.97765182393,164519.0
63034.98774079148,164515.0
63034.99782975903,164543.0
63035.00791872657,164517.0
63035.018007694125,164502.0
63035.02809666167,164557.0
63035.038185629215,164542.0
63035.04827459677,164549.0
63035.05836356431,164541.0
63035.06845253186,164563.0
63035.07854149941,164567.0
63035.088630466955,164572.0
63035.0987194345,164562.0
63035.10880840205,164557.0
63035.1188973696,164578.0
63035.12898633714,164615.0
63035.13907530469,164623.0
63035.14916427224,164605.0
63035.159253239784,164641.0
63035.16934220733,164654.0
63035.17943117488,164670.0
63035.18952014243,164662.0
63035.19960910997,164701.0
63035.209698077524,164694.0
63035.21978704507,164691.0
63035.229876012614,164683.0
63035.23996498017,164692.0
63035.25005394771,164724.0
63035.26014291526,164686.0
63035.27023188281,164735.0
63035.280320850354,164727.0
63035.2904098179,164739.0
63035.30049878545,164741.0
63035.310587752996,164743.0
63035.32067672054,164737.0
63035.330765688086,164776.0
63035.34085465564,164770.0
63035.35094362318,164765.0
63035.36103259073,164803.0
63035.37112155828,164776.0
63035.381210525826,164807.0
63035.39129949337,164822.0
63035.40138846092,164846.0
63035.41147742847,164837.0
63035.42156639601,164843.0
63035.431655363565,164865.0
63035.44174433111,164852.0
63035.451833298655,164829.0
63035.46192226621,164856.0
63035.47201123375,164831.0
63035.4821002013,164768.0
63035.49218916885,164769.0
63035.502278136395,164726.0
63035.51236710394,164660.0
63035.522456071485,164625.0
63035.53254503904,164595.0
63035.54263400658,164565.0
63035.55272297413,164544.0
63035.56281194168,164533.0
63035.572900909225,164511.0
63035.58298987677,164505.0
63035.59307884432,164465.0
63035.60316781187,164517.0
63035.61325677941,164500.0
63035.623345746964,164493.0
63035.63343471451,164481.0
63035.643523682054,164494.0
63035.65361264961,164458.0
63035.66370161715,164508.0
63035.6737905847,164491.0
63035.68387955225,164456.0
63035.693968519794,164483.0
63035.70405748734,164474.0
63035.714146454884,164440.0
63035.724235422436,164475.0
63035.73432438998,164427.0
63035.744413357526,164458.0
63035.75450232508,164472.0
63035.764591292624,164488.0
63035.77468026017,164451.0
63035.78476922772,164457.0
63035.794858195266,164442.0
63035.80494716281,164423.0
63035.81503613036,164457.0
63035.82512509791,164442.0
63035.83521406545,164451.0
63035.845303033006,164476.0
63035.85539200055,164472.0
63035.865480968096,164470.0
63035.87556993564,164469.0
63035.88565890319,164472.0
63035.89574787074,164479.0
63035.90583683828,164479.0
63035.915925805835,164499.0
63035.92601477338,164537.0
63035.936103740925,164488.0
63035.94619270848,164553.0
63035.95628167602,164535.0
63035.96637064357,164548.0
63035.97645961112,164575.0
63035.986548578665,164597.0
63035.99663754621,164582.0
63036.00672651376,164579.0
63036.01681548131,164589.0
63036.02690444885,164589.0
63036.036993416405,164621.0
63036.04708238395,164663.0
63036.057171351495,164642.0
63036.06726031904,164584.0
63036.07734928659,164637.0
63036.08743825414,164651.0
63036.09752722168,164675.0
63036.107616189234,164632.0
63036.11770515678,164674.0
63036.127794124324,164704.0
63036.13788309188,164660.0
63036.14797205942,164674.0
63036.15806102697,164710.0
63036.16814999452,164716.0
63036.178238962064,164731.0
63036.18832792961,164705.0
63036.19841689716,164750.0
63036.208505864706,164743.0
63036.21859483225,164738.0
63036.228683799796,164787.0
63036.23877276735,164811.0
63036.24886173489,164764.0
63036.25895070244,164802.0
63036.26903966999,164826.0
63036.279128637536,164841.0
63036.28921760508,164824.0
63036.29930657263,164838.0
63036.30939554018,164884.0
63036.31948450772,164871.0
63036.329573475276,164878.0
63036.33966244282,164865.0
63036.349751410366,164861.0
63036.35984037792,164895.0
63036.36992934546,164843.0
63036.38001831301,164880.0
63036.39010728056,164808.0
63036.400196248105,164754.0
63036.41028521565,164754.0
63036.420374183195,164700.0
63036.43046315075,164687.0
63036.44055211829,164626.0
63036.45064108584,164605.0
63036.46073005339,164573.0
63036.470819020935,164530.0
63036.48090798848,164511.0
63036.49099695603,164535.0
63036.50108592358,164511.0
63036.51117489112,164513.0
63036.521263858675,164517.0
63036.53135282622,164518.0
63036.541441793765,164507.0
63036.55153076132,164530.0
63036.56161972886,164470.0
63036.57170869641,164517.0
63036.58179766396,164509.0
63036.591886631504,164498.0
63036.60197559905,164467.0
63036.612064566594,164485.0
63036.62215353415,164500.0
63036.63224250169,164484.0
63036.64233146924,164487.0
63036.65242043679,164496.0
63036.662509404334,164490.0
63036.67259837188,164495.0
63036.68268733943,164484.0
63036.692776306976,164472.0
63036.70286527452,164452.0
63036.71295424207,164477.0
63036.72304320962,164482.0
63036.73313217716,164447.0
63036.743221144716,164463.0
63036.75331011226,164488.0
63036.763399079806,164485.0
63036.77348804735,164478.0
63036.7835770149,164488.0
63036.79366598245,164521.0
63036.80375494999,164527.0
63036.813843917545,164524.0
63036.82393288509,164565.0
63036.834021852635,164533.0
63036.84411082019,164577.0
63036.85419978773,164565.0
63036.86428875528,164562.0
63036.87437772283,164605.0
63036.884466690375,164584.0
63036.89455565792,164607.0
63036.90464462547,164569.0
63036.91473359302,164651.0
63036.92482256056,164619.0
63036.934911528115,164636.0
63036.94500049566,164631.0
63036.955089463205,164640.0
63036.96517843075,164640.0
63036.9752673983,164669.0
63036.98535636585,164686.0
63036.99544533339,164712.0
63037.005534300944,164713.0
63037.01562326849,164711.0
63037.025712236034,164720.0
63037.03580120359,164690.0
63037.04589017113,164724.0
63037.05597913868,164740.0
63037.06606810623,164753.0
63037.076157073774,164762.0
63037.08624604132,164747.0
63037.09633500887,164757.0
63037.10642397642,164786.0
63037.11651294396,164791.0
63037.126601911514,164804.0
63037.13669087906,164851.0
63037.146779846604,164813.0
63037.15686881415,164806.0
63037.1669577817,164867.0
63037.177046749246,164855.0
63037.18713571679,164879.0
63037.19722468434,164861.0
63037.20731365189,164927.0
63037.21740261943,164900.0
63037.227491586986,164927.0
63037.23758055453,164930.0
63037.247669522076,164925.0
63037.25775848963,164981.0
63037.26784745717,164989.0
63037.27793642472,164957.0
63037.28802539227,165005.0
63037.298114359815,165022.0
63037.30820332736,164989.0
63037.318292294905,164964.0
63037.32838126246,164963.0
63037.33847023,164925.0
63037.34855919755,164868.0
63037.3586481651,164825.0
63037.368737132645,164806.0
63037.37882610019,164733.0
63037.38891506774,164734.0
63037.39900403529,164702.0
63037.40909300283,164665.0
63037.419181970385,164663.0
63037.42927093793,164654.0
63037.439359905475,164667.0
63037.44944887303,164612.0
63037.45953784057,164654.0
63037.46962680812,164648.0
63037.47971577567,164637.0
63037.489804743214,164679.0
63037.49989371076,164641.0
63037.509982678304,164630.0
63037.52007164586,164650.0
63037.5301606134,164661.0
63037.54024958095,164618.0
63037.5503385485,164669.0
63037.560427516044,164648.0
63037.57051648359,164652.0
63037.58060545114,164688.0
63037.590694418686,164682.0
63037.60078338623,164674.0
63037.61087235378,164622.0
63037.62096132133,164688.0
63037.631050288874,164649.0
63037.641139256426,164650.0
63037.65122822397,164661.0
63037.661317191516,164712.0
63037.67140615907,164782.0
63037.68149512661,164727.0
63037.69158409416,164775.0
63037.7016730617,164786.0
63037.711762029256,164823.0
63037.7218509968,164801.0
63037.731939964346,164834.0
63037.7420289319,164841.0
63037.75211789944,164846.0
63037.76220686699,164826.0
63037.77229583454,164873.0
63037.782384802085,164872.0
63037.79247376963,164887.0
63037.80256273718,164932.0
63037.81265170473,164923.0
63037.82274067227,164854.0
63037.832829639825,164924.0
63037.84291860737,164948.0
63037.853007574915,164958.0
63037.86309654246,164956.0
63037.87318551001,164970.0
63037.88327447756,164953.0
63037.8933634451,164982.0
63037.903452412655,165001.0
63037.9135413802,164985.0
63037.923630347745,165003.0
63037.9337193153,165012.0
63037.94380828284,165042.0
63037.95389725039,164991.0
63037.96398621794,165052.0
63037.974075185484,165072.0
63037.98416415303,165077.0
63037.99425312058,165087.0
63038.00434208813,165123.0
63038.01443105567,165087.0
63038.024520023224,165106.0
63038.03460899077,165150.0
63038.044697958314,165138.0
63038.05478692586,165164.0
63038.06487589341,165175.0
63038.074964860956,165169.0
63038.0850538285,165192.0
63038.09514279605,165176.0
63038.1052317636,165185.0
63038.11532073114,165132.0
63038.125409698696,165160.0
63038.13549866624,165158.0
63038.145587633786,165096.0
63038.15567660134,165038.0
63038.16576556888,165050.0
63038.17585453643,164988.0
63038.18594350398,164969.0
63038.196032471526,164959.0
63038.20612143907,164897.0
63038.21621040662,164897.0
63038.22629937417,164892.0
63038.23638834171,164884.0
63038.24647730926,164846.0
63038.25656627681,164880.0
63038.266655244355,164878.0
63038.2767442119,164876.0
63038.28683317945,164902.0
63038.296922147,164885.0
63038.30701111454,164887.0
63038.317100082095,164881.0
63038.32718904964,164915.0
63038.337278017185,164896.0
63038.34736698474,164920.0
63038.35745595228,164928.0
63038.36754491983,164915.0
63038.37763388738,164902.0
63038.387722854925,164943.0
63038.39781182247,164917.0
63038.407900790015,164910.0
63038.41798975757,164926.0
63038.42807872511,164911.0
63038.43816769266,164934.0
63038.44825666021,164886.0
63038.458345627754,164926.0
63038.4684345953,164914.0
63038.47852356285,164889.0
63038.4886125304,164894.0
63038.49870149794,164888.0
63038.508790465494,164916.0
63038.51887943304,164921.0
63038.528968400584,164959.0
63038.539057368136,164914.0
63038.54914633568,164957.0
63038.559235303226,164957.0
63038.56932427078,164946.0
63038.57941323832,164950.0
63038.58950220587,164956.0
63038.59959117341,165003.0
63038.609680140966,165012.0
63038.61976910851,165051.0
63038.629858076056,165010.0
63038.63994704361,165042.0
63038.65003601115,165030.0
63038.6601249787,165101.0
63038.67021394625,165080.0
63038.680302913795,165082.0
63038.69039188134,165118.0
63038.70048084889,165119.0
63038.71056981644,165138.0
63038.72065878398,165135.0
63038.730747751535,165116.0
63038.74083671908,165139.0
63038.750925686625,165159.0
63038.76101465417,165147.0
63038.77110362172,165141.0
63038.78119258927,165149.0
63038.79128155681,165133.0
63038.801370524365,165191.0
63038.81145949191,165171.0
63038.821548459455,165217.0
63038.83163742701,165204.0
63038.84172639455,165227.0
63038.8518153621,165219.0
63038.86190432965,165243.0
63038.871993297194,165239.0
63038.88208226474,165268.0
63038.89217123229,165256.0
63038.90226019984,165271.0
63038.91234916738,165284.0
63038.922438134934,165282.0
63038.93252710248,165289.0
63038.942616070024,165274.0
63038.95270503757,165337.0
63038.96279400512,165335.0
63038.97288297267,165327.0
63038.98297194021,165383.0
63038.993060907764,165404.0
63039.00314987531,165378.0
63039.013238842854,165376.0
63039.023327810406,165386.0
63039.03341677795,165326.0
63039.043505745496,165314.0
63039.05359471305,165275.0
63039.06368368059,165229.0
63039.07377264814,165191.0
63039.08386161569,165211.0
63039.093950583236,165143.0
63039.10403955078,165138.0
63039.11412851833,165105.0
63039.12421748588,165096.0
63039.13430645342,165070.0
63039.14439542097,165034.0
63039.15448438852,165069.0
63039.164573356065,165023.0
63039.17466232361,165048.0
63039.18475129116,165031.0
63039.19484025871,165043.0
63039.20492922625,165081.0
63039.215018193805,165074.0
63039.22510716135,165052.0
63039.235196128895,165084.0
63039.24528509645,165081.0
63039.25537406399,165103.0
63039.26546303154,165126.0
63039.27555199909,165088.0
63039.285640966635,165131.0
63039.29572993418,165115.0
63039.305818901725,165118.0
63039.31590786928,165131.0
63039.32599683682,165098.0
63039.33608580437,165119.0
63039.34617477192,165106.0
63039.356263739464,165114.0
63039.36635270701,165073.0
63039.37644167456,165083.0
63039.38653064211,165092.0
63039.39661960965,165067.0
63039.406708577204,165103.0
63039.41679754475,165107.0
63039.426886512294,165097.0
63039.436975479846,165130.0
63039.44706444739,165124.0
63039.457153414936,165123.0
63039.46724238249,165136.0
63039.47733135003,165104.0
63039.48742031758,165127.0
63039.497509285124,165180.0
63039.507598252676,165193.0
63039.51768722022,165177.0
63039.527776187766,165211.0
63039.53786515532,165220.0
63039.54795412286,165248.0
63039.55804309041,165275.0
63039.56813205796,165253.0
63039.578221025506,165254.0
63039.58830999305,165269.0
63039.5983989606,165270.0
63039.60848792815,165271.0
63039.61857689569,165315.0
63039.628665863245,165322.0
63039.63875483079,165347.0
63039.648843798335,165346.0
63039.65893276589,165303.0
63039.66902173343,165350.0
63039.67911070098,165323.0
63039.68919966852,165331.0
63039.699288636075,165338.0
63039.70937760362,165363.0
63039.719466571165,165357.0
63039.72955553872,165410.0
63039.73964450626,165383.0
63039.74973347381,165409.0
63039.75982244136,165411.0
63039.769911408905,165420.0
63039.78000037645,165460.0
63039.790089344,165447.0
63039.80017831155,165429.0
63039.81026727909,165454.0
63039.820356246644,165458.0
63039.83044521419,165490.0
63039.840534181734,165516.0
63039.85062314928,165515.0
63039.86071211683,165483.0
63039.87080108438,165535.0
63039.88089005192,165547.0
63039.890979019474,165535.0
63039.90106798702,165554.0
63039.911156954564,165539.0
63039.921245922116,165496.0
63039.93133488966,165523.0
63039.941423857206,165482.0
63039.95151282476,165430.0
63039.9616017923,165368.0
63039.97169075985,165355.0
63039.9817797274,165331.0
63039.991868694946,165291.0
63040.00195766249,165240.0
63040.01204663004,165247.0
63040.02213559759,165195.0
63040.03222456513,165217.0
63040.04231353268,165219.0
63040.05240250023,165190.0
63040.062491467776,165199.0
63040.07258043532,165195.0
63040.08266940287,165210.0
63040.09275837042,165213.0
63040.10284733796,165224.0
63040.112936305515,165200.0
63040.12302527306,165176.0
63040.133114240605,165211.0
63040.14320320816,165210.0
63040.1532921757,165199.0
63040.16338114325,165227.0
63040.1734701108,165261.0
63040.183559078345,165229.0
63040.19364804589,165226.0
63040.20373701344,165237.0
63040.21382598099,165240.0
63040.22391494853,165229.0
63040.23400391608,165266.0
63040.24409288363,165220.0
63040.254181851175,165203.0
63040.26427081872,165232.0
63040.27435978627,165225.0
63040.28444875382,165213.0
63040.29453772136,165213.0
63040.304626688914,165238.0
63040.31471565646,165226.0
63040.324804624004,165241.0
63040.33489359156,165261.0
63040.3449825591,165232.0
63040.35507152665,165271.0
63040.3651604942,165287.0
63040.375249461744,165245.0
63040.38533842929,165248.0
63040.395427396834,165315.0
63040.405516364386,165311.0
63040.41560533193,165298.0
63040.425694299476,165354.0
63040.43578326703,165347.0
63040.44587223457,165362.0
63040.45596120212,165347.0
63040.46605016967,165401.0
63040.476139137216,165376.0
63040.48622810476,165416.0
63040.49631707231,165438.0
63040.50640603986,165397.0
63040.5164950074,165379.0
63040.526583974955,165445.0
63040.5366729425,165483.0
63040.546761910045,165455.0
63040.5568508776,165510.0
63040.56693984514,165481.0
63040.57702881269,165462.0
63040.58711778023,165481.0
63040.597206747785,165545.0
63040.60729571533,165516.0
63040.617384682875,165517.0
63040.62747365043,165575.0
63040.63756261797,165518.0
63040.64765158552,165558.0
63040.65774055307,165573.0
63040.667829520615,165554.0
63040.67791848816,165565.0
63040.68800745571,165588.0
63040.69809642326,165592.0
63040.7081853908,165606.0
63040.718274358354,165601.0
63040.7283633259,165604.0
63040.738452293444,165645.0
63040.748541261,165638.0
63040.75863022854,165677.0
63040.76871919609,165630.0
63040.77880816363,165693.0
63040.788897131184,165672.0
63040.79898609873,165707.0
63040.809075066274,165715.0
63040.81916403383,165739.0
63040.82925300137,165736.0
63040.83934196892,165718.0
63040.84943093647,165722.0
63040.859519904014,165670.0
63040.86960887156,165644.0
63040.87969783911,165611.0
63040.889786806656,165556.0
63040.8998757742,165514.0
63040.90996474175,165482.0
63040.9200537093,165455.0
63040.93014267684,165442.0
63040.94023164439,165400.0
63040.95032061194,165420.0
63040.960409579486,165379.0
63040.97049854703,165360.0
63040.98058751458,165355.0
63040.99067648213,165368.0
63041.00076544967,165326.0
63041.010854417225,165363.0
63041.02094338477,165348.0
63041.031032352315,165303.0
63041.04112131987,165342.0
63041.05121028741,165362.0
63041.06129925496,165340.0
63041.07138822251,165320.0
63041.081477190055,165356.0
63041.0915661576,165332.0
63041.10165512515,165355.0
63041.1117440927,165358.0
63041.12183306024,165364.0
63041.13192202779,165345.0
63041.14201099534,165361.0
63041.152099962885,165356.0
63041.16218893043,165318.0
63041.17227789798,165346.0
63041.18236686553,165328.0
63041.19245583307,165318.0
63041.202544800624,165301.0
63041.21263376817,165347.0
63041.222722735714,165318.0
63041.23281170327,165303.0
63041.24290067081,165322.0
63041.25298963836,165347.0
63041.26307860591,165333.0
63041.273167573454,165347.0
63041.283256541,165375.0
63041.29334550855,165353.0
63041.303434476096,165396.0
63041.31352344364,165377.0
63041.323612411186,165405.0
63041.33370137874,165410.0
63041.343790346284,165431.0
63041.35387931383,165434.0
63041.36396828138,165395.0
63041.374057248926,165474.0
63041.38414621647,165454.0
63041.39423518402,165463.0
63041.40432415157,165483.0
63041.41441311911,165482.0
63041.424502086666,165474.0
63041.43459105421,165505.0
63041.444680021756,165530.0
63041.45476898931,165508.0
63041.46485795685,165527.0
63041.4749469244,165536.0
63041.48503589194,165534.0
63041.495124859495,165518.0
63041.50521382704,165539.0
63041.515302794585,165578.0
63041.52539176214,165561.0
63041.53548072968,165577.0
63041.54556969723,165551.0
63041.55565866478,165586.0
63041.565747632325,165597.0
63041.57583659987,165620.0
63041.58592556742,165611.0
63041.59601453497,165635.0
63041.60610350251,165644.0
63041.616192470065,165618.0
63041.62628143761,165630.0
63041.636370405155,165666.0
63041.64645937271,165708.0
63041.65654834025,165668.0
63041.6666373078,165698.0
63041.67672627534,165709.0
63041.686815242894,165691.0
63041.69690421044,165734.0
63041.706993177984,165717.0
63041.71708214554,165747.0
63041.72717111308,165739.0
63041.73726008063,165796.0
63041.74734904818,165763.0
63041.757438015724,165789.0
63041.76752698327,165748.0
63041.77761595082,165787.0
63041.787704918366,165750.0
63041.79779388591,165706.0
63041.80788285346,165647.0
63041.81797182101,165619.0
63041.82806078855,165569.0
63041.838149756106,165570.0
63041.84823872365,165514.0
63041.858327691196,165473.0
63041.86841665874,165487.0
63041.87850562629,165445.0
63041.88859459384,165444.0
63041.89868356138,165418.0
63041.908772528936,165393.0
63041.91886149648,165452.0
63041.928950464026,165424.0
63041.93903943158,165423.0
63041.94912839912,165406.0
63041.95921736667,165400.0
63041.96930633422,165419.0
63041.979395301765,165437.0
63041.98948426931,165461.0
63041.99957323686,165447.0
63042.00966220441,165467.0
63042.01975117195,165466.0
63042.0298401395,165443.0
63042.03992910705,165461.0
63042.050018074595,165463.0
63042.06010704214,165476.0
63042.07019600969,165484.0
63042.08028497724,165444.0
63042.09037394478,165452.0
63042.100462912334,165488.0
63042.11055187988,165418.0
63042.120640847425,165435.0
63042.13072981498,165429.0
63042.14081878252,165431.0
63042.15090775007,165413.0
63042.16099671762,165449.0
63042.171085685164,165441.0
63042.18117465271,165444.0
63042.19126362026,165459.0
63042.20135258781,165443.0
63042.21144155535,165473.0
63042.2215305229,165488.0
63042.23161949045,165473.0
63042.241708457994,165452.0
63042.25179742554,165496.0
63042.26188639309,165527.0
63042.271975360636,165512.0
63042.28206432818,165535.0
63042.29215329573,165543.0
63042.30224226328,165537.0
63042.31233123082,165585.0
63042.322420198376,165609.0
63042.33250916592,165599.0
63042.342598133466,165599.0
63042.35268710102,165608.0
63042.36277606856,165655.0
63042.37286503611,165571.0
63042.38295400365,165629.0
63042.393042971205,165656.0
63042.40313193875,165632.0
63042.413220906295,165699.0
63042.42330987385,165662.0
63042.43339884139,165699.0
63042.44348780894,165667.0
63042.45357677649,165719.0
63042.463665744035,165707.0
63042.47375471158,165709.0
63042.48384367913,165730.0
63042.49393264668,165751.0
63042.50402161422,165717.0
63042.514110581775,165728.0
63042.52419954932,165756.0
63042.534288516865,165780.0
63042.54437748442,165776.0
63042.55446645196,165821.0
63042.56455541951,165801.0
63042.57464438705,165774.0
63042.584733354604,165828.0
63042.59482232215,165831.0
63042.604911289694,165810.0
63042.61500025725,165885.0
63042.62508922479,165865.0
63042.63517819234,165844.0
63042.64526715989,165891.0
63042.655356127434,165919.0
63042.66544509498,165908.0
63042.67553406253,165921.0
63042.68562303008,165949.0
63042.69571199762,165946.0
63042.705800965174,165907.0
63042.71588993272,165886.0
63042.725978900264,165839.0
63042.736067867816,165803.0
63042.74615683536,165764.0
63042.756245802906,165722.0
63042.76633477045,165675.0
63042.776423738,165643.0
63042.78651270555,165646.0
63042.79660167309,165636.0
63042.806690640646,165595.0
63042.81677960819,165605.0
63042.826868575736,165602.0
63042.83695754329,165584.0
63042.84704651083,165565.0
63042.85713547838,165609.0
63042.86722444593,165582.0
63042.877313413475,165574.0
63042.88740238102,165566.0
63042.89749134857,165619.0
63042.90758031612,165602.0
63042.91766928366,165592.0
63042.92775825121,165635.0
63042.93784721876,165638.0
63042.947936186305,165624.0
63042.95802515385,165649.0
63042.9681141214,165633.0
63042.97820308895,165636.0
63042.98829205649,165660.0
63042.998381024045,165649.0
63043.00846999159,165651.0
63043.018558959135,165641.0
63043.02864792669,165627.0
63043.03873689423,165623.0
63043.04882586178,165588.0
63043.05891482933,165621.0
63043.069003796874,165614.0
63043.07909276442,165610.0
63043.08918173197,165611.0
63043.09927069952,165645.0
63043.10935966706,165610.0
63043.11944863461,165644.0
63043.12953760216,165642.0
63043.139626569704,165633.0
63043.14971553725,165651.0
63043.1598045048,165665.0
63043.169893472346,165686.0
63043.17998243989,165679.0
63043.19007140744,165686.0
63043.20016037499,165694.0
63043.210249342534,165712.0
63043.220338310086,165718.0
63043.23042727763,165778.0
63043.240516245176,165768.0
63043.25060521273,165762.0
63043.26069418027,165816.0
63043.27078314782,165775.0
63043.28087211537,165795.0
63043.290961082916,165797.0
63043.30105005046,165774.0
63043.311139018006,165796.0
63043.32122798556,165815.0
63043.3313169531,165829.0
63043.34140592065,165840.0
63043.3514948882,165865.0
63043.361583855745,165838.0
63043.37167282329,165838.0
63043.38176179084,165858.0
63043.39185075839,165839.0
63043.40193972593,165853.0
63043.412028693485,165844.0
63043.42211766103,165838.0
63043.432206628575,165892.0
63043.44229559613,165889.0
63043.45238456367,165877.0
63043.46247353122,165887.0
63043.47256249876,165846.0
63043.482651466315,165935.0
63043.49274043386,165910.0
63043.502829401405,165902.0
63043.51291836896,165948.0
63043.5230073365,165912.0
63043.53309630405,165931.0
63043.5431852716,165966.0
63043.553274239144,165946.0
63043.56336320669,165950.0
63043.57345217424,165990.0
63043.58354114179,165965.0
63043.59363010933,165952.0
63043.603719076884,165957.0
63043.61380804443,165963.0
63043.623897011974,165928.0
63043.633985979526,165893.0
63043.64407494707,165836.0
63043.654163914616,165838.0
63043.66425288216,165780.0
63043.67434184971,165778.0
63043.68443081726,165729.0
63043.6945197848,165702.0
63043.704608752356,165715.0
63043.7146977199,165668.0
63043.724786687446,165653.0
63043.734875655,165653.0
63043.74496462254,165658.0
63043.75505359009,165684.0
63043.76514255764,165626.0
63043.775231525186,165639.0
63043.78532049273,165644.0
63043.79540946028,165667.0
63043.80549842783,165636.0
63043.81558739537,165640.0
63043.825676362925,165659.0
63043.83576533047,165672.0
63043.845854298015,165694.0
63043.85594326556,165681.0
63043.86603223311,165686.0
63043.87612120066,165677.0
63043.8862101682,165707.0
63043.896299135755,165687.0
63043.9063881033,165698.0
63043.916477070845,165709.0
63043.9265660384,165680.0
63043.93665500594,165695.0
63043.94674397349,165675.0
63043.95683294104,165701.0
63043.966921908584,165641.0
63043.97701087613,165679.0
63043.98709984368,165672.0
63043.99718881123,165615.0
63044.00727777877,165632.0
63044.01736674632,165664.0
63044.02745571387,165621.0
63044.037544681414,165653.0
63044.04763364896,165684.0
63044.05772261651,165639.0
63044.06781158406,165660.0
63044.0779005516,165676.0
63044.087989519154,165690.0
63044.0980784867,165655.0
63044.108167454244,165718.0
63044.118256421796,165717.0
63044.12834538934,165709.0
63044.138434356886,165721.0
63044.14852332444,165752.0
63044.15861229198,165751.0
63044.16870125953,165723.0
63044.17879022708,165797.0
63044.188879194626,165778.0
63044.19896816217,165776.0
63044.209057129716,165781.0
63044.21914609727,165806.0
63044.22923506481,165810.0
63044.23932403236,165810.0
63044.24941299991,165829.0
63044.259501967455,165777.0
63044.269590935,165804.0
63044.27967990255,165824.0
63044.2897688701,165826.0
63044.29985783764,165812.0
63044.309946805195,165830.0
63044.32003577274,165843.0
63044.330124740285,165818.0
63044.34021370784,165867.0
63044.35030267538,165847.0
63044.36039164293,165862.0
63044.37048061048,165871.0
63044.380569578025,165884.0
63044.39065854557,165863.0
63044.400747513115,165877.0
63044.41083648067,165927.0
63044.42092544821,165885.0
63044.43101441576,165912.0
63044.44110338331,165933.0
63044.451192350854,165895.0
63044.4612813184,165869.0
63044.47137028595,165923.0
63044.4814592535,165853.0
63044.49154822104,165805.0
63044.501637188594,165791.0
63044.51172615614,165795.0
63044.521815123684,165700.0
63044.531904091236,165649.0
63044.54199305878,165678.0
63044.55208202633,165623.0
63044.56217099387,165629.0
63044.572259961424,165602.0
63044.58234892897,165567.0
63044.592437896514,165569.0
63044.602526864066,165586.0
63044.61261583161,165575.0
63044.622704799156,165555.0
63044.63279376671,165585.0
63044.64288273425,165565.0
63044.6529717018,165553.0
63044.66306066935,165545.0
63044.673149636896,165611.0
63044.68323860444,165582.0
63044.69332757199,165600.0
63044.70341653954,165593.0
63044.71350550708,165576.0
63044.723594474635,165582.0
63044.73368344218,165610.0
63044.743772409725,165630.0
63044.75386137727,165601.0
63044.76395034482,165621.0
63044.77403931237,165594.0
63044.78412827991,165547.0
63044.794217247465,165559.0
63044.80430621501,165585.0
63044.814395182555,165564.0
63044.82448415011,165566.0
63044.83457311765,165593.0
63044.8446620852,165560.0
63044.85475105275,165570.0
63044.864840020295,165543.0
63044.87492898784,165547.0
63044.88501795539,165579.0
63044.89510692294,165602.0
63044.90519589048,165583.0
63044.915284858034,165579.0
63044.92537382558,165601.0
63044.935462793124,165611.0
63044.94555176067,165645.0
63044.95564072822,165665.0
63044.96572969577,165634.0
63044.97581866331,165669.0
63044.985907630864,165674.0
63044.99599659841,165666.0
63045.006085565954,165705.0
63045.016174533506,165694.0
63045.02626350105,165722.0
63045.036352468596,165733.0
63045.04644143615,165705.0
63045.05653040369,165733.0
63045.06661937124,165746.0
63045.07670833879,165700.0
63045.086797306336,165753.0
63045.09688627388,165748.0
63045.106975241426,165754.0
63045.11706420898,165786.0
63045.12715317652,165766.0
63045.13724214407,165754.0
63045.14733111162,165794.0
63045.157420079166,165797.0
63045.16750904671,165808.0
63045.17759801426,165796.0
63045.18768698181,165814.0
63045.19777594935,165834.0
63045.207864916905,165798.0
63045.21795388445,165826.0
63045.228042851995,165838.0
63045.23813181955,165802.0
63045.24822078709,165803.0
63045.25830975464,165826.0
63045.26839872219,165771.0
63045.278487689735,165736.0
63045.28857665728,165729.0
63045.298665624825,165653.0
63045.30875459238,165637.0
63045.31884355992,165631.0
63045.32893252747,165572.0
63045.33902149502,165481.0
63045.349110462565,165527.0
63045.35919943011,165494.0
63045.36928839766,165482.0
63045.37937736521,165499.0
63045.38946633275,165464.0
63045.399555300304,165446.0
63045.40964426785,165419.0
63045.419733235394,165458.0
63045.42982220295,165453.0
63045.43991117049,165427.0
63045.45000013804,165424.0
63045.46008910559,165420.0
63045.470178073134,165424.0
63045.48026704068,165401.0
63045.490356008224,165459.0
63045.500444975776,165421.0
63045.51053394332,165431.0
63045.520622910866,165421.0
63045.53071187842,165436.0
63045.54080084596,165391.0
63045.55088981351,165419.0
63045.56097878106,165433.0
63045.571067748606,165389.0
63045.58115671615,165426.0
63045.5912456837,165377.0
63045.60133465125,165398.0
63045.61142361879,165364.0
63045.621512586345,165404.0
63045.63160155389,165385.0
63045.641690521436,165392.0
63045.65177948898,165399.0
63045.66186845653,165385.0
63045.67195742408,165381.0
63045.68204639162,165410.0
63045.692135359175,165404.0
63045.70222432672,165429.0
63045.712313294265,165434.0
63045.72240226182,165422.0
63045.73249122936,165455.0
63045.74258019691,165413.0
63045.75266916446,165501.0
63045.762758132005,165485.0
63045.77284709955,165466.0
63045.7829360671,165511.0
63045.79302503465,165496.0
63045.80311400219,165523.0
63045.813202969744,165519.0
63045.82329193729,165548.0
63045.833380904834,165559.0
63045.84346987238,165537.0
63045.85355883993,165541.0
63045.86364780748,165537.0
63045.87373677502,165574.0
63045.883825742574,165567.0
63045.89391471012,165567.0
63045.904003677664,165553.0
63045.91409264522,165585.0
63045.92418161276,165593.0
63045.93427058031,165603.0
63045.94435954786,165577.0
63045.954448515404,165598.0
63045.96453748295,165630.0
63045.9746264505,165600.0
63045.984715418046,165641.0
63045.99480438559,165617.0
63046.004893353136,165642.0
63046.01498232069,165628.0
63046.02507128823,165697.0
63046.03516025578,165689.0
63046.04524922333,165669.0
63046.055338190876,165679.0
63046.06542715842,165644.0
63046.07551612597,165620.0
63046.08560509352,165562.0
63046.09569406106,165520.0
63046.105783028615,165470.0
63046.11587199616,165463.0
63046.125960963705,165418.0
63046.13604993126,165370.0
63046.1461388988,165331.0
63046.15622786635,165367.0
63046.1663168339,165328.0
63046.176405801445,165291.0
63046.18649476899,165331.0
63046.196583736535,165307.0
63046.20667270409,165287.0
63046.21676167163,165288.0
63046.22685063918,165306.0
63046.23693960673,165262.0
63046.247028574275,165276.0
63046.25711754182,165263.0
63046.26720650937,165276.0
63046.27729547692,165259.0
63046.28738444446,165252.0
63046.297473412014,165268.0
63046.30756237956,165257.0
63046.317651347104,165282.0
63046.32774031466,165297.0
63046.3378292822,165277.0
63046.34791824975,165249.0
63046.3580072173,165280.0
63046.368096184844,165249.0
63046.37818515239,165271.0
63046.388274119934,165249.0
63046.398363087486,165260.0
63046.40845205503,165256.0
63046.41854102258,165251.0
63046.42862999013,165292.0
63046.438718957674,165274.0
63046.44880792522,165291.0
63046.45889689277,165269.0
63046.468985860316,165272.0
63046.47907482786,165265.0
63046.48916379541,165311.0
63046.49925276296,165295.0
63046.5093417305,165301.0
63046.519430698056,165335.0
63046.5295196656,165331.0
63046.539608633146,165348.0
63046.54969760069,165326.0
63046.55978656824,165396.0
63046.56987553579,165379.0
63046.57996450333,165375.0
63046.590053470885,165402.0
63046.60014243843,165400.0
63046.610231405975,165403.0
63046.62032037353,165414.0
63046.63040934107,165405.0
63046.64049830862,165446.0
63046.65058727617,165453.0
63046.660676243715,165462.0
63046.67076521126,165424.0
63046.68085417881,165446.0
63046.69094314636,165431.0
63046.7010321139,165464.0
63046.711121081455,165457.0
63046.721210049,165494.0
63046.731299016545,165518.0
63046.74138798409,165491.0
63046.75147695164,165502.0
63046.76156591919,165491.0
63046.77165488673,165483.0
63046.781743854284,165542.0
63046.79183282183,165513.0
63046.801921789374,165496.0
63046.81201075693,165537.0
63046.82209972447,165546.0
63046.83218869202,165575.0
63046.84227765957,165544.0
63046.852366627114,165586.0
63046.86245559466,165590.0
63046.87254456221,165604.0
63046.882633529756,165617.0
63046.8927224973,165610.0
63046.90281146485,165648.0
63046.9129004324,165658.0
63046.92298939994,165640.0
63046.93307836749,165657.0
63046.94316733504,165641.0
63046.953256302586,165592.0
63046.96334527013,165540.0
63046.97343423768,165523.0
63046.98352320523,165466.0
63046.99361217277,165466.0
63047.003701140326,165415.0
63047.01379010787,165406.0
63047.023879075416,165343.0
63047.03396804297,165339.0
63047.04405701051,165323.0
63047.05414597806,165297.0
63047.06423494561,165298.0
63047.074323913155,165296.0
63047.0844128807,165273.0
63047.094501848245,165280.0
63047.1045908158,165313.0
63047.11467978334,165280.0
63047.12476875089,165297.0
63047.13485771844,165280.0
63047.144946685985,165257.0
63047.15503565353,165278.0
63047.16512462108,165270.0
63047.17521358863,165303.0
63047.18530255617,165248.0
63047.195391523725,165282.0
63047.20548049127,165297.0
63047.215569458815,165270.0
63047.22565842637,165288.0
63047.23574739391,165282.0
63047.24583636146,165289.0
63047.25592532901,165245.0
63047.266014296554,165287.0
63047.2761032641,165269.0
63047.286192231644,165262.0
63047.2962811992,165259.0
63047.30637016674,165280.0
63047.31645913429,165254.0
63047.32654810184,165297.0
63047.336637069384,165289.0
63047.34672603693,165277.0
63047.35681500448,165299.0
63047.366903972026,165305.0
63047.37699293957,165325.0
63047.38708190712,165308.0
63047.39717087467,165360.0
63047.40725984221,165347.0
63047.417348809766,165332.0
63047.42743777731,165402.0
63047.437526744856,165388.0
63047.44761571241,165392.0
63047.45770467995,165391.0
63047.4677936475,165421.0
63047.47788261504,165403.0
63047.487971582595,165419.0
63047.49806055014,165448.0
63047.508149517686,165426.0
63047.51823848524,165458.0
63047.52832745278,165471.0
63047.53841642033,165466.0
63047.54850538788,165469.0
63047.558594355425,165533.0
63047.56868332297,165514.0
63047.57877229052,165513.0
63047.58886125807,165533.0
63047.59895022561,165572.0
63047.609039193165,165551.0
63047.61912816071,165529.0
63047.629217128255,165612.0
63047.6393060958,165586.0
63047.64939506335,165610.0
63047.6594840309,165638.0
63047.66957299844,165604.0
63047.679661965994,165635.0
63047.68975093354,165662.0
63047.699839901084,165676.0
63047.70992886864,165653.0
63047.72001783618,165676.0
63047.73010680373,165712.0
63047.74019577128,165682.0
63047.750284738824,165679.0
63047.76037370637,165749.0
63047.77046267392,165736.0
63047.78055164147,165725.0
63047.79064060901,165771.0
63047.800729576564,165783.0
63047.81081854411,165774.0
63047.820907511654,165772.0
63047.8309964792,165818.0
63047.84108544675,165778.0
63047.851174414296,165809.0
63047.86126338184,165782.0
63047.87135234939,165734.0
63047.88144131694,165709.0
63047.89153028448,165740.0
63047.901619252036,165686.0
63047.91170821958,165651.0
63047.921797187126,165636.0
63047.93188615468,165552.0
63047.94197512222,165558.0
63047.95206408977,165518.0
63047.96215305732,165494.0
63047.972242024865,165501.0
63047.98233099241,165493.0
63047.99241995996,165502.0
63048.00250892751,165446.0
63048.01259789505,165481.0
63048.0226868626,165479.0
63048.03277583015,165517.0
63048.042864797695,165493.0
63048.05295376524,165502.0
63048.06304273279,165486.0
63048.07313170034,165484.0
63048.08322066788,165451.0
63048.093309635435,165504.0
63048.10339860298,165488.0
63048.113487570525,165495.0
63048.12357653808,165516.0
63048.13366550562,165442.0
63048.14375447317,165486.0
63048.15384344072,165503.0
63048.163932408264,165483.0
63048.17402137581,165498.0
63048.184110343354,165474.0
63048.19419931091,165467.0
63048.20428827845,165452.0
63048.214377246,165488.0
63048.22446621355,165484.0
63048.234555181094,165450.0
63048.24464414864,165508.0
63048.25473311619,165497.0
63048.26482208374,165479.0
63048.27491105128,165488.0
63048.285000018834,165518.0
63048.29508898638,165515.0
63048.305177953924,165518.0
63048.315266921476,165521.0
63048.32535588902,165550.0
63048.335444856566,165527.0
63048.34553382412,165554.0
63048.35562279166,165544.0
63048.36571175921,165585.0
63048.37580072675,165587.0
63048.385889694306,165593.0
63048.39597866185,165581.0
63048.406067629396,165600.0
63048.41615659695,165624.0
63048.42624556449,165595.0
63048.43633453204,165641.0
63048.44642349959,165653.0
63048.456512467135,165651.0
63048.46660143468,165684.0
63048.47669040223,165667.0
63048.48677936978,165706.0
63048.49686833732,165659.0
63048.506957304875,165697.0
63048.51704627242,165696.0
63048.527135239965,165672.0
63048.53722420751,165715.0
63048.54731317506,165685.0
63048.55740214261,165730.0
63048.56749111015,165699.0
63048.577580077705,165745.0
63048.58766904525,165739.0
63048.597758012795,165756.0
63048.60784698035,165769.0
63048.61793594789,165793.0
63048.62802491544,165765.0
63048.63811388299,165801.0
63048.648202850534,165813.0
63048.65829181808,165805.0
63048.66838078563,165842.0
63048.67846975318,165835.0
63048.68855872072,165837.0
63048.698647688274,165825.0
63048.70873665582,165881.0
63048.718825623364,165880.0
63048.72891459091,165875.0
63048.73900355846,165881.0
63048.749092526006,165870.0
63048.75918149355,165868.0
63048.7692704611,165810.0
63048.77935942865,165831.0
63048.78944839619,165790.0
63048.799537363746,165749.0
63048.80962633129,165731.0
63048.819715298836,165697.0
63048.82980426639,165682.0
63048.83989323393,165648.0
63048.84998220148,165655.0
63048.86007116903,165592.0
63048.870160136576,165627.0
63048.88024910412,165597.0
63048.89033807167,165574.0
63048.90042703922,165583.0
63048.91051600676,165559.0
63048.92060497431,165591.0
63048.93069394186,165565.0
63048.940782909405,165606.0
63048.95087187695,165610.0
63048.9609608445,165608.0
63048.97104981205,165611.0
63048.98113877959,165581.0
63048.991227747145,165574.0
63049.00131671469,165660.0
63049.011405682235,165630.0
63049.02149464979,165612.0
63049.03158361733,165641.0
63049.04167258488,165626.0
63049.05176155243,165631.0
63049.061850519975,165621.0
63049.07193948752,165637.0
63049.082028455065,165599.0
63049.09211742262,165605.0
63049.10220639016,165595.0
63049.11229535771,165582.0
63049.12238432526,165581.0
63049.132473292804,165594.0
63049.14256226035,165610.0
63049.1526512279,165635.0
63049.16274019545,165637.0
63049.17282916299,165617.0
63049.182918130544,165589.0
63049.19300709809,165616.0
63049.203096065634,165644.0
63049.213185033186,165656.0
63049.22327400073,165665.0
63049.233362968276,165692.0
63049.24345193583,165667.0
63049.25354090337,165695.0
63049.26362987092,165705.0
63049.27371883846,165721.0
63049.283807806016,165721.0
63049.29389677356,165735.0
63049.303985741106,165736.0
63049.31407470866,165738.0
63049.3241636762,165739.0
63049.33425264375,165785.0
63049.3443416113,165780.0
63049.354430578845,165760.0
63049.36451954639,165773.0
63049.37460851394,165779.0
63049.38469748149,165779.0
63049.39478644903,165813.0
63049.404875416585,165792.0
63049.41496438413,165807.0
63049.425053351675,165857.0
63049.43514231923,165864.0
63049.44523128677,165860.0
63049.45532025432,165845.0
63049.46540922186,165843.0
63049.475498189415,165839.0
63049.48558715696,165882.0
63049.495676124505,165877.0
63049.50576509206,165896.0
63049.5158540596,165935.0
63049.52594302715,165895.0
63049.5360319947,165956.0
63049.546120962244,165932.0
63049.55620992979,165957.0
63049.56629889734,165950.0
63049.57638786489,165942.0
63049.58647683243,165940.0
63049.596565799984,165954.0
63049.60665476753,165868.0
63049.616743735074,165897.0
63049.62683270262,165850.0
63049.63692167017,165827.0
63049.64701063772,165818.0
63049.65709960526,165773.0
63049.667188572814,165738.0
63049.67727754036,165728.0
63049.687366507904,165689.0
63049.697455475456,165693.0
63049.707544443,165678.0
63049.717633410546,165681.0
63049.7277223781,165615.0
63049.73781134564,165667.0
63049.74790031319,165667.0
63049.75798928074,165646.0
63049.768078248286,165643.0
63049.77816721583,165645.0
63049.78825618338,165669.0
63049.79834515093,165666.0
63049.80843411847,165694.0
63049.81852308602,165672.0
63049.82861205357,165693.0
63049.838701021115,165678.0
63049.84878998866,165660.0
63049.85887895621,165649.0
63049.86896792376,165669.0
63049.8790568913,165687.0
63049.889145858855,165678.0
63049.8992348264,165703.0
63049.909323793945,165694.0
63049.9194127615,165699.0
63049.92950172904,165660.0
63049.93959069659,165718.0
63049.94967966414,165696.0
63049.959768631685,165702.0
63049.96985759923,165726.0
63049.97994656678,165686.0
63049.99003553433,165707.0
63050.00012450187,165713.0
63050.01021346942,165696.0
63050.02030243697,165734.0
63050.030391404514,165738.0
63050.04048037206,165718.0
63050.05056933961,165727.0
63050.06065830716,165714.0
63050.0707472747,165774.0
63050.080836242254,165785.0
63050.0909252098,165810.0
63050.101014177344,165824.0
63050.111103144896,165781.0
63050.12119211244,165837.0
63050.13128107999,165814.0
63050.14137004754,165819.0
63050.151459015084,165850.0
63050.16154798263,165869.0
63050.171636950174,165864.0
63050.181725917726,165880.0
63050.19181488527,165888.0
63050.201903852816,165913.0
63050.21199282037,165921.0
63050.22208178791,165940.0
63050.23217075546,165955.0
63050.24225972301,165952.0
63050.252348690556,165948.0
63050.2624376581,165931.0
63050.27252662565,165928.0
63050.2826155932,165965.0
63050.29270456074,165973.0
63050.302793528295,165981.0
63050.31288249584,165977.0
63050.322971463385,166019.0
63050.33306043094,166032.0
63050.34314939848,166008.0
63050.35323836603,166046.0
63050.36332733357,166058.0
63050.373416301125,166056.0
63050.38350526867,166099.0
63050.393594236215,166083.0
63050.40368320377,166085.0
63050.41377217131,166089.0
63050.42386113886,166113.0
63050.43395010641,166081.0
63050.444039073955,166088.0
63050.4541280415,166068.0
63050.46421700905,166043.0
63050.4743059766,165988.0
63050.48439494414,165983.0
63050.494483911694,165966.0
63050.50457287924,165901.0
63050.514661846784,165887.0
63050.52475081434,165859.0
63050.53483978188,165860.0
63050.54492874943,165809.0
63050.55501771697,165820.0
63050.565106684524,165807.0
63050.57519565207,165784.0
63050.585284619614,165815.0
63050.595373587166,165804.0
63050.60546255471,165786.0
63050.615551522256,165754.0
63050.62564048981,165785.0
63050.63572945735,165753.0
63050.6458184249,165777.0
63050.65590739245,165772.0
63050.665996359996,165762.0
63050.67608532754,165761.0
63050.68617429509,165751.0
63050.69626326264,165767.0
63050.70635223018,165757.0
63050.71644119773,165780.0
63050.72653016528,165746.0
63050.736619132826,165773.0
63050.74670810037,165769.0
63050.75679706792,165803.0
63050.76688603547,165740.0
63050.77697500301,165756.0
63050.787063970565,165771.0
63050.79715293811,165738.0
63050.807241905655,165766.0
63050.81733087321,165773.0
63050.82741984075,165758.0
63050.8375088083,165738.0
63050.84759777585,165803.0
63050.857686743395,165781.0
63050.86777571094,165788.0
63050.87786467849,165809.0
63050.88795364604,165782.0
63050.89804261358,165816.0
63050.90813158113,165786.0
63050.91822054868,165823.0
63050.928309516225,165819.0
63050.93839848377,165839.0
63050.94848745132,165850.0
63050.95857641887,165874.0
63050.96866538641,165843.0
63050.978754353964,165894.0
63050.98884332151,165922.0
63050.998932289054,165899.0
63051.00902125661,165899.0
63051.01911022415,165939.0
63051.0291991917,165922.0
63051.03928815925,165923.0
63051.049377126794,165990.0
63051.05946609434,165970.0
63051.06955506189,165922.0
63051.079644029436,165994.0
63051.08973299698,165960.0
63051.099821964526,165995.0
63051.10991093208,165980.0
63051.11999989962,165990.0
63051.13008886717,165999.0
63051.14017783472,166033.0
63051.150266802266,166021.0
63051.16035576981,166011.0
63051.17044473736,166032.0
63051.18053370491,166077.0
63051.19062267245,166075.0
63051.200711640005,166073.0
63051.21080060755,166065.0
63051.220889575095,166076.0
63051.23097854265,166104.0
63051.24106751019,166095.0
63051.25115647774,166107.0
63051.26124544528,166127.0
63051.271334412835,166156.0
63051.28142338038,166156.0
63051.291512347925,166179.0
63051.30160131548,166198.0
63051.31169028302,166182.0
63051.32177925057,166179.0
63051.33186821812,166156.0
63051.341957185665,166184.0
63051.35204615321,166100.0
63051.36213512076,166053.0
63051.37222408831,166051.0
63051.38231305585,166030.0
63051.392402023404,166010.0
63051.40249099095,165954.0
63051.412579958494,165925.0
63051.42266892605,165908.0
63051.43275789359,165906.0
63051.44284686114,165866.0
63051.45293582868,165901.0
63051.463024796234,165860.0
63051.47311376378,165864.0
63051.483202731324,165855.0
63051.49329169888,165831.0
63051.50338066642,165817.0
63051.51346963397,165874.0
63051.52355860152,165890.0
63051.533647569064,165895.0
63051.54373653661,165869.0
63051.55382550416,165859.0
63051.563914471706,165856.0
63051.57400343925,165873.0
63051.5840924068,165852.0
63051.59418137435,165866.0
63051.60427034189,165880.0
63051.614359309446,165857.0
63051.62444827699,165839.0
63051.634537244536,165859.0
63051.64462621208,165868.0
63051.65471517963,165839.0
63051.66480414718,165877.0
63051.67489311472,165859.0
63051.684982082275,165826.0
63051.69507104982,165846.0
63051.705160017365,165862.0
63051.71524898492,165832.0
63051.72533795246,165867.0
63051.73542692001,165889.0
63051.74551588756,165858.0
63051.755604855105,165865.0
63051.76569382265,165885.0
63051.7757827902,165903.0
63051.78587175775,165874.0
63051.79596072529,165923.0
63051.80604969284,165924.0
63051.81613866039,165896.0
63051.826227627935,165911.0
63051.83631659548,165945.0
63051.84640556303,165966.0
63051.85649453058,165951.0
63051.86658349812,165987.0
63051.876672465674,165979.0
63051.88676143322,165992.0
63051.896850400764,165997.0
63051.90693936832,166033.0
63051.91702833586,166009.0
63051.92711730341,166036.0
63051.93720627096,166065.0
63051.947295238504,166008.0
63051.95738420605,166085.0
63051.9674731736,166076.0
63051.977562141146,166051.0
63051.98765110869,166054.0
63051.99774007624,166103.0
63052.00782904379,166098.0
63052.017918011334,166080.0
63052.02800697888,166107.0
63052.03809594643,166096.0
63052.048184913976,166134.0
63052.05827388152,166105.0
63052.06836284907,166117.0
63052.07845181662,166149.0
63052.08854078416,166167.0
63052.098629751716,166160.0
63052.10871871926,166196.0
63052.118807686806,166148.0
63052.12889665436,166188.0
63052.1389856219,166168.0
63052.14907458945,166192.0
63052.15916355699,166242.0
63052.169252524545,166245.0
63052.17934149209,166257.0
63052.189430459635,166237.0
63052.19951942719,166273.0
63052.20960839473,166276.0
63052.21969736228,166274.0
63052.22978632983,166280.0
63052.239875297375,166306.0
63052.24996426492,166277.0
63052.26005323247,166254.0
63052.27014220002,166199.0
63052.28023116756,166197.0
63052.290320135115,166173.0
63052.30040910266,166171.0
63052.310498070205,166136.0
63052.32058703776,166072.0
63052.3306760053,166049.0
63052.34076497285,166057.0
63052.35085394039,166011.0
63052.360942907944,166038.0
63052.37103187549,166024.0
63052.381120843034,166005.0
63052.39120981059,165983.0
63052.40129877813,166006.0
63052.41138774568,165948.0
63052.42147671323,165996.0
63052.431565680774,166008.0
63052.44165464832,165995.0
63052.45174361587,166043.0
63052.461832583416,166019.0
63052.47192155096,166000.0
63052.48201051851,165986.0
63052.49209948606,166009.0
63052.5021884536,166038.0
63052.512277421156,166005.0
63052.5223663887,165991.0
63052.532455356246,166007.0
63052.54254432379,165992.0
63052.55263329134,166021.0
63052.56272225889,166037.0
63052.57281122643,166010.0
63052.582900193986,166014.0
63052.59298916153,166010.0
63052.603078129076,166041.0
63052.61316709663,166026.0
63052.62325606417,166019.0
63052.63334503172,166018.0
63052.64343399927,166015.0
63052.653522966815,166037.0
63052.66361193436,166026.0
63052.67370090191,165981.0
63052.68378986946,166001.0
63052.693878837,166075.0
63052.70396780455,166066.0
63052.7140567721,166079.0
63052.724145739645,166038.0
63052.73423470719,166072.0
63052.74432367474,166092.0
63052.75441264229,166081.0
63052.76450160983,166139.0
63052.774590577385,166138.0
63052.78467954493,166115.0
63052.794768512475,166141.0
63052.80485748003,166140.0
63052.81494644757,166126.0
63052.82503541512,166166.0
63052.83512438267,166159.0
63052.845213350214,166177.0
63052.85530231776,166202.0
63052.86539128531,166228.0
63052.87548025286,166197.0
63052.8855692204,166217.0
63052.89565818795,166240.0
63052.9057471555,166240.0
63052.915836123044,166228.0
63052.92592509059,166231.0
63052.93601405814,166270.0
63052.946103025686,166198.0
63052.95619199323,166247.0
63052.96628096078,166266.0
63052.97636992833,166303.0
63052.98645889587,166265.0
63052.996547863426,166292.0
63053.00663683097,166325.0
63053.016725798516,166296.0
63053.02681476607,166314.0
63053.03690373361,166326.0
63053.04699270116,166352.0
63053.05708166871,166346.0
63053.067170636255,166333.0
63053.0772596038,166318.0
63053.087348571346,166376.0
63053.0974375389,166336.0
63053.10752650644,166370.0
63053.11761547399,166397.0
63053.12770444154,166397.0
63053.137793409085,166430.0
63053.14788237663,166398.0
63053.15797134418,166432.0
63053.16806031173,166405.0
63053.17814927927,166408.0
63053.188238246825,166385.0
63053.19832721437,166338.0
63053.208416181915,166303.0
63053.21850514947,166242.0
63053.22859411701,166253.0
63053.23868308456,166216.0
63053.2487720521,166171.0
63053.258861019654,166167.0
63053.2689499872,166143.0
63053.279038954744,166147.0
63053.2891279223,166140.0
63053.29921688984,166117.0
63053.30930585739,166107.0
63053.31939482494,166122.0
63053.329483792484,166120.0
63053.33957276003,166109.0
63053.34966172758,166088.0
63053.35975069513,166125.0
63053.36983966267,166129.0
63053.379928630224,166144.0
63053.39001759777,166117.0
63053.400106565314,166114.0
63053.410195532866,166159.0
63053.42028450041,166145.0
63053.430373467956,166188.0
63053.4404624355,166142.0
63053.45055140305,166148.0
63053.4606403706,166145.0
63053.47072933814,166166.0
63053.480818305696,166153.0
63053.49090727324,166128.0
63053.500996240786,166137.0
63053.51108520834,166131.0
63053.52117417588,166161.0
63053.53126314343,166137.0
63053.54135211098,166104.0
63053.551441078525,166157.0
63053.56153004607,166108.0
63053.57161901362,166139.0
63053.58170798117,166161.0
63053.59179694871,166114.0
63053.601885916265,166142.0
63053.61197488381,166174.0
63053.622063851355,166168.0
63053.6321528189,166131.0
63053.64224178645,166188.0
63053.652330754,166183.0
63053.66241972154,166182.0
63053.672508689095,166198.0
63053.68259765664,166194.0
63053.692686624185,166221.0
63053.70277559174,166234.0
63053.71286455928,166249.0
63053.72295352683,166248.0
63053.73304249438,166264.0
63053.743131461924,166244.0
63053.75322042947,166243.0
63053.76330939702,166249.0
63053.77339836457,166288.0
63053.78348733211,166305.0
63053.79357629966,166312.0
63053.80366526721,166314.0
63053.813754234754,166311.0
63053.8238432023,166325.0
63053.83393216985,166276.0
63053.844021137396,166333.0
63053.85411010494,166317.0
63053.864199072494,166312.0
63053.87428804004,166308.0
63053.884377007584,166327.0
63053.894465975136,166332.0
63053.90455494268,166343.0
63053.914643910226,166365.0
63053.92473287778,166377.0
63053.93482184532,166371.0
63053.94491081287,166375.0
63053.95499978042,166362.0
63053.965088747966,166371.0
63053.97517771551,166372.0
63053.985266683056,166407.0
63053.99535565061,166384.0
63054.00544461815,166424.0
63054.0155335857,166392.0
63054.02562255325,166360.0
63054.035711520795,166302.0
63054.04580048834,166324.0
63054.05588945589,166258.0
63054.06597842344,166264.0
63054.07606739098,166226.0
63054.086156358535,166203.0
63054.09624532608,166167.0
63054.106334293625,166145.0
63054.11642326118,166157.0
63054.12651222872,166106.0
63054.13660119627,166115.0
63054.14669016382,166091.0
63054.156779131365,166099.0
63054.16686809891,166090.0
63054.176957066455,166126.0
63054.18704603401,166102.0
63054.19713500155,166094.0
63054.2072239691,166131.0
63054.21731293665,166103.0
63054.227401904194,166135.0
63054.23749087174,166126.0
63054.24757983929,166159.0
63054.25766880684,166120.0
63054.26775777438,166142.0
63054.277846741934,166153.0
63054.28793570948,166122.0
63054.298024677024,166138.0
63054.308113644576,166147.0
63054.31820261212,166121.0
63054.328291579666,166094.0
63054.33838054721,166154.0
63054.34846951476,166106.0
63054.35855848231,166098.0
63054.36864744985,166119.0
63054.378736417406,166119.0
63054.38882538495,166107.0
63054.398914352496,166086.0
63054.40900332005,166128.0
63054.41909228759,166103.0
63054.42918125514,166129.0
63054.43927022269,166133.0
63054.449359190236,166155.0
63054.45944815778,166116.0
63054.46953712533,166164.0
63054.47962609288,166162.0
63054.48971506042,166155.0
63054.499804027975,166204.0
63054.50989299552,166159.0
63054.519981963065,166194.0
63054.53007093061,166170.0
63054.54015989816,166242.0
63054.55024886571,166205.0
63054.56033783325,166251.0
63054.570426800805,166228.0
63054.58051576835,166230.0
63054.590604735895,166261.0
63054.60069370345,166261.0
63054.61078267099,166299.0
63054.62087163854,166263.0
63054.63096060609,166302.0
63054.641049573635,166286.0
63054.65113854118,166277.0
63054.66122750873,166263.0
63054.67131647628,166330.0
63054.68140544382,166287.0
63054.691494411374,166299.0
63054.70158337892,166348.0
63054.711672346464,166324.0
63054.72176131401,166338.0
63054.73185028156,166286.0
63054.74193924911,166317.0
63054.75202821665,166366.0
63054.762117184204,166354.0
63054.77220615175,166358.0
63054.782295119294,166356.0
63054.792384086846,166412.0
63054.80247305439,166383.0
63054.812562021936,166378.0
63054.82265098949,166381.0
63054.83273995703,166396.0
63054.84282892458,166350.0
63054.85291789213,166279.0
63054.863006859676,166250.0
63054.87309582722,166243.0
63054.883184794766,166205.0
63054.89327376232,166164.0
63054.90336272986,166158.0
63054.91345169741,166111.0
63054.92354066496,166071.0
63054.933629632505,166091.0
63054.94371860005,166060.0
63054.9538075676,166024.0
63054.96389653515,166019.0
63054.97398550269,166004.0
63054.984074470245,165988.0
63054.99416343779,166027.0
63055.004252405335,166012.0
63055.01434137289,166011.0
63055.02443034043,166030.0
63055.03451930798,166039.0
63055.04460827553,165995.0
63055.054697243075,166007.0
63055.06478621062,166001.0
63055.074875178165,165997.0
63055.08496414572,165989.0
63055.09505311326,165981.0
63055.10514208081,165979.0
63055.11523104836,166002.0
63055.125320015904,165996.0
63055.13540898345,165986.0
63055.145497951,165977.0
63055.15558691855,165983.0
63055.16567588609,165951.0
63055.175764853644,165963.0
63055.18585382119,165949.0
63055.195942788734,165937.0
63055.20603175629,165929.0
63055.21612072383,165953.0
63055.22620969138,165971.0
63055.23629865893,165950.0
63055.246387626474,165965.0
63055.25647659402,165983.0
63055.266565561564,165969.0
63055.276654529116,165992.0
63055.28674349666,166025.0
63055.296832464206,166011.0
63055.30692143176,165992.0
63055.3170103993,166030.0
63055.32709936685,166055.0
63055.3371883344,166043.0
63055.347277301946,166030.0
63055.35736626949,166070.0
63055.36745523704,166035.0
63055.37754420459,166074.0
63055.38763317213,166083.0
63055.397722139685,166099.0
63055.40781110723,166081.0
63055.417900074775,166109.0
63055.42798904232,166097.0
63055.43807800987,166105.0
63055.44816697742,166123.0
63055.45825594496,166116.0
63055.468344912515,166153.0
63055.47843388006,166130.0
63055.488522847605,166160.0
63055.49861181516,166141.0
63055.5087007827,166103.0
63055.51878975025,166157.0
63055.5288787178,166132.0
63055.538967685345,166148.0
63055.54905665289,166194.0
63055.55914562044,166189.0
63055.56923458799,166163.0
63055.57932355553,166207.0
63055.589412523084,166200.0
63055.59950149063,166175.0
63055.609590458174,166231.0
63055.61967942572,166217.0
63055.62976839327,166231.0
63055.63985736082,166213.0
63055.64994632836,166239.0
63055.660035295914,166226.0
63055.67012426346,166199.0
63055.680213231004,166164.0
63055.690302198556,166161.0
63055.7003911661,166107.0
63055.710480133646,166066.0
63055.7205691012,166052.0
63055.730658068744,165980.0
63055.74074703629,165921.0
63055.75083600384,165941.0
63055.760924971386,165927.0
63055.77101393893,165832.0
63055.781102906476,165864.0
63055.79119187403,165859.0
63055.80128084157,165841.0
63055.81136980912,165870.0
63055.82145877667,165818.0
63055.831547744216,165833.0
63055.84163671176,165819.0
63055.85172567931,165857.0
63055.86181464686,165799.0
63055.8719036144,165811.0
63055.881992581955,165832.0
63055.8920815495,165783.0
63055.902170517045,165828.0
63055.9122594846,165798.0
63055.92234845214,165835.0
63055.93243741969,165808.0
63055.94252638724,165808.0
63055.952615354785,165803.0
63055.96270432233,165801.0
63055.972793289875,165774.0
63055.98288225743,165797.0
63055.99297122497,165788.0
63056.00306019252,165769.0
63056.01314916007,165837.0
63056.023238127615,165764.0
63056.03332709516,165767.0
63056.04341606271,165761.0
63056.05350503026,165774.0
63056.0635939978,165770.0
63056.073682965354,165750.0
63056.0837719329,165777.0
63056.093860900444,165813.0
63056.103949868,165798.0
63056.11403883554,165783.0
63056.12412780309,165798.0
63056.13421677064,165809.0
63056.144305738184,165817.0
63056.15439470573,165827.0
63056.164483673274,165846.0
