time,ppg
63011.657572861666,167677.0
63011.6676726634,167687.0
63011.67777246515,167663.0
63011.68787226689,167721.0
63011.697972068636,167710.0
63011.70807187038,167712.0
63011.71817167212,167696.0
63011.72827147386,167673.0
63011.738371275605,167726.0
63011.74847107735,167738.0
63011.75857087909,167714.0
63011.76867068083,167714.0
63011.778770482575,167724.0
63011.78887028432,167742.0
63011.79897008606,167749.0
63011.8090698878,167709.0
63011.819169689545,167700.0
63011.82926949129,167662.0
63011.83936929303,167670.0
63011.84946909478,167656.0
63011.859568896514,167628.0
63011.86966869826,167600.0
63011.8797685,167631.0
63011.88986830175,167597.0
63011.899968103484,167592.0
63011.91006790523,167601.0
63011.92016770697,167585.0
63011.93026750872,167592.0
63011.94036731046,167625.0
63011.9504671122,167631.0
63011.96056691394,167668.0
63011.970666715686,167685.0
63011.98076651743,167707.0
63011.990866319175,167706.0
63012.00096612091,167738.0
63012.011065922656,167716.0
63012.0211657244,167741.0
63012.031265526144,167730.0
63012.04136532788,167729.0
63012.051465129625,167765.0
63012.06156493137,167754.0
63012.071664733114,167737.0
63012.08176453486,167760.0
63012.091864336595,167753.0
63012.10196413834,167753.0
63012.11206394008,167755.0
63012.12216374183,167768.0
63012.13226354357,167745.0
63012.14236334531,167791.0
63012.15246314705,167774.0
63012.1625629488,167755.0
63012.17266275054,167777.0
63012.18276255228,167807.0
63012.19286235402,167782.0
63012.20296215577,167785.0
63012.21306195751,167794.0
63012.223161759255,167826.0
63012.23326156099,167796.0
63012.243361362736,167793.0
63012.25346116448,167819.0
63012.263560966225,167800.0
63012.27366076797,167821.0
63012.283760569706,167839.0
63012.29386037145,167783.0
63012.303960173194,167819.0
63012.31405997494,167819.0
63012.324159776676,167769.0
63012.33425957842,167790.0
63012.344359380164,167846.0
63012.35445918191,167812.0
63012.36455898365,167774.0
63012.37465878539,167798.0
63012.38475858713,167827.0
63012.39485838888,167812.0
63012.40495819062,167791.0
63012.41505799236,167824.0
63012.4251577941,167827.0
63012.43525759585,167806.0
63012.44535739759,167806.0
63012.455457199336,167811.0
63012.46555700107,167777.0
63012.47565680282,167758.0
63012.48575660456,167765.0
63012.495856406305,167734.0
63012.50595620805,167745.0
63012.51605600979,167753.0
63012.52615581153,167700.0
63012.536255613275,167668.0
63012.54635541502,167724.0
63012.55645521676,167722.0
63012.5665550185,167689.0
63012.576654820245,167694.0
63012.58675462199,167737.0
63012.59685442373,167698.0
63012.60695422547,167718.0
63012.617054027214,167732.0
63012.62715382896,167695.0
63012.6372536307,167722.0
63012.64735343245,167718.0
63012.657453234184,167764.0
63012.66755303593,167720.0
63012.67765283767,167781.0
63012.68775263942,167734.0
63012.69785244115,167717.0
63012.7079522429,167744.0
63012.71805204464,167754.0
63012.728151846386,167738.0
63012.73825164813,167700.0
63012.74835144987,167740.0
63012.75845125161,167744.0
63012.768551053356,167747.0
63012.7786508551,167713.0
63012.788750656844,167766.0
63012.79885045858,167749.0
63012.808950260325,167745.0
63012.81905006207,167759.0
63012.829149863814,167711.0
63012.83924966555,167735.0
63012.849349467295,167728.0
63012.85944926904,167740.0
63012.86954907078,167728.0
63012.87964887253,167766.0
63012.889748674264,167730.0
63012.89984847601,167733.0
63012.90994827775,167723.0
63012.9200480795,167763.0
63012.93014788124,167730.0
63012.94024768298,167706.0
63012.95034748472,167734.0
63012.96044728647,167732.0
63012.97054708821,167703.0
63012.98064688995,167717.0
63012.99074669169,167737.0
63013.000846493436,167737.0
63013.01094629518,167752.0
63013.021046096925,167742.0
63013.03114589866,167756.0
63013.041245700406,167752.0
63013.05134550215,167762.0
63013.061445303894,167759.0
63013.07154510564,167756.0
63013.081644907375,167772.0
63013.09174470912,167751.0
63013.101844510864,167697.0
63013.11194431261,167728.0
63013.122044114345,167701.0
63013.13214391609,167675.0
63013.14224371783,167690.0
63013.15234351958,167668.0
63013.16244332132,167661.0
63013.17254312306,167617.0
63013.1826429248,167640.0
63013.19274272655,167644.0
63013.20284252829,167625.0
63013.212942330036,167654.0
63013.22304213177,167627.0
63013.23314193352,167644.0
63013.24324173526,167611.0
63013.253341537005,167619.0
63013.26344133874,167601.0
63013.27354114049,167598.0
63013.28364094223,167616.0
63013.293740743975,167646.0
63013.30384054572,167633.0
63013.313940347456,167616.0
63013.3240401492,167667.0
63013.334139950945,167613.0
63013.34423975269,167641.0
63013.35433955443,167639.0
63013.36443935617,167650.0
63013.374539157914,167601.0
63013.38463895966,167628.0
63013.3947387614,167642.0
63013.40483856314,167663.0
63013.414938364884,167616.0
63013.42503816663,167626.0
63013.43513796837,167631.0
63013.44523777012,167646.0
63013.45533757185,167635.0
63013.4654373736,167632.0
63013.47553717534,167642.0
63013.485636977086,167609.0
63013.49573677883,167639.0
63013.50583658057,167609.0
63013.51593638231,167604.0
63013.526036184056,167609.0
63013.5361359858,167567.0
63013.54623578754,167589.0
63013.55633558928,167597.0
63013.566435391025,167620.0
63013.57653519277,167592.0
63013.58663499451,167614.0
63013.59673479625,167613.0
63013.606834597995,167603.0
63013.61693439974,167572.0
63013.62703420148,167626.0
63013.63713400323,167620.0
63013.647233804964,167565.0
63013.65733360671,167589.0
63013.66743340845,167611.0
63013.6775332102,167610.0
63013.687633011934,167589.0
63013.69773281368,167626.0
63013.70783261542,167597.0
63013.71793241717,167620.0
63013.72803221891,167631.0
63013.73813202065,167612.0
63013.74823182239,167615.0
63013.758331624136,167616.0
63013.76843142588,167624.0
63013.778531227625,167611.0
63013.78863102936,167591.0
63013.798730831106,167601.0
63013.80883063285,167587.0
63013.818930434594,167565.0
63013.82903023633,167569.0
63013.839130038075,167543.0
63013.84922983982,167524.0
63013.859329641564,167527.0
63013.86942944331,167549.0
63013.879529245045,167519.0
63013.88962904679,167490.0
63013.89972884853,167514.0
63013.90982865028,167497.0
63013.91992845202,167529.0
63013.93002825376,167519.0
63013.9401280555,167542.0
63013.95022785725,167544.0
63013.96032765899,167552.0
63013.97042746073,167532.0
63013.98052726247,167577.0
63013.99062706422,167579.0
63014.00072686596,167584.0
63014.010826667705,167583.0
63014.02092646944,167579.0
63014.03102627119,167600.0
63014.04112607293,167589.0
63014.051225874675,167595.0
63014.06132567642,167606.0
63014.071425478156,167614.0
63014.0815252799,167594.0
63014.091625081644,167605.0
63014.10172488339,167583.0
63014.111824685126,167619.0
63014.12192448687,167562.0
63014.132024288614,167606.0
63014.14212409036,167599.0
63014.1522238921,167579.0
63014.16232369384,167587.0
63014.172423495584,167625.0
63014.18252329733,167613.0
63014.19262309907,167590.0
63014.202722900816,167639.0
63014.21282270255,167632.0
63014.2229225043,167595.0
63014.23302230604,167606.0
63014.243122107786,167615.0
63014.25322190952,167657.0
63014.26332171127,167664.0
63014.27342151301,167687.0
63014.283521314755,167646.0
63014.2936211165,167667.0
63014.30372091824,167666.0
63014.31382071998,167678.0
63014.323920521725,167622.0
63014.33402032347,167660.0
63014.34412012521,167646.0
63014.35421992695,167658.0
63014.364319728695,167661.0
63014.37441953044,167689.0
63014.38451933218,167722.0
63014.39461913392,167681.0
63014.404718935664,167728.0
63014.41481873741,167712.0
63014.42491853915,167709.0
63014.4350183409,167702.0
63014.445118142634,167725.0
63014.45521794438,167699.0
63014.46531774612,167721.0
63014.47541754787,167712.0
63014.48551734961,167690.0
63014.49561715135,167695.0
63014.50571695309,167688.0
63014.515816754836,167670.0
63014.52591655658,167688.0
63014.53601635832,167635.0
63014.54611616006,167640.0
63014.556215961806,167619.0
63014.56631576355,167631.0
63014.576415565294,167611.0
63014.58651536703,167618.0
63014.596615168775,167607.0
63014.60671497052,167656.0
63014.616814772264,167604.0
63014.62691457401,167653.0
63014.637014375745,167625.0
63014.64711417749,167644.0
63014.65721397923,167685.0
63014.66731378098,167657.0
63014.677413582715,167663.0
63014.68751338446,167665.0
63014.6976131862,167713.0
63014.70771298795,167693.0
63014.71781278969,167719.0
63014.72791259143,167709.0
63014.73801239317,167695.0
63014.74811219492,167723.0
63014.75821199666,167698.0
63014.768311798405,167700.0
63014.77841160014,167704.0
63014.788511401886,167732.0
63014.79861120363,167734.0
63014.808711005375,167749.0
63014.81881080711,167731.0
63014.828910608856,167726.0
63014.8390104106,167702.0
63014.849110212344,167721.0
63014.85921001409,167707.0
63014.869309815826,167734.0
63014.87940961757,167730.0
63014.889509419314,167723.0
63014.89960922106,167715.0
63014.9097090228,167746.0
63014.91980882454,167752.0
63014.92990862628,167704.0
63014.94000842803,167697.0
63014.95010822977,167727.0
63014.96020803151,167734.0
63014.97030783325,167771.0
63014.980407635,167776.0
63014.99050743674,167771.0
63015.000607238486,167794.0
63015.01070704022,167793.0
63015.02080684197,167783.0
63015.03090664371,167799.0
63015.041006445455,167779.0
63015.0511062472,167772.0
63015.06120604894,167774.0
63015.07130585068,167791.0
63015.081405652425,167823.0
63015.09150545417,167812.0
63015.101605255906,167808.0
63015.11170505765,167806.0
63015.121804859395,167819.0
63015.13190466114,167810.0
63015.14200446288,167815.0
63015.15210426462,167810.0
63015.162204066364,167822.0
63015.17230386811,167828.0
63015.18240366985,167862.0
63015.1925034716,167814.0
63015.202603273334,167823.0
63015.21270307508,167810.0
63015.22280287682,167809.0
63015.23290267857,167822.0
63015.2430024803,167767.0
63015.25310228205,167743.0
63015.26320208379,167729.0
63015.273301885536,167766.0
63015.28340168728,167755.0
63015.29350148902,167734.0
63015.30360129076,167784.0
63015.313701092506,167793.0
63015.32380089425,167764.0
63015.333900695994,167765.0
63015.34400049773,167762.0
63015.354100299475,167818.0
63015.36420010122,167804.0
63015.374299902964,167800.0
63015.3843997047,167814.0
63015.394499506445,167787.0
63015.40459930819,167822.0
63015.41469910993,167795.0
63015.42479891168,167816.0
63015.434898713414,167832.0
63015.44499851516,167818.0
63015.4550983169,167805.0
63015.46519811865,167790.0
63015.47529792039,167789.0
63015.48539772213,167807.0
63015.49549752387,167793.0
63015.50559732562,167788.0
63015.51569712736,167792.0
63015.5257969291,167790.0
63015.53589673084,167759.0
63015.545996532586,167773.0
63015.55609633433,167795.0
63015.566196136075,167786.0
63015.57629593781,167775.0
63015.586395739556,167832.0
63015.5964955413,167776.0
63015.606595343044,167776.0
63015.61669514479,167801.0
63015.626794946525,167789.0
63015.63689474827,167820.0
63015.646994550014,167766.0
63015.65709435176,167799.0
63015.667194153495,167797.0
63015.67729395524,167832.0
63015.68739375698,167793.0
63015.69749355873,167821.0
63015.70759336047,167811.0
63015.71769316221,167838.0
63015.72779296395,167786.0
63015.7378927657,167823.0
63015.74799256744,167851.0
63015.758092369186,167825.0
63015.76819217092,167850.0
63015.77829197267,167798.0
63015.78839177441,167830.0
63015.798491576155,167823.0
63015.80859137789,167827.0
63015.81869117964,167846.0
63015.82879098138,167827.0
63015.838890783125,167856.0
63015.84899058487,167798.0
63015.859090386606,167815.0
63015.86919018835,167785.0
63015.879289990095,167834.0
63015.88938979184,167778.0
63015.89948959358,167794.0
63015.90958939532,167757.0
63015.919689197064,167728.0
63015.92978899881,167707.0
63015.93988880055,167743.0
63015.94998860229,167766.0
63015.960088404034,167725.0
63015.97018820578,167765.0
63015.98028800752,167753.0
63015.99038780927,167789.0
63016.000487611,167730.0
63016.01058741275,167759.0
63016.02068721449,167760.0
63016.030787016236,167783.0
63016.04088681798,167819.0
63016.05098661972,167752.0
63016.06108642146,167767.0
63016.071186223206,167750.0
63016.08128602495,167801.0
63016.09138582669,167758.0
63016.10148562843,167774.0
63016.111585430175,167757.0
63016.12168523192,167737.0
63016.13178503366,167736.0
63016.1418848354,167815.0
63016.151984637145,167779.0
63016.16208443889,167753.0
63016.17218424063,167798.0
63016.18228404238,167771.0
63016.192383844114,167790.0
63016.20248364586,167766.0
63016.2125834476,167781.0
63016.22268324935,167741.0
63016.232783051084,167767.0
63016.24288285283,167766.0
63016.25298265457,167730.0
63016.26308245632,167746.0
63016.27318225806,167774.0
63016.2832820598,167799.0
63016.29338186154,167758.0
63016.303481663286,167803.0
63016.31358146503,167768.0
63016.323681266775,167762.0
63016.33378106851,167756.0
63016.343880870256,167818.0
63016.353980672,167787.0
63016.364080473744,167777.0
63016.37418027548,167808.0
63016.384280077225,167776.0
63016.39437987897,167795.0
63016.404479680714,167784.0
63016.41457948246,167810.0
63016.424679284195,167795.0
63016.43477908594,167814.0
63016.44487888768,167832.0
63016.45497868943,167776.0
63016.465078491165,167764.0
63016.47517829291,167804.0
63016.48527809465,167821.0
63016.4953778964,167777.0
63016.50547769814,167784.0
63016.51557749988,167775.0
63016.52567730162,167730.0
63016.53577710337,167748.0
63016.54587690511,167762.0
63016.555976706855,167719.0
63016.56607650859,167681.0
63016.57617631034,167720.0
63016.58627611208,167668.0
63016.596375913825,167702.0
63016.60647571557,167676.0
63016.616575517306,167682.0
63016.62667531905,167678.0
63016.636775120794,167710.0
63016.64687492254,167694.0
63016.656974724276,167721.0
63016.66707452602,167709.0
63016.677174327764,167740.0
63016.68727412951,167732.0
63016.69737393125,167731.0
63016.70747373299,167726.0
63016.717573534734,167726.0
63016.72767333648,167730.0
63016.73777313822,167727.0
63016.74787293996,167762.0
63016.7579727417,167730.0
63016.76807254345,167732.0
63016.77817234519,167714.0
63016.788272146936,167716.0
63016.79837194867,167711.0
63016.80847175042,167739.0
63016.81857155216,167745.0
63016.828671353906,167714.0
63016.83877115565,167755.0
63016.84887095739,167745.0
63016.85897075913,167740.0
63016.869070560875,167695.0
63016.87917036262,167704.0
63016.889270164356,167702.0
63016.8993699661,167695.0
63016.909469767845,167689.0
63016.91956956959,167682.0
63016.92966937133,167708.0
63016.93976917307,167698.0
63016.949868974814,167732.0
63016.95996877656,167711.0
63016.9700685783,167719.0
63016.98016838005,167723.0
63016.990268181784,167727.0
63017.00036798353,167685.0
63017.01046778527,167729.0
63017.02056758702,167730.0
63017.03066738875,167706.0
63017.0407671905,167776.0
63017.05086699224,167748.0
63017.060966793986,167777.0
63017.07106659573,167730.0
63017.08116639747,167745.0
63017.09126619921,167740.0
63017.101366000956,167743.0
63017.1114658027,167723.0
63017.121565604444,167703.0
63017.13166540618,167724.0
63017.141765207925,167702.0
63017.15186500967,167725.0
63017.161964811414,167730.0
63017.17206461315,167649.0
63017.182164414895,167675.0
63017.19226421664,167672.0
63017.20236401838,167623.0
63017.21246382013,167623.0
63017.222563621865,167635.0
63017.23266342361,167617.0
63017.24276322535,167682.0
63017.2528630271,167666.0
63017.26296282884,167631.0
63017.27306263058,167634.0
63017.28316243232,167655.0
63017.29326223407,167620.0
63017.30336203581,167646.0
63017.31346183755,167627.0
63017.32356163929,167665.0
63017.33366144104,167630.0
63017.34376124278,167633.0
63017.353861044525,167670.0
63017.36396084626,167634.0
63017.374060648006,167644.0
63017.38416044975,167669.0
63017.394260251494,167679.0
63017.40436005324,167691.0
63017.414459854976,167656.0
63017.42455965672,167670.0
63017.434659458464,167664.0
63017.44475926021,167655.0
63017.454859061945,167701.0
63017.46495886369,167685.0
63017.47505866543,167672.0
63017.48515846718,167674.0
63017.49525826892,167684.0
63017.50535807066,167685.0
63017.5154578724,167697.0
63017.52555767415,167677.0
63017.53565747589,167699.0
63017.545757277636,167682.0
63017.55585707937,167672.0
63017.56595688112,167674.0
63017.57605668286,167673.0
63017.586156484605,167687.0
63017.59625628634,167693.0
63017.60635608809,167686.0
63017.61645588983,167710.0
63017.626555691575,167712.0
63017.63665549332,167721.0
63017.646755295056,167690.0
63017.6568550968,167714.0
63017.666954898545,167709.0
63017.67705470029,167707.0
63017.68715450203,167697.0
63017.69725430377,167728.0
63017.707354105514,167717.0
63017.71745390726,167725.0
63017.727553709,167722.0
63017.73765351074,167728.0
63017.747753312484,167702.0
63017.75785311423,167741.0
63017.76795291597,167727.0
63017.77805271772,167703.0
63017.78815251945,167697.0
63017.7982523212,167698.0
63017.80835212294,167672.0
63017.818451924686,167648.0
63017.82855172643,167636.0
63017.83865152817,167644.0
63017.84875132991,167636.0
63017.858851131656,167614.0
63017.8689509334,167621.0
63017.87905073514,167631.0
63017.88915053688,167606.0
63017.899250338625,167612.0
63017.90935014037,167650.0
63017.919449942114,167636.0
63017.92954974385,167607.0
63017.939649545595,167637.0
63017.94974934734,167660.0
63017.95984914908,167648.0
63017.96994895083,167666.0
63017.980048752564,167654.0
63017.99014855431,167674.0
63018.00024835605,167671.0
63018.0103481578,167660.0
63018.020447959534,167683.0
63018.03054776128,167648.0
63018.04064756302,167660.0
63018.05074736477,167634.0
63018.06084716651,167646.0
63018.07094696825,167678.0
63018.08104676999,167644.0
63018.091146571736,167644.0
63018.10124637348,167623.0
63018.111346175225,167672.0
63018.12144597696,167656.0
63018.131545778706,167633.0
63018.14164558045,167629.0
63018.151745382194,167611.0
63018.16184518393,167641.0
63018.171944985676,167629.0
63018.18204478742,167641.0
63018.192144589164,167666.0
63018.20224439091,167649.0
63018.212344192645,167641.0
63018.22244399439,167671.0
63018.23254379613,167677.0
63018.24264359788,167661.0
63018.25274339962,167678.0
63018.26284320136,167680.0
63018.2729430031,167698.0
63018.28304280485,167697.0
63018.29314260659,167680.0
63018.30324240833,167680.0
63018.31334221007,167677.0
63018.32344201182,167664.0
63018.33354181356,167679.0
63018.343641615305,167685.0
63018.35374141704,167678.0
63018.36384121879,167697.0
63018.37394102053,167696.0
63018.384040822275,167703.0
63018.39414062402,167726.0
63018.404240425756,167697.0
63018.4143402275,167703.0
63018.424440029245,167720.0
63018.43453983099,167704.0
63018.444639632726,167722.0
63018.45473943447,167652.0
63018.464839236214,167650.0
63018.47493903796,167639.0
63018.4850388397,167651.0
63018.49513864144,167612.0
63018.505238443184,167576.0
63018.51533824493,167586.0
63018.52543804667,167588.0
63018.53553784842,167602.0
63018.54563765015,167611.0
63018.5557374519,167610.0
63018.56583725364,167614.0
63018.575937055386,167641.0
63018.58603685712,167631.0
63018.59613665887,167623.0
63018.60623646061,167625.0
63018.616336262356,167648.0
63018.6264360641,167689.0
63018.63653586584,167623.0
63018.64663566758,167633.0
63018.656735469325,167653.0
63018.66683527107,167633.0
63018.676935072814,167645.0
63018.68703487455,167660.0
63018.697134676295,167662.0
63018.70723447804,167648.0
63018.71733427978,167633.0
63018.72743408152,167683.0
63018.737533883264,167645.0
63018.74763368501,167653.0
63018.75773348675,167638.0
63018.7678332885,167681.0
63018.777933090234,167664.0
63018.78803289198,167670.0
63018.79813269372,167659.0
63018.80823249547,167634.0
63018.81833229721,167679.0
63018.82843209895,167657.0
63018.83853190069,167661.0
63018.848631702436,167649.0
63018.85873150418,167672.0
63018.86883130592,167677.0
63018.87893110766,167670.0
63018.889030909406,167688.0
63018.89913071115,167713.0
63018.909230512894,167704.0
63018.91933031463,167676.0
63018.929430116375,167695.0
63018.93952991812,167667.0
63018.949629719864,167695.0
63018.95972952161,167682.0
63018.969829323345,167696.0
63018.97992912509,167664.0
63018.99002892683,167677.0
63019.00012872858,167644.0
63019.010228530315,167628.0
63019.02032833206,167648.0
63019.0304281338,167647.0
63019.04052793555,167638.0
63019.05062773729,167627.0
63019.06072753903,167626.0
63019.07082734077,167615.0
63019.08092714252,167608.0
63019.09102694426,167620.0
63019.101126746005,167633.0
63019.11122654774,167635.0
63019.12132634949,167601.0
63019.13142615123,167601.0
63019.141525952975,167578.0
63019.15162575471,167572.0
63019.161725556456,167521.0
63019.1718253582,167531.0
63019.181925159945,167473.0
63019.19202496169,167502.0
63019.202124763426,167476.0
63019.21222456517,167525.0
63019.222324366914,167530.0
63019.23242416866,167530.0
63019.2425239704,167518.0
63019.25262377214,167501.0
63019.262723573884,167529.0
63019.27282337563,167532.0
63019.28292317737,167536.0
63019.29302297911,167546.0
63019.30312278085,167556.0
63019.3132225826,167511.0
63019.32332238434,167557.0
63019.333422186086,167535.0
63019.34352198782,167587.0
63019.35362178957,167537.0
63019.36372159131,167572.0
63019.373821393056,167552.0
63019.3839211948,167581.0
63019.39402099654,167513.0
63019.40412079828,167545.0
63019.414220600025,167565.0
63019.42432040177,167542.0
63019.434420203506,167568.0
63019.44452000525,167562.0
63019.454619806995,167531.0
63019.46471960874,167579.0
63019.47481941048,167583.0
63019.48491921222,167559.0
63019.495019013964,167561.0
63019.50511881571,167550.0
63019.51521861745,167508.0
63019.5253184192,167507.0
63019.535418220934,167503.0
63019.54551802268,167550.0
63019.55561782442,167520.0
63019.56571762617,167548.0
63019.5758174279,167558.0
63019.58591722965,167540.0
63019.59601703139,167532.0
63019.606116833136,167562.0
63019.61621663488,167565.0
63019.62631643662,167561.0
63019.63641623836,167541.0
63019.646516040106,167570.0
63019.65661584185,167552.0
63019.666715643594,167531.0
63019.67681544533,167550.0
63019.686915247075,167562.0
63019.69701504882,167544.0
63019.707114850564,167579.0
63019.7172146523,167568.0
63019.727314454045,167596.0
63019.73741425579,167579.0
63019.74751405753,167591.0
63019.75761385928,167547.0
63019.767713661015,167584.0
63019.77781346276,167559.0
63019.7879132645,167524.0
63019.79801306625,167547.0
63019.80811286799,167547.0
63019.81821266973,167559.0
63019.82831247147,167587.0
63019.83841227322,167594.0
63019.84851207496,167537.0
63019.8586118767,167530.0
63019.86871167844,167462.0
63019.87881148019,167516.0
63019.88891128193,167447.0
63019.899011083675,167473.0
63019.90911088541,167455.0
63019.919210687156,167470.0
63019.9293104889,167418.0
63019.939410290644,167471.0
63019.94951009239,167489.0
63019.959609894126,167460.0
63019.96970969587,167453.0
63019.979809497614,167493.0
63019.98990929936,167478.0
63020.000009101095,167453.0
63020.01010890284,167510.0
63020.02020870458,167490.0
63020.03030850633,167491.0
63020.04040830807,167515.0
63020.05050810981,167509.0
63020.06060791155,167456.0
63020.0707077133,167467.0
63020.08080751504,167509.0
63020.090907316786,167511.0
63020.10100711852,167510.0
63020.11110692027,167496.0
63020.12120672201,167523.0
63020.131306523755,167468.0
63020.14140632549,167496.0
63020.15150612724,167528.0
63020.16160592898,167498.0
63020.171705730725,167481.0
63020.18180553247,167509.0
63020.191905334206,167526.0
63020.20200513595,167460.0
63020.212104937695,167487.0
63020.22220473944,167486.0
63020.23230454118,167484.0
63020.24240434292,167483.0
63020.252504144664,167526.0
63020.26260394641,167504.0
63020.27270374815,167478.0
63020.28280354989,167510.0
63020.292903351634,167514.0
63020.30300315338,167492.0
63020.31310295512,167489.0
63020.32320275687,167529.0
63020.3333025586,167495.0
63020.34340236035,167488.0
63020.35350216209,167519.0
63020.363601963836,167518.0
63020.37370176558,167519.0
63020.38380156732,167517.0
63020.39390136906,167517.0
63020.404001170806,167502.0
63020.41410097255,167528.0
63020.42420077429,167524.0
63020.43430057603,167503.0
63020.444400377775,167496.0
63020.45450017952,167524.0
63020.464599981264,167537.0
63020.474699783,167521.0
63020.484799584745,167533.0
63020.49489938649,167548.0
63020.50499918823,167528.0
63020.51509898997,167534.0
63020.525198791715,167548.0
63020.53529859346,167499.0
63020.5453983952,167519.0
63020.55549819695,167515.0
63020.565597998684,167532.0
63020.57569780043,167495.0
63020.58579760217,167528.0
63020.59589740392,167499.0
63020.60599720566,167475.0
63020.6160970074,167459.0
63020.62619680914,167462.0
63020.636296610886,167434.0
63020.64639641263,167425.0
63020.65649621437,167430.0
63020.66659601611,167418.0
63020.676695817856,167418.0
63020.6867956196,167400.0
63020.696895421344,167387.0
63020.70699522308,167422.0
63020.717095024826,167418.0
63020.72719482657,167437.0
63020.737294628314,167397.0
63020.74739443006,167413.0
63020.757494231795,167433.0
63020.76759403354,167434.0
63020.77769383528,167466.0
63020.78779363703,167440.0
63020.797893438765,167437.0
63020.80799324051,167446.0
63020.81809304225,167423.0
63020.828192844,167466.0
63020.83829264574,167436.0
63020.84839244748,167444.0
63020.85849224922,167474.0
63020.86859205097,167462.0
63020.87869185271,167423.0
63020.888791654455,167432.0
63020.89889145619,167456.0
63020.90899125794,167409.0
63020.91909105968,167442.0
63020.929190861425,167459.0
63020.93929066316,167452.0
63020.949390464906,167432.0
63020.95949026665,167426.0
63020.969590068395,167446.0
63020.97968987014,167462.0
63020.989789671876,167435.0
63020.99988947362,167432.0
63021.009989275364,167442.0
63021.02008907711,167401.0
63021.03018887885,167465.0
63021.04028868059,167424.0
63021.050388482334,167459.0
63021.06048828408,167443.0
63021.07058808582,167490.0
63021.08068788756,167446.0
63021.0907876893,167454.0
63021.10088749105,167421.0
63021.11098729279,167441.0
63021.121087094536,167459.0
63021.13118689627,167450.0
63021.14128669802,167448.0
63021.15138649976,167442.0
63021.161486301506,167433.0
63021.17158610325,167464.0
63021.18168590499,167482.0
63021.19178570673,167485.0
63021.201885508475,167479.0
63021.21198531022,167475.0
63021.22208511196,167489.0
63021.2321849137,167474.0
63021.242284715445,167493.0
63021.25238451719,167476.0
63021.26248431893,167479.0
63021.27258412067,167502.0
63021.282683922414,167509.0
63021.29278372416,167470.0
63021.3028835259,167476.0
63021.31298332765,167503.0
63021.323083129384,167507.0
63021.33318293113,167494.0
63021.34328273287,167476.0
63021.35338253462,167454.0
63021.36348233635,167473.0
63021.3735821381,167490.0
63021.38368193984,167464.0
63021.393781741586,167422.0
63021.40388154333,167439.0
63021.41398134507,167406.0
63021.42408114681,167387.0
63021.434180948556,167335.0
63021.4442807503,167372.0
63021.454380552044,167342.0
63021.46448035378,167345.0
63021.474580155525,167334.0
63021.48467995727,167373.0
63021.494779759014,167369.0
63021.50487956075,167359.0
63021.514979362495,167377.0
63021.52507916424,167372.0
63021.53517896598,167380.0
63021.54527876773,167351.0
63021.555378569465,167345.0
63021.56547837121,167384.0
63021.57557817295,167351.0
63021.5856779747,167392.0
63021.59577777644,167388.0
63021.60587757818,167376.0
63021.61597737992,167377.0
63021.62607718167,167392.0
63021.63617698341,167383.0
63021.64627678515,167407.0
63021.65637658689,167382.0
63021.66647638864,167418.0
63021.67657619038,167381.0
63021.686675992125,167403.0
63021.69677579386,167399.0
63021.706875595606,167381.0
63021.71697539735,167387.0
63021.727075199095,167394.0
63021.73717500084,167397.0
63021.747274802576,167367.0
63021.75737460432,167370.0
63021.767474406064,167380.0
63021.77757420781,167358.0
63021.787674009545,167374.0
63021.79777381129,167352.0
63021.807873613034,167336.0
63021.81797341478,167341.0
63021.82807321652,167363.0
63021.83817301826,167367.0
63021.84827282,167387.0
63021.85837262175,167365.0
63021.86847242349,167344.0
63021.878572225236,167384.0
63021.88867202697,167370.0
63021.89877182872,167379.0
63021.90887163046,167330.0
63021.918971432206,167366.0
63021.92907123394,167368.0
63021.93917103569,167385.0
63021.94927083743,167372.0
63021.959370639175,167370.0
63021.96947044092,167368.0
63021.979570242656,167346.0
63021.9896700444,167368.0
63021.999769846145,167379.0
63022.00986964789,167399.0
63022.01996944963,167374.0
63022.03006925137,167375.0
63022.040169053114,167429.0
63022.05026885486,167401.0
63022.0603686566,167354.0
63022.07046845834,167377.0
63022.080568260084,167354.0
63022.09066806183,167354.0
63022.10076786357,167393.0
63022.11086766532,167306.0
63022.12096746705,167331.0
63022.1310672688,167307.0
63022.14116707054,167289.0
63022.151266872286,167256.0
63022.16136667403,167321.0
63022.17146647577,167301.0
63022.18156627751,167313.0
63022.191666079256,167336.0
63022.201765881,167316.0
63022.21186568274,167352.0
63022.22196548448,167355.0
63022.232065286225,167328.0
63022.24216508797,167388.0
63022.252264889714,167364.0
63022.26236469145,167348.0
63022.272464493195,167348.0
63022.28256429494,167351.0
63022.29266409668,167363.0
63022.30276389843,167394.0
63022.312863700165,167370.0
63022.32296350191,167404.0
63022.33306330365,167347.0
63022.3431631054,167365.0
63022.353262907134,167353.0
63022.36336270888,167339.0
63022.37346251062,167351.0
63022.38356231237,167367.0
63022.39366211411,167335.0
63022.40376191585,167335.0
63022.41386171759,167351.0
63022.42396151934,167364.0
63022.43406132108,167392.0
63022.444161122825,167374.0
63022.45426092456,167383.0
63022.464360726306,167365.0
63022.47446052805,167343.0
63022.484560329794,167343.0
63022.49466013153,167374.0
63022.504759933276,167364.0
63022.51485973502,167358.0
63022.524959536764,167403.0
63022.53505933851,167357.0
63022.545159140245,167388.0
63022.55525894199,167360.0
63022.565358743734,167402.0
63022.57545854548,167402.0
63022.58555834722,167427.0
63022.59565814896,167436.0
63022.6057579507,167407.0
63022.61585775245,167433.0
63022.62595755419,167452.0
63022.63605735593,167456.0
63022.64615715767,167433.0
63022.65625695942,167457.0
63022.66635676116,167423.0
63022.676456562906,167404.0
63022.68655636464,167398.0
63022.69665616639,167444.0
63022.70675596813,167427.0
63022.716855769875,167410.0
63022.72695557162,167461.0
63022.737055373356,167429.0
63022.7471551751,167456.0
63022.757254976845,167429.0
63022.76735477859,167423.0
63022.777454580326,167424.0
63022.78755438207,167454.0
63022.797654183814,167436.0
63022.80775398556,167444.0
63022.8178537873,167424.0
63022.82795358904,167479.0
63022.838053390784,167477.0
63022.84815319253,167459.0
63022.85825299427,167496.0
63022.86835279602,167447.0
63022.87845259775,167485.0
63022.8885523995,167474.0
63022.89865220124,167481.0
63022.908752002986,167424.0
63022.91885180472,167431.0
63022.92895160647,167388.0
63022.93905140821,167362.0
63022.949151209956,167339.0
63022.9592510117,167384.0
63022.96935081344,167402.0
63022.97945061518,167362.0
63022.989550416925,167394.0
63022.99965021867,167400.0
63023.009750020414,167415.0
63023.01984982215,167381.0
63023.029949623895,167431.0
63023.04004942564,167400.0
63023.05014922738,167390.0
63023.06024902912,167455.0
63023.070348830865,167396.0
63023.08044863261,167435.0
63023.09054843435,167432.0
63023.1006482361,167474.0
63023.110748037834,167459.0
63023.12084783958,167436.0
63023.13094764132,167422.0
63023.14104744307,167456.0
63023.15114724481,167396.0
63023.16124704655,167421.0
63023.17134684829,167447.0
63023.18144665004,167395.0
63023.19154645178,167406.0
63023.20164625352,167429.0
63023.21174605526,167451.0
63023.221845857006,167405.0
63023.23194565875,167443.0
63023.242045460494,167416.0
63023.25214526223,167446.0
63023.262245063976,167464.0
63023.27234486572,167408.0
63023.282444667464,167442.0
63023.29254446921,167423.0
63023.302644270945,167447.0
63023.31274407269,167443.0
63023.32284387443,167413.0
63023.33294367618,167456.0
63023.343043477915,167468.0
63023.35314327966,167470.0
63023.3632430814,167491.0
63023.37334288315,167468.0
63023.38344268489,167458.0
63023.39354248663,167455.0
63023.40364228837,167512.0
63023.41374209012,167483.0
63023.42384189186,167451.0
63023.433941693605,167492.0
63023.44404149534,167518.0
63023.45414129709,167502.0
63023.46424109883,167503.0
63023.474340900575,167546.0
63023.48444070231,167539.0
63023.494540504056,167526.0
63023.5046403058,167540.0
63023.514740107545,167563.0
63023.52483990929,167554.0
63023.534939711026,167596.0
63023.54503951277,167665.0
63023.555139314514,167655.0
63023.56523911626,167642.0
63023.575338918,167638.0
63023.58543871974,167609.0
63023.595538521484,167621.0
63023.60563832323,167633.0
63023.61573812497,167593.0
63023.62583792671,167584.0
63023.63593772845,167605.0
63023.6460375302,167626.0
63023.65613733194,167648.0
63023.666237133686,167650.0
63023.67633693542,167708.0
63023.68643673717,167658.0
63023.69653653891,167661.0
63023.706636340656,167637.0
63023.7167361424,167627.0
63023.72683594414,167582.0
63023.73693574588,167587.0
63023.747035547625,167565.0
63023.75713534937,167548.0
63023.76723515111,167539.0
63023.77733495285,167537.0
63023.787434754595,167533.0
63023.79753455634,167515.0
63023.80763435808,167552.0
63023.81773415982,167555.0
63023.827833961564,167490.0
63023.83793376331,167503.0
63023.84803356505,167513.0
63023.8581333668,167501.0
63023.868233168534,167512.0
63023.87833297028,167525.0
63023.88843277202,167533.0
63023.89853257377,167522.0
63023.908632375504,167538.0
63023.91873217725,167536.0
63023.92883197899,167562.0
63023.938931780736,167561.0
63023.94903158248,167544.0
63023.95913138422,167534.0
63023.96923118596,167537.0
63023.979330987706,167543.0
63023.98943078945,167531.0
63023.999530591194,167524.0
63024.00963039293,167539.0
63024.019730194676,167596.0
63024.02982999642,167623.0
63024.039929798164,167626.0
63024.0500295999,167578.0
63024.060129401645,167621.0
63024.07022920339,167586.0
63024.08032900513,167561.0
63024.09042880688,167525.0
63024.100528608615,167485.0
63024.11062841036,167533.0
63024.1207282121,167536.0
63024.13082801385,167603.0
63024.14092781559,167592.0
63024.15102761733,167613.0
63024.16112741907,167625.0
63024.17122722082,167566.0
63024.18132702256,167577.0
63024.1914268243,167602.0
63024.20152662604,167591.0
63024.21162642779,167568.0
63024.22172622953,167594.0
63024.231826031275,167595.0
63024.24192583301,167571.0
63024.252025634756,167568.0
63024.2621254365,167640.0
63024.272225238245,167622.0
63024.28232503999,167652.0
63024.292424841726,167651.0
63024.30252464347,167588.0
63024.312624445214,167608.0
63024.32272424696,167559.0
63024.332824048695,167587.0
63024.34292385044,167578.0
63024.353023652184,167594.0
63024.36312345393,167597.0
63024.37322325567,167592.0
63024.38332305741,167592.0
63024.39342285915,167598.0
63024.4035226609,167612.0
63024.41362246264,167582.0
63024.423722264386,167635.0
63024.43382206612,167565.0
63024.44392186787,167603.0
63024.45402166961,167605.0
63024.464121471356,167622.0
63024.47422127309,167601.0
63024.48432107484,167610.0
63024.49442087658,167560.0
63024.504520678325,167548.0
63024.51462048007,167546.0
63024.52472028181,167546.0
63024.53482008355,167533.0
63024.544919885295,167520.0
63024.55501968704,167505.0
63024.565119488776,167500.0
63024.57521929052,167504.0
63024.585319092264,167514.0
63024.59541889401,167520.0
63024.60551869575,167518.0
63024.61561849749,167521.0
63024.625718299234,167480.0
63024.63581810098,167516.0
63024.64591790272,167533.0
63024.65601770447,167547.0
63024.6661175062,167533.0
63024.67621730795,167535.0
63024.68631710969,167566.0
63024.696416911436,167590.0
63024.70651671317,167574.0
63024.71661651492,167536.0
63024.72671631666,167574.0
63024.736816118406,167564.0
63024.74691592015,167586.0
63024.75701572189,167587.0
63024.76711552363,167605.0
63024.777215325375,167593.0
63024.78731512712,167601.0
63024.797414928864,167605.0
63024.8075147306,167582.0
63024.817614532345,167540.0
63024.82771433409,167572.0
63024.83781413583,167566.0
63024.84791393757,167595.0
63024.858013739315,167599.0
63024.86811354106,167594.0
63024.8782133428,167613.0
63024.88831314455,167585.0
63024.898412946284,167631.0
63024.90851274803,167634.0
63024.91861254977,167584.0
63024.92871235152,167581.0
63024.93881215326,167613.0
63024.948911955,167609.0
63024.95901175674,167612.0
63024.96911155849,167611.0
63024.97921136023,167648.0
63024.98931116197,167667.0
63024.99941096371,167655.0
63025.009510765456,167653.0
63025.0196105672,167669.0
63025.029710368945,167656.0
63025.03981017068,167626.0
63025.049909972426,167665.0
63025.06000977417,167666.0
63025.070109575914,167664.0
63025.08020937766,167662.0
63025.090309179395,167733.0
63025.10040898114,167708.0
63025.110508782884,167720.0
63025.12060858463,167703.0
63025.130708386365,167697.0
63025.14080818811,167726.0
63025.15090798985,167732.0
63025.1610077916,167732.0
63025.17110759334,167690.0
63025.18120739508,167709.0
63025.19130719682,167719.0
63025.20140699857,167685.0
63025.21150680031,167692.0
63025.221606602056,167722.0
63025.23170640379,167710.0
63025.24180620554,167770.0
63025.25190600728,167736.0
63025.262005809025,167727.0
63025.27210561076,167695.0
63025.282205412506,167716.0
63025.29230521425,167707.0
63025.302405015995,167657.0
63025.31250481774,167622.0
63025.322604619476,167656.0
63025.33270442122,167640.0
63025.342804222964,167628.0
63025.35290402471,167650.0
63025.36300382645,167664.0
63025.37310362819,167630.0
63025.383203429934,167666.0
63025.39330323168,167642.0
63025.40340303342,167639.0
63025.41350283516,167651.0
63025.4236026369,167654.0
63025.43370243865,167650.0
63025.44380224039,167667.0
63025.453902042136,167695.0
63025.46400184387,167719.0
63025.47410164562,167720.0
63025.48420144736,167691.0
63025.494301249106,167744.0
63025.50440105085,167720.0
63025.51450085259,167732.0
63025.52460065433,167708.0
63025.534700456075,167682.0
63025.54480025782,167711.0
63025.55490005956,167706.0
63025.5649998613,167707.0
63025.575099663045,167675.0
63025.58519946479,167685.0
63025.59529926653,167694.0
63025.60539906827,167662.0
63025.615498870015,167673.0
63025.62559867176,167680.0
63025.6356984735,167680.0
63025.64579827525,167647.0
63025.655898076984,167683.0
63025.66599787873,167695.0
63025.67609768047,167664.0
63025.68619748222,167647.0
63025.696297283954,167679.0
63025.7063970857,167663.0
63025.71649688744,167670.0
63025.72659668919,167653.0
63025.73669649093,167645.0
63025.74679629267,167652.0
63025.75689609441,167685.0
63025.766995896156,167697.0
63025.7770956979,167691.0
63025.787195499644,167671.0
63025.79729530138,167682.0
63025.807395103126,167701.0
63025.81749490487,167663.0
63025.827594706614,167696.0
63025.83769450835,167714.0
63025.847794310095,167660.0
63025.85789411184,167684.0
63025.86799391358,167724.0
63025.87809371533,167690.0
63025.888193517065,167685.0
63025.89829331881,167723.0
63025.90839312055,167705.0
63025.9184929223,167713.0
63025.92859272404,167700.0
63025.93869252578,167745.0
63025.94879232752,167688.0
63025.95889212927,167703.0
63025.96899193101,167711.0
63025.97909173275,167711.0
63025.98919153449,167684.0
63025.99929133624,167745.0
63026.00939113798,167729.0
63026.019490939725,167699.0
63026.02959074146,167737.0
63026.039690543206,167690.0
63026.04979034495,167669.0
63026.059890146695,167661.0
63026.06998994844,167653.0
63026.080089750176,167601.0
63026.09018955192,167588.0
63026.100289353664,167593.0
63026.11038915541,167604.0
63026.120488957145,167582.0
63026.13058875889,167607.0
63026.140688560634,167646.0
63026.15078836238,167624.0
63026.16088816412,167637.0
63026.17098796586,167638.0
63026.1810877676,167650.0
63026.19118756935,167618.0
63026.20128737109,167673.0
63026.211387172836,167661.0
63026.22148697457,167647.0
63026.23158677632,167669.0
63026.24168657806,167672.0
63026.251786379806,167691.0
63026.26188618154,167684.0
63026.27198598329,167742.0
63026.28208578503,167686.0
63026.292185586775,167713.0
63026.30228538852,167702.0
63026.31238519026,167742.0
63026.322484992,167704.0
63026.332584793745,167713.0
63026.34268459549,167721.0
63026.35278439723,167701.0
63026.36288419897,167723.0
63026.372984000714,167719.0
63026.38308380246,167731.0
63026.3931836042,167692.0
63026.40328340594,167742.0
63026.413383207684,167736.0
63026.42348300943,167721.0
63026.43358281117,167724.0
63026.44368261292,167736.0
63026.453782414654,167717.0
63026.4638822164,167750.0
63026.47398201814,167783.0
63026.484081819886,167763.0
63026.49418162163,167734.0
63026.50428142337,167771.0
63026.51438122511,167742.0
63026.524481026856,167751.0
63026.5345808286,167745.0
63026.54468063034,167759.0
63026.55478043208,167739.0
63026.564880233826,167723.0
63026.57498003557,167748.0
63026.585079837314,167718.0
63026.59517963905,167729.0
63026.605279440795,167729.0
63026.61537924254,167722.0
63026.62547904428,167717.0
63026.63557884603,167692.0
63026.645678647765,167755.0
63026.65577844951,167724.0
63026.66587825125,167739.0
63026.675978053,167750.0
63026.686077854734,167746.0
63026.69617765648,167718.0
63026.70627745822,167748.0
63026.71637725997,167737.0
63026.72647706171,167756.0
63026.73657686345,167743.0
63026.74667666519,167738.0
63026.75677646694,167721.0
63026.76687626868,167700.0
63026.776976070425,167715.0
63026.78707587216,167703.0
63026.797175673906,167691.0
63026.80727547565,167655.0
63026.817375277395,167655.0
63026.82747507913,167627.0
63026.837574880876,167615.0
63026.84767468262,167629.0
63026.857774484364,167615.0
63026.86787428611,167648.0
63026.877974087845,167657.0
63026.88807388959,167685.0
63026.898173691334,167642.0
63026.90827349308,167651.0
63026.91837329482,167657.0
63026.92847309656,167704.0
63026.9385728983,167696.0
63026.94867270005,167717.0
63026.95877250179,167693.0
63026.96887230353,167696.0
63026.97897210527,167704.0
63026.98907190702,167753.0
63026.99917170876,167738.0
63027.009271510506,167719.0
63027.01937131224,167753.0
63027.02947111399,167716.0
63027.03957091573,167719.0
63027.049670717475,167700.0
63027.05977051922,167713.0
63027.06987032096,167730.0
63027.0799701227,167726.0
63027.090069924445,167724.0
63027.10016972619,167715.0
63027.110269527926,167672.0
63027.12036932967,167708.0
63027.130469131414,167719.0
63027.14056893316,167680.0
63027.1506687349,167700.0
63027.16076853664,167722.0
63027.170868338384,167663.0
63027.18096814013,167719.0
63027.19106794187,167698.0
63027.20116774362,167680.0
63027.21126754535,167679.0
63027.2213673471,167696.0
63027.23146714884,167695.0
63027.241566950586,167708.0
63027.25166675232,167690.0
63027.26176655407,167710.0
63027.27186635581,167705.0
63027.281966157556,167713.0
63027.2920659593,167693.0
63027.30216576104,167692.0
63027.31226556278,167684.0
63027.322365364525,167706.0
63027.33246516627,167741.0
63027.342564968014,167699.0
63027.35266476975,167707.0
63027.362764571495,167731.0
63027.37286437324,167694.0
63027.38296417498,167724.0
63027.39306397672,167748.0
63027.403163778465,167734.0
63027.41326358021,167767.0
63027.42336338195,167723.0
63027.4334631837,167751.0
63027.443562985434,167707.0
63027.45366278718,167725.0
63027.46376258892,167730.0
63027.47386239067,167693.0
63027.48396219241,167702.0
63027.49406199415,167698.0
63027.50416179589,167693.0
63027.51426159764,167642.0
63027.52436139938,167651.0
63027.53446120112,167643.0
63027.54456100286,167619.0
63027.554660804606,167601.0
63027.56476060635,167603.0
63027.574860408095,167656.0
63027.58496020983,167606.0
63027.595060011576,167652.0
63027.60515981332,167669.0
63027.615259615064,167685.0
63027.62535941681,167652.0
63027.635459218545,167709.0
63027.64555902029,167679.0
63027.655658822034,167696.0
63027.66575862378,167692.0
63027.675858425515,167680.0
63027.68595822726,167736.0
63027.696058029,167718.0
63027.70615783075,167763.0
63027.71625763249,167689.0
63027.72635743423,167699.0
63027.73645723597,167696.0
63027.74655703772,167694.0
63027.75665683946,167705.0
63027.766756641206,167729.0
63027.77685644294,167704.0
63027.78695624469,167688.0
63027.79705604643,167697.0
63027.807155848175,167661.0
63027.81725564991,167702.0
63027.827355451656,167677.0
63027.8374552534,167700.0
63027.847555055145,167645.0
63027.85765485689,167664.0
63027.867754658626,167647.0
63027.87785446037,167675.0
63027.887954262114,167674.0
63027.89805406386,167706.0
63027.9081538656,167747.0
63027.91825366734,167734.0
63027.928353469084,167699.0
63027.93845327083,167715.0
63027.94855307257,167677.0
63027.95865287431,167677.0
63027.96875267605,167710.0
63027.9788524778,167731.0
63027.98895227954,167704.0
63027.999052081286,167713.0
63028.00915188302,167748.0
63028.01925168477,167753.0
63028.02935148651,167739.0
63028.039451288256,167747.0
63028.04955109,167747.0
63028.05965089174,167753.0
63028.06975069348,167736.0
63028.079850495225,167728.0
63028.08995029697,167735.0
63028.10005009871,167768.0
63028.11014990045,167728.0
63028.120249702195,167703.0
63028.13034950394,167671.0
63028.14044930568,167629.0
63028.15054910742,167676.0
63028.160648909165,167677.0
63028.17074871091,167621.0
63028.18084851265,167635.0
63028.1909483144,167632.0
63028.201048116134,167637.0
63028.21114791788,167627.0
63028.22124771962,167665.0
63028.23134752137,167645.0
63028.241447323104,167657.0
63028.25154712485,167669.0
63028.26164692659,167692.0
63028.27174672834,167646.0
63028.28184653008,167650.0
63028.29194633182,167629.0
63028.30204613356,167672.0
63028.312145935306,167674.0
63028.32224573705,167652.0
63028.332345538794,167690.0
63028.34244534053,167662.0
63028.352545142276,167683.0
63028.36264494402,167705.0
63028.372744745764,167703.0
63028.3828445475,167665.0
63028.392944349245,167672.0
63028.40304415099,167688.0
63028.413143952734,167639.0
63028.42324375448,167682.0
63028.433343556215,167668.0
63028.44344335796,167674.0
63028.4535431597,167659.0
63028.46364296145,167687.0
63028.47374276319,167650.0
63028.48384256493,167651.0
63028.49394236667,167678.0
63028.50404216842,167682.0
63028.51414197016,167632.0
63028.5242417719,167672.0
63028.53434157364,167676.0
63028.54444137539,167652.0
63028.55454117713,167642.0
63028.564640978875,167661.0
63028.57474078061,167676.0
63028.584840582356,167679.0
63028.5949403841,167688.0
63028.605040185845,167662.0
63028.61513998758,167673.0
63028.625239789326,167679.0
63028.63533959107,167686.0
63028.645439392814,167652.0
63028.65553919456,167670.0
63028.665638996295,167705.0
63028.67573879804,167700.0
63028.685838599784,167682.0
63028.69593840153,167691.0
63028.70603820327,167700.0
63028.71613800501,167673.0
63028.72623780675,167688.0
63028.7363376085,167698.0
63028.74643741024,167673.0
63028.75653721198,167680.0
63028.76663701372,167661.0
63028.77673681547,167653.0
63028.78683661721,167651.0
63028.796936418956,167633.0
63028.80703622069,167578.0
63028.81713602244,167568.0
63028.82723582418,167580.0
63028.837335625925,167588.0
63028.84743542767,167589.0
63028.85753522941,167565.0
63028.86763503115,167606.0
63028.877734832895,167592.0
63028.88783463464,167585.0
63028.897934436376,167607.0
63028.90803423812,167532.0
63028.918134039865,167598.0
63028.92823384161,167593.0
63028.93833364335,167604.0
63028.94843344509,167593.0
63028.958533246834,167607.0
63028.96863304858,167631.0
63028.97873285032,167628.0
63028.98883265207,167598.0
63028.998932453804,167657.0
63029.00903225555,167645.0
63029.01913205729,167618.0
63029.02923185904,167631.0
63029.03933166077,167639.0
63029.04943146252,167632.0
63029.05953126426,167627.0
63029.069631066006,167633.0
63029.07973086775,167622.0
63029.08983066949,167633.0
63029.09993047123,167609.0
63029.110030272976,167636.0
63029.12013007472,167598.0
63029.130229876464,167617.0
63029.1403296782,167612.0
63029.150429479945,167615.0
63029.16052928169,167613.0
63029.17062908343,167623.0
63029.18072888517,167581.0
63029.190828686915,167592.0
63029.20092848866,167623.0
63029.2110282904,167606.0
63029.22112809215,167603.0
63029.231227893884,167601.0
63029.24132769563,167613.0
63029.25142749737,167582.0
63029.26152729912,167628.0
63029.27162710086,167636.0
63029.2817269026,167637.0
63029.29182670434,167652.0
63029.30192650609,167624.0
63029.31202630783,167652.0
63029.32212610957,167621.0
63029.33222591131,167606.0
63029.342325713056,167617.0
63029.3524255148,167624.0
63029.362525316545,167623.0
63029.37262511828,167625.0
63029.382724920026,167620.0
63029.39282472177,167614.0
63029.402924523514,167645.0
63029.41302432526,167623.0
63029.423124126995,167602.0
63029.43322392874,167563.0
63029.443323730484,167582.0
63029.45342353223,167498.0
63029.463523333965,167519.0
63029.47362313571,167514.0
63029.48372293745,167526.0
63029.4938227392,167487.0
63029.50392254094,167522.0
63029.51402234268,167553.0
63029.52412214442,167515.0
63029.53422194617,167535.0
63029.54432174791,167542.0
63029.554421549656,167537.0
63029.56452135139,167528.0
63029.57462115314,167531.0
63029.58472095488,167559.0
63029.594820756625,167543.0
63029.60492055836,167568.0
63029.61502036011,167574.0
63029.62512016185,167536.0
63029.635219963595,167567.0
63029.64531976534,167550.0
63029.655419567076,167577.0
63029.66551936882,167552.0
63029.675619170564,167561.0
63029.68571897231,167545.0
63029.69581877405,167526.0
63029.70591857579,167558.0
63029.716018377534,167579.0
63029.72611817928,167545.0
63029.73621798102,167568.0
63029.74631778276,167566.0
63029.756417584504,167574.0
63029.76651738625,167591.0
63029.77661718799,167541.0
63029.786716989736,167585.0
63029.79681679147,167560.0
63029.80691659322,167556.0
63029.81701639496,167563.0
63029.827116196706,167598.0
63029.83721599845,167577.0
63029.84731580019,167556.0
63029.85741560193,167565.0
63029.867515403675,167568.0
63029.87761520542,167607.0
63029.88771500716,167594.0
63029.8978148089,167592.0
63029.907914610645,167583.0
63029.91801441239,167621.0
63029.92811421413,167642.0
63029.93821401587,167602.0
63029.948313817615,167617.0
63029.95841361936,167623.0
63029.9685134211,167624.0
63029.97861322285,167629.0
63029.988713024584,167650.0
63029.99881282633,167623.0
63030.00891262807,167601.0
63030.01901242982,167634.0
63030.029112231554,167626.0
63030.0392120333,167644.0
63030.04931183504,167600.0
63030.05941163679,167655.0
63030.06951143853,167619.0
63030.07961124027,167612.0
63030.08971104201,167584.0
63030.099810843756,167598.0
63030.1099106455,167553.0
63030.120010447245,167572.0
63030.13011024898,167526.0
63030.140210050726,167521.0
63030.15030985247,167549.0
63030.160409654214,167566.0
63030.17050945595,167546.0
63030.180609257695,167535.0
63030.19070905944,167569.0
63030.200808861184,167547.0
63030.21090866293,167570.0
63030.221008464665,167533.0
63030.23110826641,167541.0
63030.24120806815,167547.0
63030.2513078699,167615.0
63030.26140767164,167603.0
63030.27150747338,167580.0
63030.28160727512,167611.0
63030.29170707687,167594.0
63030.30180687861,167596.0
63030.31190668035,167581.0
63030.32200648209,167624.0
63030.33210628384,167608.0
63030.34220608558,167593.0
63030.352305887325,167619.0
63030.36240568906,167633.0
63030.372505490806,167611.0
63030.38260529255,167565.0
63030.392705094295,167620.0
63030.40280489604,167607.0
63030.412904697776,167620.0
63030.42300449952,167587.0
63030.433104301264,167603.0
63030.44320410301,167593.0
63030.453303904746,167607.0
63030.46340370649,167643.0
63030.473503508234,167609.0
63030.48360330998,167619.0
63030.49370311172,167630.0
63030.50380291346,167654.0
63030.5139027152,167629.0
63030.52400251695,167622.0
63030.53410231869,167635.0
63030.544202120436,167637.0
63030.55430192217,167611.0
63030.56440172392,167614.0
63030.57450152566,167641.0
63030.584601327406,167626.0
63030.59470112914,167638.0
63030.60480093089,167617.0
63030.61490073263,167616.0
63030.625000534375,167647.0
63030.63510033612,167638.0
63030.64520013786,167659.0
63030.6552999396,167670.0
63030.665399741345,167649.0
63030.67549954309,167672.0
63030.68559934483,167639.0
63030.69569914657,167678.0
63030.705798948315,167653.0
63030.71589875006,167653.0
63030.7259985518,167658.0
63030.73609835354,167626.0
63030.746198155284,167635.0
63030.75629795703,167616.0
63030.76639775877,167651.0
63030.77649756052,167583.0
63030.786597362254,167565.0
63030.796697164,167558.0
63030.80679696574,167587.0
63030.81689676749,167534.0
63030.82699656923,167574.0
63030.83709637097,167570.0
63030.84719617271,167586.0
63030.857295974456,167604.0
63030.8673957762,167602.0
63030.87749557794,167615.0
63030.88759537968,167578.0
63030.897695181426,167596.0
63030.90779498317,167617.0
63030.917894784914,167592.0
63030.92799458665,167615.0
63030.938094388395,167638.0
63030.94819419014,167641.0
63030.958293991884,167660.0
63030.96839379363,167681.0
63030.978493595365,167698.0
63030.98859339711,167679.0
63030.99869319885,167684.0
63031.0087930006,167695.0
63031.018892802334,167650.0
63031.02899260408,167669.0
63031.03909240582,167655.0
63031.04919220757,167640.0
63031.05929200931,167643.0
63031.06939181105,167637.0
63031.07949161279,167663.0
63031.08959141454,167645.0
63031.09969121628,167662.0
63031.109791018025,167654.0
63031.11989081976,167631.0
63031.129990621506,167637.0
63031.14009042325,167644.0
63031.150190224995,167659.0
63031.16029002673,167654.0
63031.170389828476,167636.0
63031.18048963022,167657.0
63031.190589431964,167626.0
63031.20068923371,167632.0
63031.210789035445,167610.0
63031.22088883719,167670.0
63031.230988638934,167634.0
63031.24108844068,167645.0
63031.25118824242,167629.0
63031.26128804416,167636.0
63031.2713878459,167679.0
63031.28148764765,167642.0
63031.29158744939,167638.0
63031.30168725113,167650.0
63031.31178705287,167663.0
63031.32188685462,167622.0
63031.33198665636,167620.0
63031.342086458106,167633.0
63031.35218625984,167687.0
63031.36228606159,167680.0
63031.37238586333,167673.0
63031.382485665075,167651.0
63031.39258546682,167646.0
63031.40268526856,167651.0
63031.4127850703,167607.0
63031.422884872045,167637.0
63031.43298467379,167586.0
63031.443084475526,167569.0
63031.45318427727,167520.0
63031.463284079015,167525.0
63031.47338388076,167547.0
63031.4834836825,167541.0
63031.49358348424,167580.0
63031.503683285984,167602.0
63031.51378308773,167583.0
63031.52388288947,167594.0
63031.53398269122,167606.0
63031.544082492954,167603.0
63031.5541822947,167615.0
63031.56428209644,167612.0
63031.57438189819,167617.0
63031.58448169992,167622.0
63031.59458150167,167623.0
63031.60468130341,167618.0
63031.614781105156,167650.0
63031.6248809069,167647.0
63031.63498070864,167642.0
63031.64508051038,167608.0
63031.655180312126,167604.0
63031.66528011387,167582.0
63031.675379915614,167600.0
63031.68547971735,167597.0
63031.695579519095,167567.0
63031.70567932084,167606.0
63031.71577912258,167579.0
63031.72587892432,167574.0
63031.735978726065,167588.0
63031.74607852781,167585.0
63031.75617832955,167608.0
63031.7662781313,167585.0
63031.776377933034,167580.0
63031.78647773478,167574.0
63031.79657753652,167550.0
63031.80667733827,167551.0
63031.81677714001,167580.0
63031.82687694175,167581.0
63031.83697674349,167586.0
63031.84707654524,167565.0
63031.85717634698,167576.0
63031.86727614872,167573.0
63031.87737595046,167571.0
63031.887475752206,167579.0
63031.89757555395,167617.0
63031.907675355695,167647.0
63031.91777515743,167617.0
63031.927874959176,167653.0
63031.93797476092,167648.0
63031.948074562664,167637.0
63031.95817436441,167679.0
63031.968274166145,167633.0
63031.97837396789,167648.0
63031.988473769634,167614.0
63031.99857357138,167678.0
63032.008673373115,167660.0
63032.01877317486,167667.0
63032.0288729766,167683.0
63032.03897277835,167673.0
63032.04907258009,167639.0
63032.05917238183,167642.0
63032.06927218357,167635.0
63032.07937198532,167613.0
63032.08947178706,167584.0
63032.099571588806,167581.0
63032.10967139054,167580.0
63032.11977119229,167575.0
63032.12987099403,167538.0
63032.139970795775,167541.0
63032.15007059751,167536.0
63032.16017039926,167558.0
63032.170270201,167524.0
63032.180370002745,167533.0
63032.19046980449,167542.0
63032.200569606226,167541.0
63032.21066940797,167515.0
63032.220769209714,167573.0
63032.23086901146,167557.0
63032.2409688132,167544.0
63032.25106861494,167577.0
63032.261168416684,167598.0
63032.27126821843,167576.0
63032.28136802017,167578.0
63032.29146782191,167558.0
63032.301567623654,167615.0
63032.3116674254,167596.0
63032.32176722714,167590.0
63032.331867028886,167559.0
63032.34196683062,167587.0
63032.35206663237,167590.0
63032.36216643411,167585.0
63032.372266235856,167559.0
63032.3823660376,167576.0
63032.39246583934,167571.0
63032.40256564108,167567.0
63032.412665442826,167553.0
63032.42276524457,167598.0
63032.43286504631,167590.0
63032.44296484805,167583.0
63032.453064649795,167573.0
63032.46316445154,167601.0
63032.47326425328,167573.0
63032.48336405502,167561.0
63032.493463856765,167584.0
63032.50356365851,167584.0
63032.51366346025,167566.0
63032.523763262,167602.0
63032.533863063734,167562.0
63032.54396286548,167568.0
63032.55406266722,167596.0
63032.56416246897,167596.0
63032.574262270704,167598.0
63032.58436207245,167570.0
63032.59446187419,167590.0
63032.60456167594,167548.0
63032.61466147768,167572.0
63032.62476127942,167614.0
63032.63486108116,167581.0
63032.644960882906,167578.0
63032.65506068465,167576.0
63032.66516048639,167616.0
63032.67526028813,167586.0
63032.685360089876,167571.0
63032.69545989162,167608.0
63032.705559693364,167601.0
63032.7156594951,167590.0
63032.725759296845,167580.0
63032.73585909859,167588.0
63032.745958900334,167554.0
63032.75605870208,167545.0
63032.766158503815,167530.0
63032.77625830556,167513.0
63032.7863581073,167460.0
63032.79645790905,167452.0
63032.806557710785,167448.0
63032.81665751253,167434.0
63032.82675731427,167456.0
63032.83685711602,167498.0
63032.84695691776,167478.0
63032.8570567195,167441.0
63032.86715652124,167496.0
63032.87725632299,167471.0
63032.88735612473,167476.0
63032.897455926475,167483.0
63032.90755572821,167497.0
63032.91765552996,167472.0
63032.9277553317,167498.0
63032.937855133445,167523.0
63032.94795493518,167477.0
63032.958054736926,167507.0
63032.96815453867,167508.0
63032.978254340414,167499.0
63032.98835414216,167490.0
63032.998453943896,167482.0
63033.00855374564,167510.0
63033.018653547384,167496.0
63033.02875334913,167498.0
63033.03885315087,167517.0
63033.04895295261,167486.0
63033.05905275435,167470.0
63033.0691525561,167478.0
63033.07925235784,167471.0
63033.08935215958,167485.0
63033.09945196132,167481.0
63033.10955176307,167490.0
63033.11965156481,167449.0
63033.129751366556,167487.0
63033.13985116829,167502.0
63033.14995097004,167491.0
63033.16005077178,167440.0
63033.170150573525,167473.0
63033.18025037527,167493.0
63033.19035017701,167449.0
63033.20044997875,167480.0
63033.210549780495,167488.0
63033.22064958224,167480.0
63033.230749383976,167495.0
63033.24084918572,167481.0
63033.250948987465,167474.0
63033.26104878921,167505.0
63033.27114859095,167492.0
63033.28124839269,167522.0
63033.291348194434,167478.0
63033.30144799618,167512.0
63033.31154779792,167504.0
63033.32164759967,167473.0
63033.331747401404,167480.0
63033.34184720315,167500.0
63033.35194700489,167504.0
63033.36204680664,167477.0
63033.37214660837,167496.0
63033.38224641012,167505.0
63033.39234621186,167531.0
63033.402446013606,167508.0
63033.41254581535,167500.0
63033.42264561709,167501.0
63033.43274541883,167482.0
63033.442845220576,167457.0
63033.45294502232,167487.0
63033.463044824064,167428.0
63033.4731446258,167416.0
63033.483244427545,167419.0
63033.49334422929,167373.0
63033.503444031034,167398.0
63033.51354383277,167399.0
63033.523643634515,167433.0
63033.53374343626,167431.0
63033.543843238,167398.0
63033.55394303975,167405.0
63033.564042841484,167400.0
63033.57414264323,167390.0
63033.58424244497,167411.0
63033.59434224672,167424.0
63033.60444204846,167404.0
63033.6145418502,167424.0
63033.62464165194,167421.0
63033.63474145369,167431.0
63033.64484125543,167421.0
63033.65494105717,167457.0
63033.66504085891,167434.0
63033.675140660656,167406.0
63033.6852404624,167442.0
63033.695340264145,167426.0
63033.70544006588,167436.0
63033.715539867626,167433.0
63033.72563966937,167423.0
63033.735739471114,167443.0
63033.74583927286,167430.0
63033.755939074596,167413.0
63033.76603887634,167420.0
63033.776138678084,167391.0
63033.78623847983,167435.0
63033.796338281565,167410.0
63033.80643808331,167386.0
63033.81653788505,167417.0
63033.8266376868,167383.0
63033.83673748854,167426.0
63033.84683729028,167398.0
63033.85693709202,167460.0
63033.86703689377,167372.0
63033.87713669551,167418.0
63033.887236497256,167423.0
63033.89733629899,167454.0
63033.90743610074,167420.0
63033.91753590248,167431.0
63033.927635704225,167458.0
63033.93773550596,167443.0
63033.94783530771,167468.0
63033.95793510945,167450.0
63033.968034911195,167471.0
63033.97813471294,167425.0
63033.988234514676,167486.0
63033.99833431642,167449.0
63034.008434118165,167441.0
63034.01853391991,167473.0
63034.02863372165,167488.0
63034.03873352339,167457.0
63034.048833325134,167443.0
63034.05893312688,167450.0
63034.06903292862,167446.0
63034.07913273036,167471.0
63034.089232532104,167442.0
63034.09933233385,167500.0
63034.10943213559,167459.0
63034.11953193734,167465.0
63034.12963173907,167446.0
63034.13973154082,167439.0
63034.14983134256,167434.0
63034.159931144306,167421.0
63034.17003094605,167438.0
63034.18013074779,167395.0
63034.19023054953,167387.0
63034.200330351276,167372.0
63034.21043015302,167386.0
63034.22052995476,167356.0
63034.2306297565,167385.0
63034.240729558245,167372.0
63034.25082935999,167325.0
63034.260929161734,167376.0
63034.27102896347,167377.0
63034.281128765215,167377.0
63034.29122856696,167369.0
63034.3013283687,167371.0
63034.31142817045,167356.0
63034.321527972184,167413.0
63034.33162777393,167379.0
63034.34172757567,167371.0
63034.35182737742,167392.0
63034.361927179154,167422.0
63034.3720269809,167405.0
63034.38212678264,167400.0
63034.39222658439,167413.0
63034.40232638613,167399.0
63034.41242618787,167407.0
63034.42252598961,167368.0
63034.432625791356,167421.0
63034.4427255931,167370.0
63034.452825394845,167392.0
63034.46292519658,167385.0
63034.473024998326,167388.0
63034.48312480007,167364.0
63034.493224601814,167403.0
63034.50332440355,167412.0
63034.513424205295,167430.0
63034.52352400704,167393.0
63034.533623808784,167420.0
63034.54372361053,167390.0
63034.553823412265,167412.0
63034.56392321401,167385.0
63034.57402301575,167415.0
63034.5841228175,167398.0
63034.59422261924,167402.0
63034.60432242098,167402.0
63034.61442222272,167419.0
63034.62452202447,167421.0
63034.63462182621,167427.0
63034.64472162795,167375.0
63034.65482142969,167413.0
63034.66492123144,167427.0
63034.67502103318,167434.0
63034.685120834925,167466.0
63034.69522063666,167442.0
63034.70532043841,167467.0
63034.71542024015,167459.0
63034.725520041895,167453.0
63034.73561984364,167445.0
63034.745719645376,167449.0
63034.75581944712,167420.0
63034.765919248865,167412.0
63034.77601905061,167444.0
63034.786118852346,167439.0
63034.79621865409,167411.0
63034.806318455834,167409.0
63034.81641825758,167476.0
63034.82651805932,167459.0
63034.83661786106,167478.0
63034.846717662804,167454.0
63034.85681746455,167443.0
63034.86691726629,167461.0
63034.87701706804,167423.0
63034.88711686977,167460.0
63034.89721667152,167450.0
63034.90731647326,167417.0
63034.917416275006,167388.0
63034.92751607674,167398.0
63034.93761587849,167331.0
63034.94771568023,167354.0
63034.957815481976,167363.0
63034.96791528372,167397.0
63034.97801508546,167369.0
63034.9881148872,167373.0
63034.998214688945,167374.0
63035.00831449069,167372.0
63035.01841429243,167403.0
63035.02851409417,167394.0
63035.038613895915,167407.0
63035.04871369766,167382.0
63035.0588134994,167429.0
63035.06891330114,167395.0
63035.079013102884,167426.0
63035.08911290463,167427.0
63035.09921270637,167421.0
63035.10931250812,167426.0
63035.119412309854,167402.0
63035.1295121116,167457.0
63035.13961191334,167428.0
63035.14971171509,167442.0
63035.15981151683,167433.0
63035.16991131857,167447.0
63035.18001112031,167465.0
63035.190110922056,167429.0
63035.2002107238,167406.0
63035.21031052554,167422.0
63035.22041032728,167469.0
63035.230510129026,167441.0
63035.24060993077,167473.0
63035.250709732514,167428.0
63035.26080953425,167484.0
63035.270909335995,167461.0
63035.28100913774,167473.0
63035.291108939484,167502.0
63035.30120874123,167497.0
63035.311308542965,167461.0
63035.32140834471,167468.0
63035.33150814645,167475.0
63035.3416079482,167478.0
63035.351707749935,167484.0
63035.36180755168,167492.0
63035.37190735342,167501.0
63035.38200715517,167531.0
63035.39210695691,167543.0
63035.40220675865,167522.0
63035.41230656039,167534.0
63035.42240636214,167527.0
63035.43250616388,167555.0
63035.442605965625,167536.0
63035.45270576736,167525.0
63035.46280556911,167529.0
63035.47290537085,167517.0
63035.483005172595,167523.0
63035.49310497433,167558.0
63035.503204776076,167538.0
63035.51330457782,167513.0
63035.523404379564,167556.0
63035.53350418131,167584.0
63035.543603983046,167555.0
63035.55370378479,167570.0
63035.563803586534,167573.0
63035.57390338828,167569.0
63035.58400319002,167558.0
63035.59410299176,167586.0
63035.604202793504,167579.0
63035.61430259525,167525.0
63035.62440239699,167555.0
63035.63450219873,167565.0
63035.64460200047,167570.0
63035.65470180222,167581.0
63035.66480160396,167545.0
63035.674901405706,167541.0
63035.68500120744,167534.0
63035.69510100919,167501.0
63035.70520081093,167485.0
63035.715300612675,167433.0
63035.72540041442,167454.0
63035.73550021616,167510.0
63035.7456000179,167458.0
63035.755699819645,167475.0
63035.76579962139,167464.0
63035.775899423126,167489.0
63035.78599922487,167456.0
63035.796099026615,167512.0
63035.80619882836,167477.0
63035.8162986301,167463.0
63035.82639843184,167439.0
63035.836498233584,167460.0
63035.84659803533,167417.0
63035.85669783707,167451.0
63035.86679763882,167469.0
63035.876897440554,167448.0
63035.8869972423,167460.0
63035.89709704404,167477.0
63035.90719684579,167501.0
63035.91729664752,167485.0
63035.92739644927,167521.0
63035.93749625101,167521.0
63035.947596052756,167510.0
63035.9576958545,167504.0
63035.96779565624,167530.0
63035.97789545798,167513.0
63035.987995259726,167519.0
63035.99809506147,167482.0
63036.008194863214,167487.0
63036.01829466495,167485.0
63036.028394466695,167483.0
63036.03849426844,167517.0
63036.048594070184,167483.0
63036.05869387192,167528.0
63036.068793673665,167509.0
63036.07889347541,167529.0
63036.08899327715,167505.0
63036.0990930789,167533.0
63036.109192880635,167521.0
63036.11929268238,167530.0
63036.12939248412,167534.0
63036.13949228587,167542.0
63036.14959208761,167515.0
63036.15969188935,167521.0
63036.16979169109,167549.0
63036.17989149284,167559.0
63036.18999129458,167552.0
63036.20009109632,167569.0
63036.21019089806,167583.0
63036.220290699806,167552.0
63036.23039050155,167543.0
63036.240490303295,167543.0
63036.25059010503,167572.0
63036.260689906776,167551.0
63036.27078970852,167540.0
63036.280889510264,167562.0
63036.29098931201,167518.0
63036.301089113746,167563.0
63036.31118891549,167557.0
63036.321288717234,167562.0
63036.33138851898,167585.0
63036.341488320715,167588.0
63036.35158812246,167581.0
63036.3616879242,167555.0
63036.37178772595,167536.0
63036.38188752769,167552.0
63036.39198732943,167580.0
63036.40208713117,167602.0
63036.41218693292,167591.0
63036.42228673466,167551.0
63036.432386536406,167578.0
63036.44248633814,167531.0
63036.45258613989,167574.0
63036.46268594163,167521.0
63036.472785743375,167487.0
63036.48288554511,167469.0
63036.49298534686,167459.0
63036.5030851486,167462.0
63036.513184950345,167471.0
63036.52328475209,167466.0
63036.533384553826,167463.0
63036.54348435557,167479.0
63036.553584157315,167467.0
63036.56368395906,167448.0
63036.5737837608,167445.0
63036.58388356254,167492.0
63036.593983364284,167495.0
63036.60408316603,167473.0
63036.61418296777,167488.0
63036.62428276951,167459.0
63036.634382571254,167499.0
63036.644482373,167497.0
63036.65458217474,167507.0
63036.66468197649,167483.0
63036.67478177822,167508.0
63036.68488157997,167504.0
63036.69498138171,167507.0
63036.705081183456,167469.0
63036.71518098519,167521.0
63036.72528078694,167552.0
63036.73538058868,167487.0
63036.745480390426,167508.0
63036.75558019217,167505.0
63036.76567999391,167477.0
63036.77577979565,167483.0
63036.785879597395,167495.0
63036.79597939914,167500.0
63036.806079200884,167480.0
63036.81617900262,167533.0
63036.826278804365,167462.0
63036.83637860611,167489.0
63036.84647840785,167486.0
63036.85657820959,167518.0
63036.866678011334,167490.0
63036.87677781308,167499.0
63036.88687761482,167498.0
63036.89697741657,167523.0
63036.907077218304,167495.0
63036.91717702005,167542.0
63036.92727682179,167516.0
63036.93737662354,167465.0
63036.94747642528,167512.0
63036.95757622702,167538.0
63036.96767602876,167516.0
63036.977775830506,167495.0
63036.98787563225,167504.0
63036.99797543399,167540.0
63037.00807523573,167528.0
63037.018175037476,167510.0
63037.02827483922,167498.0
63037.038374640964,167512.0
63037.0484744427,167522.0
63037.058574244445,167521.0
63037.06867404619,167538.0
63037.078773847934,167489.0
63037.08887364968,167524.0
63037.098973451415,167555.0
63037.10907325316,167522.0
63037.1191730549,167553.0
63037.12927285665,167549.0
63037.139372658385,167524.0
63037.14947246013,167517.0
63037.15957226187,167582.0
63037.16967206362,167537.0
63037.17977186536,167534.0
63037.1898716671,167529.0
63037.19997146884,167519.0
63037.21007127059,167457.0
63037.22017107233,167436.0
63037.230270874075,167429.0
63037.24037067581,167428.0
63037.25047047756,167416.0
63037.2605702793,167408.0
63037.270670081045,167405.0
63037.28076988278,167391.0
63037.290869684526,167407.0
63037.30096948627,167417.0
63037.311069288015,167423.0
63037.32116908976,167428.0
63037.331268891496,167416.0
63037.34136869324,167363.0
63037.351468494984,167399.0
63037.36156829673,167434.0
63037.37166809847,167414.0
63037.38176790021,167439.0
63037.391867701954,167428.0
63037.4019675037,167463.0
63037.41206730544,167434.0
63037.42216710718,167431.0
63037.43226690892,167472.0
63037.44236671067,167416.0
63037.45246651241,167439.0
63037.462566314156,167449.0
63037.47266611589,167420.0
63037.48276591764,167383.0
63037.49286571938,167424.0
63037.502965521126,167431.0
63037.51306532287,167447.0
63037.52316512461,167435.0
63037.53326492635,167408.0
63037.543364728095,167429.0
63037.55346452984,167429.0
63037.563564331576,167428.0
63037.57366413332,167441.0
63037.583763935065,167429.0
63037.59386373681,167418.0
63037.60396353855,167439.0
63037.61406334029,167416.0
63037.624163142034,167429.0
63037.63426294378,167463.0
63037.64436274552,167398.0
63037.65446254727,167455.0
63037.664562349004,167429.0
63037.67466215075,167431.0
63037.68476195249,167408.0
63037.69486175424,167437.0
63037.70496155597,167441.0
63037.71506135772,167450.0
63037.72516115946,167436.0
63037.735260961206,167452.0
63037.74536076295,167451.0
63037.75546056469,167423.0
63037.76556036643,167422.0
63037.775660168176,167439.0
63037.78575996992,167448.0
63037.795859771664,167457.0
63037.8059595734,167426.0
63037.816059375145,167439.0
63037.82615917689,167433.0
63037.836258978634,167466.0
63037.84635878037,167420.0
63037.856458582115,167426.0
63037.86655838386,167460.0
63037.8766581856,167467.0
63037.88675798735,167449.0
63037.896857789085,167436.0
63037.90695759083,167445.0
63037.91705739257,167474.0
63037.92715719432,167457.0
63037.93725699606,167450.0
63037.9473567978,167442.0
63037.95745659954,167433.0
63037.96755640129,167415.0
63037.97765620303,167400.0
63037.98775600477,167372.0
63037.99785580651,167365.0
63038.00795560826,167347.0
63038.01805541,167372.0
63038.028155211745,167345.0
63038.03825501348,167338.0
63038.048354815226,167353.0
63038.05845461697,167333.0
63038.068554418714,167351.0
63038.07865422046,167354.0
63038.088754022196,167366.0
63038.09885382394,167345.0
63038.108953625684,167341.0
63038.11905342743,167366.0
63038.129153229165,167396.0
63038.13925303091,167379.0
63038.149352832654,167357.0
63038.1594526344,167368.0
63038.16955243614,167400.0
63038.17965223788,167358.0
63038.18975203962,167392.0
63038.19985184137,167389.0
63038.20995164311,167342.0
63038.220051444856,167389.0
63038.23015124659,167386.0
63038.24025104834,167388.0
63038.25035085008,167385.0
63038.260450651826,167380.0
63038.27055045356,167410.0
63038.28065025531,167374.0
63038.29075005705,167378.0
63038.300849858795,167395.0
63038.31094966054,167355.0
63038.321049462276,167375.0
63038.33114926402,167358.0
63038.341249065765,167338.0
63038.35134886751,167353.0
63038.36144866925,167381.0
63038.37154847099,167379.0
63038.381648272734,167373.0
63038.39174807448,167392.0
63038.40184787622,167380.0
63038.41194767796,167346.0
63038.422047479704,167371.0
63038.43214728145,167352.0
63038.44224708319,167370.0
63038.45234688494,167403.0
63038.46244668667,167383.0
63038.47254648842,167394.0
63038.48264629016,167361.0
63038.492746091906,167393.0
63038.50284589365,167388.0
63038.51294569539,167393.0
63038.52304549713,167415.0
63038.533145298876,167403.0
63038.54324510062,167402.0
63038.55334490236,167414.0
63038.5634447041,167370.0
63038.573544505845,167401.0
63038.58364430759,167444.0
63038.593744109334,167395.0
63038.60384391107,167423.0
63038.613943712815,167412.0
63038.62404351456,167397.0
63038.6341433163,167374.0
63038.64424311805,167424.0
63038.654342919785,167420.0
63038.66444272153,167409.0
63038.67454252327,167442.0
63038.68464232502,167359.0
63038.694742126754,167414.0
63038.7048419285,167395.0
63038.71494173024,167396.0
63038.72504153199,167392.0
63038.73514133373,167364.0
63038.74524113547,167329.0
63038.75534093721,167339.0
63038.76544073896,167320.0
63038.7755405407,167321.0
63038.785640342445,167358.0
63038.79574014418,167307.0
63038.805839945926,167323.0
63038.81593974767,167307.0
63038.826039549414,167310.0
63038.83613935115,167290.0
63038.846239152896,167320.0
63038.85633895464,167334.0
63038.866438756384,167308.0
63038.87653855813,167365.0
63038.886638359865,167325.0
63038.89673816161,167338.0
63038.90683796335,167334.0
63038.9169377651,167337.0
63038.92703756684,167343.0
63038.93713736858,167348.0
63038.94723717032,167349.0
63038.95733697207,167326.0
63038.96743677381,167397.0
63038.97753657555,167383.0
63038.98763637729,167380.0
63038.99773617904,167364.0
63039.00783598078,167344.0
63039.017935782525,167325.0
63039.02803558426,167375.0
63039.03813538601,167331.0
63039.04823518775,167345.0
63039.058334989495,167361.0
63039.06843479124,167372.0
63039.078534592976,167381.0
63039.08863439472,167361.0
63039.098734196465,167340.0
63039.10883399821,167376.0
63039.118933799946,167398.0
63039.12903360169,167364.0
63039.139133403434,167393.0
63039.14923320518,167379.0
63039.15933300692,167340.0
63039.16943280866,167340.0
63039.179532610404,167392.0
63039.18963241215,167386.0
63039.19973221389,167340.0
63039.20983201564,167387.0
63039.21993181737,167343.0
63039.23003161912,167398.0
63039.24013142086,167371.0
63039.250231222606,167379.0
63039.26033102434,167362.0
63039.27043082609,167391.0
63039.28053062783,167387.0
63039.290630429576,167387.0
63039.30073023132,167382.0
63039.31083003306,167408.0
63039.3209298348,167427.0
63039.331029636545,167388.0
63039.34112943829,167420.0
63039.351229240034,167386.0
63039.36132904177,167384.0
63039.371428843515,167403.0
63039.38152864526,167459.0
63039.391628447,167441.0
63039.40172824874,167415.0
63039.411828050484,167447.0
63039.42192785223,167421.0
63039.43202765397,167434.0
63039.44212745572,167418.0
63039.452227257454,167443.0
63039.4623270592,167427.0
63039.47242686094,167430.0
63039.48252666269,167433.0
63039.49262646443,167431.0
63039.50272626617,167361.0
63039.51282606791,167398.0
63039.522925869656,167354.0
63039.5330256714,167331.0
63039.54312547314,167315.0
63039.55322527488,167296.0
63039.563325076626,167322.0
63039.57342487837,167294.0
63039.583524680114,167339.0
63039.59362448185,167338.0
63039.603724283596,167343.0
63039.61382408534,167331.0
63039.623923887084,167342.0
63039.63402368883,167348.0
63039.644123490565,167352.0
63039.65422329231,167381.0
63039.66432309405,167373.0
63039.6744228958,167360.0
63039.684522697535,167369.0
63039.69462249928,167388.0
63039.70472230102,167367.0
63039.71482210277,167374.0
63039.72492190451,167388.0
63039.73502170625,167390.0
63039.74512150799,167366.0
63039.75522130974,167398.0
63039.76532111148,167388.0
63039.775420913225,167395.0
63039.78552071496,167400.0
63039.79562051671,167398.0
63039.80572031845,167396.0
63039.815820120195,167384.0
63039.82591992193,167415.0
63039.836019723676,167401.0
63039.84611952542,167398.0
63039.856219327165,167385.0
63039.86631912891,167400.0
63039.876418930646,167406.0
63039.88651873239,167386.0
63039.896618534134,167429.0
63039.90671833588,167385.0
63039.91681813762,167380.0
63039.92691793936,167396.0
63039.937017741104,167398.0
63039.94711754285,167393.0
63039.95721734459,167422.0
63039.96731714633,167398.0
63039.97741694807,167420.0
63039.98751674982,167419.0
63039.99761655156,167437.0
63040.007716353306,167443.0
63040.01781615504,167411.0
63040.02791595679,167416.0
63040.03801575853,167438.0
63040.048115560276,167430.0
63040.05821536202,167431.0
63040.06831516376,167401.0
63040.0784149655,167456.0
63040.088514767245,167436.0
63040.09861456899,167450.0
63040.10871437073,167429.0
63040.11881417247,167407.0
63040.128913974215,167464.0
63040.13901377596,167456.0
63040.1491135777,167458.0
63040.15921337944,167457.0
63040.169313181184,167487.0
63040.17941298293,167454.0
63040.18951278467,167463.0
63040.19961258642,167442.0
63040.209712388154,167455.0
63040.2198121899,167453.0
63040.22991199164,167467.0
63040.24001179339,167478.0
63040.25011159512,167412.0
63040.26021139687,167447.0
63040.27031119861,167390.0
63040.280411000356,167396.0
63040.2905108021,167378.0
63040.30061060384,167367.0
63040.31071040558,167372.0
63040.320810207326,167343.0
63040.33091000907,167387.0
63040.341009810814,167381.0
63040.35110961255,167413.0
63040.361209414295,167374.0
63040.37130921604,167388.0
63040.381409017784,167380.0
63040.39150881952,167361.0
63040.401608621265,167368.0
63040.41170842301,167415.0
63040.42180822475,167386.0
63040.4319080265,167404.0
63040.442007828235,167426.0
63040.45210762998,167401.0
63040.46220743172,167417.0
63040.47230723347,167399.0
63040.48240703521,167457.0
63040.49250683695,167405.0
63040.50260663869,167430.0
63040.51270644044,167407.0
63040.52280624218,167385.0
63040.53290604392,167411.0
63040.54300584566,167427.0
63040.55310564741,167395.0
63040.56320544915,167403.0
63040.573305250895,167425.0
63040.58340505263,167404.0
63040.593504854376,167413.0
63040.60360465612,167380.0
63040.613704457865,167418.0
63040.62380425961,167391.0
63040.633904061346,167412.0
63040.64400386309,167390.0
63040.654103664834,167386.0
63040.66420346658,167426.0
63040.674303268315,167407.0
63040.68440307006,167415.0
63040.694502871804,167394.0
63040.70460267355,167431.0
63040.71470247529,167413.0
63040.72480227703,167397.0
63040.73490207877,167399.0
63040.74500188052,167447.0
63040.75510168226,167434.0
63040.765201484,167413.0
63040.77530128574,167418.0
63040.78540108749,167461.0
63040.79550088923,167434.0
63040.805600690976,167425.0
63040.81570049271,167460.0
63040.82580029446,167407.0
63040.8359000962,167422.0
63040.845999897945,167418.0
63040.85609969969,167466.0
63040.866199501426,167439.0
63040.87629930317,167452.0
63040.886399104915,167462.0
63040.89649890666,167463.0
63040.906598708396,167461.0
63040.91669851014,167450.0
63040.926798311884,167421.0
63040.93689811363,167413.0
63040.94699791537,167451.0
63040.95709771711,167447.0
63040.967197518854,167433.0
63040.9772973206,167407.0
63040.98739712234,167445.0
63040.99749692409,167410.0
63041.00759672582,167380.0
63041.01769652757,167390.0
63041.02779632931,167353.0
63041.037896131056,167357.0
63041.04799593279,167362.0
63041.05809573454,167385.0
63041.06819553628,167357.0
63041.078295338026,167353.0
63041.08839513977,167338.0
63041.09849494151,167351.0
63041.10859474325,167325.0
63041.118694544995,167336.0
63041.12879434674,167353.0
63041.138894148484,167334.0
63041.14899395022,167364.0
63041.159093751965,167378.0
63041.16919355371,167383.0
63041.17929335545,167368.0
63041.18939315719,167390.0
63041.199492958935,167415.0
63041.20959276068,167400.0
63041.21969256242,167358.0
63041.22979236417,167408.0
63041.239892165904,167403.0
63041.24999196765,167395.0
63041.26009176939,167407.0
63041.27019157114,167404.0
63041.28029137288,167369.0
63041.29039117462,167406.0
63041.30049097636,167373.0
63041.31059077811,167365.0
63041.32069057985,167409.0
63041.33079038159,167406.0
63041.34089018333,167388.0
63041.350989985076,167401.0
63041.36108978682,167419.0
63041.371189588564,167385.0
63041.3812893903,167414.0
63041.391389192046,167390.0
63041.40148899379,167398.0
63041.411588795534,167391.0
63041.42168859728,167378.0
63041.431788399015,167393.0
63041.44188820076,167362.0
63041.451988002504,167399.0
63041.46208780425,167390.0
63041.472187605985,167406.0
63041.48228740773,167405.0
63041.49238720947,167424.0
63041.50248701122,167437.0
63041.51258681296,167409.0
63041.5226866147,167437.0
63041.53278641644,167415.0
63041.54288621819,167434.0
63041.55298601993,167413.0
63041.563085821675,167413.0
63041.57318562341,167437.0
63041.58328542516,167430.0
63041.5933852269,167423.0
63041.603485028645,167443.0
63041.61358483038,167429.0
63041.623684632126,167435.0
63041.63378443387,167443.0
63041.643884235615,167405.0
63041.65398403736,167416.0
63041.664083839096,167433.0
63041.67418364084,167435.0
63041.684283442584,167419.0
63041.69438324433,167423.0
63041.70448304607,167417.0
63041.71458284781,167385.0
63041.724682649554,167373.0
63041.7347824513,167343.0
63041.74488225304,167360.0
63041.75498205478,167330.0
63041.76508185652,167313.0
63041.77518165827,167351.0
63041.78528146001,167342.0
63041.795381261756,167329.0
63041.80548106349,167317.0
63041.81558086524,167370.0
63041.82568066698,167339.0
63041.835780468726,167377.0
63041.84588027047,167328.0
63041.85598007221,167355.0
63041.86607987395,167357.0
63041.876179675695,167338.0
63041.88627947744,167341.0
63041.89637927918,167344.0
63041.90647908092,167361.0
63041.916578882665,167376.0
63041.92667868441,167367.0
63041.93677848615,167378.0
63041.94687828789,167365.0
63041.956978089635,167338.0
63041.96707789138,167345.0
63041.97717769312,167372.0
63041.98727749487,167342.0
63041.997377296604,167353.0
63042.00747709835,167329.0
63042.01757690009,167360.0
63042.02767670184,167305.0
63042.037776503574,167313.0
63042.04787630532,167331.0
63042.05797610706,167318.0
63042.068075908806,167324.0
63042.07817571055,167321.0
63042.08827551229,167344.0
63042.09837531403,167309.0
63042.108475115776,167337.0
63042.11857491752,167316.0
63042.128674719264,167353.0
63042.138774521,167350.0
63042.148874322746,167314.0
63042.15897412449,167309.0
63042.169073926234,167311.0
63042.17917372797,167343.0
63042.189273529715,167358.0
63042.19937333146,167344.0
63042.2094731332,167310.0
63042.21957293495,167374.0
63042.229672736685,167332.0
63042.23977253843,167356.0
63042.24987234017,167352.0
63042.25997214192,167329.0
63042.27007194366,167349.0
63042.2801717454,167354.0
63042.29027154714,167363.0
63042.30037134889,167357.0
63042.31047115063,167341.0
63042.32057095237,167347.0
63042.33067075411,167376.0
63042.34077055586,167375.0
63042.3508703576,167390.0
63042.360970159345,167360.0
63042.37106996108,167359.0
63042.381169762826,167362.0
63042.39126956457,167392.0
63042.401369366315,167369.0
63042.41146916806,167334.0
63042.421568969796,167385.0
63042.43166877154,167329.0
63042.441768573284,167324.0
63042.45186837503,167302.0
63042.461968176765,167287.0
63042.47206797851,167251.0
63042.482167780254,167273.0
63042.492267582,167296.0
63042.50236738374,167247.0
63042.51246718548,167269.0
63042.52256698722,167275.0
63042.53266678897,167276.0
63042.54276659071,167229.0
63042.552866392456,167287.0
63042.56296619419,167258.0
63042.57306599594,167252.0
63042.58316579768,167282.0
63042.593265599426,167309.0
63042.60336540116,167250.0
63042.61346520291,167287.0
63042.62356500465,167320.0
63042.633664806395,167299.0
63042.64376460814,167301.0
63042.65386440988,167293.0
63042.66396421162,167304.0
63042.674064013365,167300.0
63042.68416381511,167330.0
63042.69426361685,167317.0
63042.70436341859,167287.0
63042.714463220334,167267.0
63042.72456302208,167300.0
63042.73466282382,167295.0
63042.74476262556,167283.0
63042.754862427304,167295.0
63042.76496222905,167303.0
63042.77506203079,167312.0
63042.78516183254,167289.0
63042.79526163427,167305.0
63042.80536143602,167279.0
63042.81546123776,167287.0
63042.825561039506,167344.0
63042.83566084125,167309.0
63042.84576064299,167287.0
63042.85586044473,167293.0
63042.865960246476,167279.0
63042.87606004822,167270.0
63042.88615984996,167289.0
63042.8962596517,167307.0
63042.906359453445,167283.0
63042.91645925519,167266.0
63042.926559056934,167321.0
63042.93665885867,167306.0
63042.946758660415,167339.0
63042.95685846216,167304.0
63042.9669582639,167263.0
63042.97705806565,167295.0
63042.987157867385,167265.0
63042.99725766913,167281.0
63043.00735747087,167293.0
63043.01745727262,167311.0
63043.027557074354,167290.0
63043.0376568761,167325.0
63043.04775667784,167277.0
63043.05785647959,167325.0
63043.06795628133,167288.0
63043.07805608307,167273.0
63043.08815588481,167311.0
63043.09825568656,167314.0
63043.1083554883,167296.0
63043.118455290045,167277.0
63043.12855509178,167288.0
63043.138654893526,167321.0
63043.14875469527,167279.0
63043.158854497015,167261.0
63043.16895429875,167275.0
63043.179054100496,167218.0
63043.18915390224,167221.0
63043.199253703984,167177.0
63043.20935350573,167220.0
63043.219453307465,167178.0
63043.22955310921,167178.0
63043.239652910954,167196.0
63043.2497527127,167187.0
63043.25985251444,167194.0
63043.26995231618,167162.0
63043.28005211792,167220.0
63043.29015191967,167171.0
63043.30025172141,167199.0
63043.31035152315,167216.0
63043.32045132489,167226.0
63043.33055112664,167204.0
63043.34065092838,167204.0
63043.350750730126,167221.0
63043.36085053186,167236.0
63043.37095033361,167209.0
63043.38105013535,167253.0
63043.391149937095,167207.0
63043.40124973884,167226.0
63043.411349540576,167211.0
63043.42144934232,167231.0
63043.431549144065,167219.0
63043.44164894581,167236.0
63043.451748747546,167207.0
63043.46184854929,167216.0
63043.471948351034,167186.0
63043.48204815278,167224.0
63043.49214795452,167243.0
63043.50224775626,167182.0
63043.512347558004,167229.0
63043.52244735975,167213.0
63043.53254716149,167244.0
63043.54264696324,167193.0
63043.55274676497,167249.0
63043.56284656672,167218.0
63043.57294636846,167204.0
63043.583046170206,167253.0
63043.59314597194,167197.0
63043.60324577369,167225.0
63043.61334557543,167197.0
63043.623445377176,167225.0
63043.63354517892,167210.0
63043.64364498066,167179.0
63043.6537447824,167203.0
63043.663844584145,167246.0
63043.67394438589,167211.0
63043.684044187634,167234.0
63043.69414398937,167235.0
63043.704243791115,167234.0
63043.71434359286,167237.0
63043.7244433946,167268.0
63043.73454319634,167243.0
63043.744642998085,167222.0
63043.75474279983,167249.0
63043.76484260157,167238.0
63043.77494240332,167237.0
63043.785042205054,167212.0
63043.7951420068,167248.0
63043.80524180854,167227.0
63043.81534161029,167229.0
63043.82544141203,167234.0
63043.83554121377,167255.0
63043.84564101551,167217.0
63043.85574081726,167250.0
63043.865840619,167246.0
63043.87594042074,167208.0
63043.88604022248,167231.0
63043.896140024226,167211.0
63043.90623982597,167193.0
63043.916339627714,167180.0
63043.92643942945,167173.0
63043.936539231196,167143.0
63043.94663903294,167104.0
63043.956738834684,167134.0
63043.96683863643,167134.0
63043.976938438165,167141.0
63043.98703823991,167137.0
63043.997138041654,167159.0
63044.0072378434,167112.0
63044.017337645135,167133.0
63044.02743744688,167139.0
63044.03753724862,167138.0
63044.04763705037,167122.0
63044.05773685211,167134.0
63044.06783665385,167155.0
63044.07793645559,167110.0
63044.08803625734,167148.0
63044.09813605908,167152.0
63044.108235860826,167123.0
63044.11833566256,167133.0
63044.12843546431,167159.0
63044.13853526605,167162.0
63044.148635067795,167147.0
63044.15873486953,167152.0
63044.168834671276,167154.0
63044.17893447302,167144.0
63044.189034274765,167145.0
63044.19913407651,167158.0
63044.209233878246,167168.0
63044.21933367999,167116.0
63044.229433481734,167144.0
63044.23953328348,167160.0
63044.24963308522,167162.0
63044.25973288696,167145.0
63044.269832688704,167154.0
63044.27993249045,167151.0
63044.29003229219,167143.0
63044.30013209393,167158.0
63044.31023189567,167191.0
63044.32033169742,167153.0
63044.33043149916,167150.0
63044.340531300906,167157.0
63044.35063110264,167154.0
63044.36073090439,167166.0
63044.37083070613,167150.0
63044.380930507876,167183.0
63044.39103030962,167182.0
63044.40113011136,167193.0
63044.4112299131,167158.0
63044.421329714845,167165.0
63044.43142951659,167172.0
63044.44152931833,167154.0
63044.45162912007,167163.0
63044.461728921815,167164.0
63044.47182872356,167169.0
63044.4819285253,167162.0
63044.49202832704,167185.0
63044.502128128785,167190.0
63044.51222793053,167194.0
63044.52232773227,167176.0
63044.53242753402,167170.0
63044.542527335754,167191.0
63044.5526271375,167184.0
63044.56272693924,167179.0
63044.57282674099,167218.0
63044.582926542724,167223.0
63044.59302634447,167198.0
63044.60312614621,167226.0
63044.61322594796,167215.0
63044.6233257497,167190.0
63044.63342555144,167195.0
63044.64352535318,167174.0
63044.653625154926,167181.0
63044.66372495667,167156.0
63044.673824758414,167125.0
63044.68392456015,167119.0
63044.694024361896,167104.0
63044.70412416364,167083.0
63044.714223965384,167145.0
63044.72432376712,167109.0
63044.734423568865,167120.0
63044.74452337061,167132.0
63044.75462317235,167099.0
63044.7647229741,167129.0
63044.774822775835,167124.0
63044.78492257758,167159.0
63044.79502237932,167135.0
63044.80512218107,167144.0
63044.815221982804,167156.0
63044.82532178455,167182.0
63044.83542158629,167153.0
63044.84552138804,167185.0
63044.85562118978,167179.0
63044.86572099152,167190.0
63044.87582079326,167161.0
63044.88592059501,167192.0
63044.89602039675,167191.0
63044.906120198495,167184.0
63044.91622000023,167152.0
63044.926319801976,167186.0
63044.93641960372,167195.0
63044.946519405465,167154.0
63044.9566192072,167210.0
63044.966719008946,167176.0
63044.97681881069,167194.0
63044.986918612434,167163.0
63044.99701841418,167169.0
63045.007118215915,167187.0
63045.01721801766,167175.0
63045.027317819404,167163.0
63045.03741762115,167205.0
63045.04751742289,167197.0
63045.05761722463,167186.0
63045.06771702637,167205.0
63045.07781682812,167226.0
63045.08791662986,167201.0
63045.0980164316,167198.0
63045.10811623334,167208.0
63045.11821603509,167178.0
63045.12831583683,167202.0
63045.138415638576,167225.0
63045.14851544031,167218.0
63045.15861524206,167221.0
63045.1687150438,167245.0
63045.178814845545,167221.0
63045.18891464729,167213.0
63045.19901444903,167236.0
63045.20911425077,167238.0
63045.219214052515,167232.0
63045.22931385426,167256.0
63045.239413655996,167212.0
63045.24951345774,167226.0
63045.259613259484,167259.0
63045.26971306123,167269.0
63045.27981286297,167285.0
63045.28991266471,167248.0
63045.300012466454,167277.0
63045.3101122682,167261.0
63045.32021206994,167245.0
63045.33031187169,167256.0
63045.340411673424,167286.0
63045.35051147517,167275.0
63045.36061127691,167280.0
63045.370711078656,167301.0
63045.38081088039,167259.0
63045.39091068214,167226.0
63045.40101048388,167229.0
63045.411110285626,167224.0
63045.42121008737,167221.0
63045.43130988911,167199.0
63045.44140969085,167168.0
63045.451509492596,167160.0
63045.46160929434,167182.0
63045.471709096084,167173.0
63045.48180889782,167232.0
63045.491908699565,167183.0
63045.50200850131,167207.0
63045.51210830305,167188.0
63045.52220810479,167185.0
63045.532307906535,167189.0
63045.54240770828,167225.0
63045.55250751002,167215.0
63045.56260731177,167195.0
63045.572707113504,167256.0
63045.58280691525,167233.0
63045.59290671699,167222.0
63045.60300651874,167229.0
63045.61310632048,167273.0
63045.62320612222,167213.0
63045.63330592396,167263.0
63045.64340572571,167236.0
63045.65350552745,167257.0
63045.66360532919,167233.0
63045.67370513093,167258.0
63045.683804932676,167249.0
63045.69390473442,167291.0
63045.704004536165,167228.0
63045.7141043379,167260.0
63045.724204139646,167231.0
63045.73430394139,167247.0
63045.744403743134,167238.0
63045.75450354488,167293.0
63045.764603346615,167251.0
63045.77470314836,167298.0
63045.784802950104,167212.0
63045.79490275185,167267.0
63045.805002553585,167240.0
63045.81510235533,167296.0
63045.82520215707,167262.0
63045.83530195882,167275.0
63045.84540176056,167287.0
63045.8555015623,167284.0
63045.86560136404,167252.0
63045.87570116579,167294.0
63045.88580096753,167320.0
63045.895900769276,167277.0
63045.90600057101,167316.0
63045.91610037276,167329.0
63045.9262001745,167293.0
63045.936299976245,167304.0
63045.94639977798,167308.0
63045.95649957973,167306.0
63045.96659938147,167298.0
63045.976699183215,167314.0
63045.98679898496,167304.0
63045.996898786696,167326.0
63046.00699858844,167307.0
63046.017098390184,167363.0
63046.02719819193,167350.0
63046.03729799367,167343.0
63046.04739779541,167342.0
63046.057497597154,167324.0
63046.0675973989,167343.0
63046.07769720064,167355.0
63046.08779700238,167388.0
63046.09789680412,167343.0
63046.10799660587,167357.0
63046.11809640761,167344.0
63046.128196209356,167325.0
63046.13829601109,167322.0
63046.14839581284,167363.0
63046.15849561458,167322.0
63046.168595416326,167268.0
63046.17869521807,167289.0
63046.18879501981,167262.0
63046.19889482155,167272.0
63046.208994623295,167245.0
63046.21909442504,167299.0
63046.22919422678,167261.0
63046.23929402852,167291.0
63046.249393830265,167298.0
63046.25949363201,167261.0
63046.26959343375,167280.0
63046.27969323549,167312.0
63046.289793037235,167298.0
63046.29989283898,167277.0
63046.30999264072,167308.0
63046.32009244247,167320.0
63046.330192244204,167314.0
63046.34029204595,167301.0
63046.35039184769,167371.0
63046.36049164944,167323.0
63046.370591451174,167327.0
63046.38069125292,167312.0
63046.39079105466,167352.0
63046.40089085641,167305.0
63046.41099065815,167331.0
63046.42109045989,167350.0
63046.43119026163,167319.0
63046.441290063376,167334.0
63046.45138986512,167340.0
63046.461489666865,167303.0
63046.4715894686,167276.0
63046.481689270346,167339.0
63046.49178907209,167320.0
63046.501888873834,167297.0
63046.51198867557,167303.0
63046.522088477315,167294.0
63046.53218827906,167310.0
63046.542288080804,167289.0
63046.55238788255,167306.0
63046.562487684285,167301.0
63046.57258748603,167312.0
63046.58268728777,167349.0
63046.59278708952,167284.0
63046.60288689126,167304.0
63046.612986693,167344.0
63046.62308649474,167347.0
63046.63318629649,167313.0
63046.64328609823,167354.0
63046.65338589997,167322.0
63046.66348570171,167329.0
63046.67358550346,167287.0
63046.6836853052,167343.0
63046.693785106945,167327.0
63046.70388490868,167290.0
63046.713984710426,167305.0
63046.72408451217,167295.0
63046.734184313915,167320.0
63046.74428411566,167309.0
63046.754383917396,167331.0
63046.76448371914,167317.0
63046.774583520884,167332.0
63046.78468332263,167327.0
63046.794783124365,167301.0
63046.80488292611,167285.0
63046.814982727854,167315.0
63046.8250825296,167306.0
63046.83518233134,167299.0
63046.84528213308,167305.0
63046.85538193482,167302.0
63046.86548173657,167241.0
63046.87558153831,167212.0
63046.885681340056,167244.0
63046.89578114179,167205.0
63046.90588094354,167213.0
63046.91598074528,167207.0
63046.926080547026,167241.0
63046.93618034876,167208.0
63046.94628015051,167236.0
63046.95637995225,167229.0
63046.966479753995,167263.0
63046.97657955574,167250.0
63046.98667935748,167244.0
63046.99677915922,167245.0
63047.006878960965,167260.0
63047.01697876271,167262.0
63047.02707856445,167277.0
63047.03717836619,167271.0
63047.047278167935,167321.0
63047.05737796968,167314.0
63047.06747777142,167311.0
63047.07757757316,167316.0
63047.087677374904,167345.0
63047.09777717665,167331.0
63047.10787697839,167366.0
63047.11797678014,167364.0
63047.128076581874,167399.0
63047.13817638362,167363.0
63047.14827618536,167365.0
63047.15837598711,167372.0
63047.16847578885,167381.0
63047.17857559059,167365.0
63047.18867539233,167368.0
63047.198775194076,167388.0
63047.20887499582,167357.0
63047.21897479756,167355.0
63047.2290745993,167360.0
63047.239174401046,167355.0
63047.24927420279,167299.0
63047.259374004534,167355.0
63047.26947380627,167326.0
63047.279573608015,167308.0
63047.28967340976,167317.0
63047.2997732115,167323.0
63047.30987301325,167307.0
63047.319972814985,167339.0
63047.33007261673,167366.0
63047.34017241847,167334.0
63047.35027222022,167327.0
63047.360372021954,167352.0
63047.3704718237,167371.0
63047.38057162544,167373.0
63047.39067142719,167403.0
63047.40077122893,167377.0
63047.41087103067,167354.0
63047.42097083241,167369.0
63047.43107063416,167360.0
63047.4411704359,167372.0
63047.451270237645,167372.0
63047.46137003938,167367.0
63047.471469841126,167349.0
63047.48156964287,167320.0
63047.491669444615,167303.0
63047.50176924635,167303.0
63047.511869048096,167274.0
63047.52196884984,167253.0
63047.532068651584,167240.0
63047.54216845333,167240.0
63047.552268255065,167192.0
63047.56236805681,167224.0
63047.572467858554,167205.0
63047.5825676603,167193.0
63047.59266746204,167226.0
63047.60276726378,167231.0
63047.61286706552,167228.0
63047.62296686727,167243.0
63047.63306666901,167235.0
63047.64316647075,167265.0
63047.65326627249,167284.0
63047.66336607424,167263.0
63047.67346587598,167297.0
63047.683565677726,167280.0
63047.69366547946,167281.0
63047.70376528121,167289.0
63047.71386508295,167292.0
63047.723964884695,167274.0
63047.73406468644,167299.0
63047.74416448818,167323.0
63047.75426428992,167324.0
63047.764364091665,167304.0
63047.77446389341,167289.0
63047.784563695146,167315.0
63047.79466349689,167275.0
63047.804763298634,167290.0
63047.81486310038,167277.0
63047.82496290212,167258.0
63047.83506270386,167298.0
63047.845162505604,167311.0
63047.85526230735,167311.0
63047.86536210909,167323.0
63047.87546191084,167308.0
63047.885561712574,167303.0
63047.89566151432,167335.0
63047.90576131606,167285.0
63047.915861117806,167354.0
63047.92596091954,167317.0
63047.93606072129,167311.0
63047.94616052303,167289.0
63047.956260324776,167325.0
63047.96636012652,167323.0
63047.97645992826,167339.0
63047.98655973,167372.0
63047.996659531746,167332.0
63048.00675933349,167336.0
63048.016859135234,167355.0
63048.02695893697,167333.0
63048.037058738715,167346.0
63048.04715854046,167379.0
63048.0572583422,167361.0
63048.06735814394,167346.0
63048.077457945685,167353.0
63048.08755774743,167377.0
63048.09765754917,167403.0
63048.10775735092,167381.0
63048.117857152654,167421.0
63048.1279569544,167409.0
63048.13805675614,167411.0
63048.14815655789,167405.0
63048.15825635963,167397.0
63048.16835616137,167372.0
63048.17845596311,167367.0
63048.18855576486,167327.0
63048.1986555666,167318.0
63048.20875536834,167326.0
63048.21885517008,167286.0
63048.228954971826,167299.0
63048.23905477357,167236.0
63048.249154575315,167241.0
63048.25925437705,167232.0
63048.269354178796,167253.0
63048.27945398054,167219.0
63048.289553782284,167243.0
63048.29965358403,167253.0
63048.309753385765,167221.0
63048.31985318751,167257.0
63048.329952989254,167252.0
63048.340052791,167252.0
63048.350152592735,167289.0
63048.36025239448,167259.0
63048.37035219622,167273.0
63048.38045199797,167271.0
63048.39055179971,167298.0
63048.40065160145,167272.0
63048.41075140319,167260.0
63048.42085120494,167300.0
63048.43095100668,167267.0
63048.441050808426,167273.0
63048.45115061016,167246.0
63048.46125041191,167300.0
63048.47135021365,167263.0
63048.481450015395,167259.0
63048.49154981713,167246.0
63048.50164961888,167240.0
63048.51174942062,167265.0
63048.521849222365,167273.0
63048.53194902411,167278.0
63048.542048825846,167238.0
63048.55214862759,167243.0
63048.562248429334,167234.0
63048.57234823108,167282.0
63048.58244803282,167204.0
63048.59254783456,167266.0
63048.602647636304,167210.0
63048.61274743805,167205.0
63048.62284723979,167224.0
63048.63294704153,167257.0
63048.64304684327,167243.0
63048.65314664502,167222.0
63048.66324644676,167241.0
63048.673346248506,167254.0
63048.68344605024,167299.0
63048.69354585199,167259.0
63048.70364565373,167227.0
63048.713745455476,167267.0
63048.72384525722,167223.0
63048.73394505896,167240.0
63048.7440448607,167299.0
63048.754144662445,167281.0
63048.76424446419,167261.0
63048.77434426593,167323.0
63048.78444406767,167277.0
63048.794543869415,167295.0
63048.80464367116,167278.0
63048.8147434729,167286.0
63048.82484327464,167338.0
63048.834943076385,167314.0
63048.84504287813,167293.0
63048.85514267987,167264.0
63048.86524248161,167258.0
63048.875342283354,167297.0
63048.8854420851,167265.0
63048.89554188684,167206.0
63048.90564168859,167252.0
63048.915741490324,167196.0
63048.92584129207,167199.0
63048.93594109381,167196.0
63048.94604089556,167233.0
63048.9561406973,167179.0
63048.96624049904,167193.0
63048.97634030078,167171.0
63048.986440102526,167161.0
63048.99653990427,167138.0
63049.00663970601,167182.0
63049.01673950775,167187.0
63049.026839309496,167196.0
63049.03693911124,167180.0
63049.047038912984,167204.0
63049.05713871472,167194.0
63049.067238516465,167161.0
63049.07733831821,167214.0
63049.087438119954,167216.0
63049.0975379217,167186.0
63049.107637723435,167223.0
63049.11773752518,167187.0
63049.12783732692,167162.0
63049.13793712867,167196.0
63049.148036930404,167199.0
63049.15813673215,167184.0
63049.16823653389,167185.0
63049.17833633564,167188.0
63049.18843613738,167174.0
63049.19853593912,167150.0
63049.20863574086,167192.0
63049.21873554261,167196.0
63049.22883534435,167152.0
63049.238935146095,167173.0
63049.24903494783,167168.0
63049.259134749576,167181.0
63049.26923455132,167139.0
63049.279334353065,167204.0
63049.2894341548,167175.0
63049.299533956546,167171.0
63049.30963375829,167188.0
63049.319733560034,167179.0
63049.32983336178,167196.0
63049.339933163516,167161.0
63049.35003296526,167217.0
63049.360132767004,167204.0
63049.37023256875,167204.0
63049.38033237049,167191.0
63049.39043217223,167198.0
63049.40053197397,167182.0
63049.41063177572,167206.0
63049.42073157746,167231.0
63049.4308313792,167198.0
63049.44093118094,167237.0
63049.45103098269,167242.0
63049.46113078443,167228.0
63049.471230586176,167200.0
63049.48133038791,167230.0
63049.49143018966,167206.0
63049.5015299914,167213.0
63049.511629793145,167194.0
63049.52172959489,167248.0
63049.53182939663,167218.0
63049.54192919837,167214.0
63049.552029000115,167214.0
63049.56212880186,167213.0
63049.572228603596,167164.0
63049.58232840534,167163.0
63049.592428207085,167165.0
63049.60252800883,167132.0
63049.61262781057,167127.0
63049.62272761231,167119.0
63049.632827414054,167130.0
63049.6429272158,167117.0
63049.65302701754,167147.0
63049.66312681929,167136.0
63049.673226621024,167113.0
63049.68332642277,167128.0
63049.69342622451,167139.0
63049.70352602626,167115.0
63049.71362582799,167119.0
63049.72372562974,167128.0
63049.73382543148,167118.0
63049.743925233226,167130.0
63049.75402503497,167159.0
63049.76412483671,167133.0
63049.77422463845,167128.0
63049.784324440196,167154.0
63049.79442424194,167190.0
63049.804524043684,167149.0
63049.81462384542,167139.0
63049.824723647165,167144.0
63049.83482344891,167161.0
63049.844923250654,167111.0
63049.85502305239,167166.0
63049.865122854135,167145.0
63049.87522265588,167132.0
63049.88532245762,167163.0
63049.89542225937,167181.0
63049.905522061104,167145.0
63049.91562186285,167153.0
63049.92572166459,167162.0
63049.93582146634,167131.0
63049.94592126808,167149.0
63049.95602106982,167144.0
63049.96612087156,167158.0
63049.97622067331,167161.0
63049.98632047505,167152.0
63049.99642027679,167161.0
63050.00652007853,167151.0
63050.016619880276,167128.0
63050.02671968202,167190.0
63050.036819483765,167165.0
63050.0469192855,167164.0
63050.057019087246,167173.0
63050.06711888899,167192.0
63050.077218690734,167174.0
63050.08731849248,167175.0
63050.097418294215,167148.0
63050.10751809596,167201.0
63050.117617897704,167174.0
63050.12771769945,167194.0
63050.137817501185,167173.0
63050.14791730293,167194.0
63050.15801710467,167184.0
63050.16811690642,167182.0
63050.17821670816,167211.0
63050.1883165099,167207.0
63050.19841631164,167196.0
63050.20851611339,167184.0
63050.21861591513,167181.0
63050.228715716876,167179.0
63050.23881551861,167184.0
63050.24891532036,167177.0
63050.2590151221,167179.0
63050.269114923845,167181.0
63050.27921472558,167141.0
63050.28931452733,167147.0
63050.29941432907,167102.0
63050.309514130815,167126.0
63050.31961393256,167094.0
63050.329713734296,167061.0
63050.33981353604,167120.0
63050.349913337785,167119.0
63050.36001313953,167107.0
63050.37011294127,167082.0
63050.38021274301,167076.0
63050.390312544754,167092.0
63050.4004123465,167111.0
63050.41051214824,167093.0
63050.42061194998,167085.0
63050.430711751724,167093.0
63050.44081155347,167141.0
63050.45091135521,167129.0
63050.46101115696,167121.0
63050.47111095869,167141.0
63050.48121076044,167094.0
63050.49131056218,167131.0
63050.501410363926,167115.0
63050.51151016567,167171.0
63050.52160996741,167133.0
63050.53170976915,167138.0
63050.541809570896,167128.0
63050.55190937264,167101.0
63050.56200917438,167117.0
63050.57210897612,167134.0
63050.582208777865,167140.0
63050.59230857961,167111.0
63050.60240838135,167151.0
63050.61250818309,167139.0
63050.622607984835,167159.0
63050.63270778658,167118.0
63050.64280758832,167174.0
63050.65290739007,167145.0
63050.663007191804,167123.0
63050.67310699355,167151.0
63050.68320679529,167120.0
63050.69330659704,167147.0
63050.703406398774,167160.0
63050.71350620052,167156.0
63050.72360600226,167142.0
63050.73370580401,167148.0
63050.74380560575,167156.0
63050.75390540749,167155.0
63050.76400520923,167159.0
63050.774105010976,167186.0
63050.78420481272,167215.0
63050.794304614465,167175.0
63050.8044044162,167171.0
63050.814504217946,167188.0
63050.82460401969,167197.0
63050.834703821434,167175.0
63050.84480362317,167219.0
63050.854903424915,167199.0
63050.86500322666,167163.0
63050.875103028404,167168.0
63050.88520283015,167175.0
63050.895302631885,167200.0
63050.90540243363,167179.0
63050.91550223537,167227.0
63050.92560203712,167195.0
63050.93570183886,167189.0
63050.9458016406,167193.0
63050.95590144234,167207.0
63050.96600124409,167171.0
63050.97610104583,167205.0
63050.98620084757,167183.0
63050.99630064931,167126.0
63051.00640045106,167169.0
63051.0165002528,167153.0
63051.026600054545,167125.0
63051.03669985628,167123.0
63051.04679965803,167146.0
63051.05689945977,167122.0
63051.066999261515,167097.0
63051.07709906326,167104.0
63051.087198864996,167083.0
63051.09729866674,167104.0
63051.107398468484,167116.0
63051.11749827023,167146.0
63051.127598071966,167120.0
63051.13769787371,167088.0
63051.147797675454,167130.0
63051.1578974772,167142.0
63051.16799727894,167129.0
63051.17809708068,167175.0
63051.188196882424,167146.0
63051.19829668417,167157.0
63051.20839648591,167181.0
63051.218496287656,167172.0
63051.22859608939,167164.0
63051.23869589114,167144.0
63051.24879569288,167114.0
63051.258895494626,167111.0
63051.26899529636,167121.0
63051.27909509811,167131.0
63051.28919489985,167132.0
63051.299294701595,167130.0
63051.30939450334,167154.0
63051.31949430508,167186.0
63051.32959410682,167183.0
63051.339693908565,167138.0
63051.34979371031,167136.0
63051.35989351205,167144.0
63051.36999331379,167159.0
63051.380093115535,167167.0
63051.39019291728,167142.0
63051.40029271902,167136.0
63051.41039252076,167091.0
63051.420492322504,167166.0
63051.43059212425,167147.0
63051.44069192599,167162.0
63051.45079172774,167141.0
63051.460891529474,167157.0
63051.47099133122,167169.0
63051.48109113296,167182.0
63051.49119093471,167192.0
63051.50129073645,167159.0
63051.51139053819,167207.0
63051.52149033993,167189.0
63051.531590141676,167191.0
63051.54168994342,167195.0
63051.55178974516,167176.0
63051.5618895469,167207.0
63051.571989348646,167213.0
63051.58208915039,167220.0
63051.592188952134,167188.0
63051.60228875387,167216.0
63051.612388555615,167199.0
63051.62248835736,167225.0
63051.632588159104,167213.0
63051.64268796085,167220.0
63051.652787762585,167239.0
63051.66288756433,167216.0
63051.67298736607,167181.0
63051.68308716782,167178.0
63051.693186969555,167171.0
63051.7032867713,167168.0
63051.71338657304,167186.0
63051.72348637479,167158.0
63051.73358617653,167098.0
63051.74368597827,167140.0
63051.75378578001,167149.0
63051.76388558176,167114.0
63051.7739853835,167089.0
63051.784085185245,167131.0
63051.79418498698,167114.0
63051.80428478873,167103.0
63051.81438459047,167128.0
63051.824484392215,167153.0
63051.83458419395,167137.0
63051.844683995696,167137.0
63051.85478379744,167147.0
63051.864883599184,167143.0
63051.87498340093,167156.0
63051.885083202666,167161.0
63051.89518300441,167168.0
63051.905282806154,167156.0
63051.9153826079,167188.0
63051.92548240964,167170.0
63051.93558221138,167145.0
63051.94568201312,167177.0
63051.95578181487,167133.0
63051.96588161661,167131.0
63051.97598141835,167151.0
63051.98608122009,167154.0
63051.99618102184,167134.0
63052.00628082358,167126.0
63052.016380625326,167164.0
63052.02648042706,167187.0
63052.03658022881,167156.0
63052.04668003055,167123.0
63052.056779832295,167153.0
63052.06687963404,167143.0
63052.07697943578,167182.0
63052.08707923752,167148.0
63052.097179039265,167156.0
63052.10727884101,167124.0
63052.117378642746,167165.0
63052.12747844449,167128.0
63052.137578246235,167147.0
63052.14767804798,167188.0
63052.15777784972,167175.0
63052.16787765146,167150.0
63052.177977453204,167166.0
63052.18807725495,167142.0
63052.19817705669,167160.0
63052.20827685844,167185.0
63052.218376660174,167155.0
63052.22847646192,167159.0
63052.23857626366,167175.0
63052.24867606541,167196.0
63052.25877586714,167179.0
63052.26887566889,167163.0
63052.27897547063,167207.0
63052.289075272376,167188.0
63052.29917507412,167179.0
63052.30927487586,167186.0
63052.3193746776,167200.0
63052.329474479346,167158.0
63052.33957428109,167179.0
63052.349674082834,167193.0
63052.35977388457,167183.0
63052.369873686315,167185.0
63052.37997348806,167163.0
63052.390073289804,167195.0
63052.40017309154,167153.0
63052.410272893285,167173.0
63052.42037269503,167121.0
63052.43047249677,167123.0
63052.44057229852,167126.0
63052.450672100254,167139.0
63052.460771902,167127.0
63052.47087170374,167056.0
63052.48097150549,167130.0
63052.49107130723,167156.0
63052.50117110897,167131.0
63052.51127091071,167160.0
63052.52137071246,167187.0
63052.5314705142,167141.0
63052.54157031594,167203.0
63052.55167011768,167173.0
63052.561769919426,167196.0
63052.57186972117,167157.0
63052.581969522915,167196.0
63052.59206932465,167180.0
63052.602169126396,167162.0
63052.61226892814,167206.0
63052.622368729884,167187.0
63052.63246853163,167182.0
63052.642568333365,167182.0
63052.65266813511,167209.0
63052.662767936854,167201.0
63052.6728677386,167209.0
63052.682967540335,167206.0
63052.69306734208,167230.0
63052.70316714382,167180.0
63052.71326694557,167210.0
63052.72336674731,167178.0
63052.73346654905,167168.0
63052.74356635079,167200.0
63052.75366615254,167199.0
63052.76376595428,167205.0
63052.773865756026,167181.0
63052.78396555776,167231.0
63052.79406535951,167211.0
63052.80416516125,167179.0
63052.814264962995,167219.0
63052.82436476473,167268.0
63052.83446456648,167255.0
63052.84456436822,167299.0
63052.854664169965,167304.0
63052.86476397171,167278.0
63052.874863773446,167241.0
63052.88496357519,167253.0
63052.895063376935,167273.0
63052.90516317868,167227.0
63052.915262980416,167286.0
63052.92536278216,167327.0
63052.935462583904,167321.0
63052.94556238565,167349.0
63052.95566218739,167359.0
63052.96576198913,167390.0
63052.975861790874,167396.0
63052.98596159262,167421.0
63052.99606139436,167446.0
63053.00616119611,167436.0
63053.01626099784,167452.0
63053.02636079959,167474.0
63053.03646060133,167475.0
63053.046560403076,167470.0
63053.05666020481,167517.0
63053.06676000656,167499.0
63053.0768598083,167467.0
63053.086959610046,167491.0
63053.09705941179,167482.0
63053.10715921353,167490.0
63053.11725901527,167508.0
63053.127358817015,167493.0
63053.13745861876,167492.0
63053.1475584205,167506.0
63053.15765822224,167516.0
63053.167758023985,167502.0
63053.17785782573,167536.0
63053.18795762747,167493.0
63053.19805742921,167517.0
63053.208157230954,167480.0
63053.2182570327,167448.0
63053.22835683444,167458.0
63053.23845663619,167433.0
63053.248556437924,167476.0
63053.25865623967,167455.0
63053.26875604141,167486.0
63053.27885584316,167395.0
63053.2889556449,167446.0
63053.29905544664,167415.0
63053.30915524838,167448.0
63053.319255050126,167416.0
63053.32935485187,167417.0
63053.33945465361,167423.0
63053.34955445535,167410.0
63053.359654257096,167372.0
63053.36975405884,167387.0
63053.379853860584,167399.0
63053.38995366232,167363.0
63053.400053464065,167367.0
63053.41015326581,167321.0
63053.420253067554,167309.0
63053.4303528693,167309.0
63053.440452671035,167354.0
63053.45055247278,167333.0
63053.46065227452,167340.0
63053.47075207627,167349.0
63053.480851878005,167339.0
63053.49095167975,167349.0
63053.50105148149,167331.0
63053.51115128324,167382.0
63053.52125108498,167312.0
63053.53135088672,167353.0
63053.54145068846,167329.0
63053.55155049021,167324.0
63053.56165029195,167291.0
63053.571750093695,167332.0
63053.58184989543,167304.0
63053.59194969718,167278.0
63053.60204949892,167317.0
63053.612149300665,167299.0
63053.6222491024,167303.0
63053.632348904146,167289.0
63053.64244870589,167321.0
63053.652548507634,167310.0
63053.66264830938,167307.0
63053.672748111116,167298.0
63053.68284791286,167285.0
63053.692947714604,167291.0
63053.70304751635,167290.0
63053.71314731809,167329.0
63053.72324711983,167278.0
63053.733346921574,167321.0
63053.74344672332,167290.0
63053.75354652506,167264.0
63053.7636463268,167225.0
63053.77374612854,167257.0
63053.78384593029,167243.0
63053.79394573203,167201.0
63053.804045533776,167252.0
63053.81414533551,167237.0
63053.82424513726,167200.0
63053.834344939,167199.0
63053.844444740746,167223.0
63053.85454454249,167188.0
63053.86464434423,167205.0
63053.87474414597,167181.0
63053.884843947715,167229.0
63053.89494374946,167196.0
63053.905043551196,167209.0
63053.91514335294,167235.0
63053.925243154685,167235.0
63053.93534295643,167252.0
63053.94544275817,167235.0
63053.95554255991,167242.0
63053.965642361654,167178.0
63053.9757421634,167225.0
63053.98584196514,167238.0
63053.99594176689,167213.0
63054.006041568624,167249.0
63054.01614137037,167267.0
63054.02624117211,167237.0
63054.03634097386,167221.0
63054.04644077559,167218.0
63054.05654057734,167208.0
63054.06664037908,167224.0
63054.076740180826,167235.0
63054.08683998257,167249.0
63054.09693978431,167240.0
63054.10703958605,167216.0
63054.117139387796,167226.0
63054.12723918954,167233.0
63054.137338991284,167191.0
63054.14743879302,167228.0
63054.157538594765,167237.0
63054.16763839651,167209.0
63054.177738198254,167211.0
63054.18783799999,167254.0
63054.197937801735,167247.0
63054.20803760348,167240.0
63054.21813740522,167247.0
63054.22823720697,167234.0
63054.238337008705,167250.0
63054.24843681045,167270.0
63054.25853661219,167255.0
63054.26863641394,167236.0
63054.27873621568,167267.0
63054.28883601742,167289.0
63054.29893581916,167281.0
63054.30903562091,167256.0
63054.31913542265,167290.0
63054.32923522439,167294.0
63054.33933502613,167262.0
63054.34943482788,167285.0
63054.35953462962,167274.0
63054.369634431365,167274.0
63054.3797342331,167239.0
63054.389834034846,167310.0
63054.39993383659,167289.0
63054.410033638334,167333.0
63054.42013344008,167299.0
63054.430233241816,167303.0
63054.44033304356,167287.0
63054.450432845304,167263.0
63054.46053264705,167268.0
63054.470632448785,167236.0
63054.48073225053,167234.0
63054.49083205227,167253.0
63054.50093185402,167225.0
63054.51103165576,167231.0
63054.5211314575,167202.0
63054.53123125924,167211.0
63054.54133106099,167206.0
63054.55143086273,167219.0
63054.561530664476,167189.0
63054.57163046621,167186.0
63054.58173026796,167167.0
63054.5918300697,167175.0
63054.601929871445,167225.0
63054.61202967318,167198.0
63054.62212947493,167187.0
63054.63222927667,167196.0
63054.642329078415,167222.0
63054.65242888016,167206.0
63054.662528681896,167195.0
63054.67262848364,167201.0
63054.682728285385,167212.0
63054.69282808713,167231.0
63054.70292788887,167208.0
63054.71302769061,167190.0
63054.723127492354,167216.0
63054.7332272941,167218.0
63054.74332709584,167201.0
63054.75342689758,167245.0
63054.763526699324,167180.0
63054.77362650107,167216.0
63054.78372630281,167244.0
63054.79382610456,167205.0
63054.80392590629,167213.0
63054.81402570804,167212.0
63054.82412550978,167199.0
63054.834225311526,167203.0
63054.84432511327,167237.0
63054.85442491501,167195.0
63054.86452471675,167182.0
63054.874624518496,167197.0
63054.88472432024,167193.0
63054.89482412198,167213.0
63054.90492392372,167199.0
63054.915023725465,167242.0
63054.92512352721,167249.0
63054.935223328954,167227.0
63054.94532313069,167225.0
63054.955422932435,167220.0
63054.96552273418,167246.0
63054.97562253592,167231.0
63054.98572233767,167213.0
63054.995822139404,167243.0
63055.00592194115,167217.0
63055.01602174289,167213.0
63055.02612154464,167203.0
63055.036221346374,167211.0
63055.04632114812,167229.0
63055.05642094986,167243.0
63055.06652075161,167227.0
63055.07662055335,167285.0
63055.08672035509,167280.0
63055.09682015683,167240.0
63055.106919958576,167283.0
63055.11701976032,167257.0
63055.127119562065,167292.0
63055.1372193638,167267.0
63055.147319165546,167254.0
63055.15741896729,167251.0
63055.167518769034,167269.0
63055.17761857077,167260.0
63055.187718372516,167241.0
63055.19781817426,167225.0
63055.207917976004,167192.0
63055.21801777775,167232.0
63055.228117579485,167184.0
63055.23821738123,167198.0
63055.24831718297,167155.0
63055.25841698472,167156.0
63055.26851678646,167173.0
63055.2786165882,167105.0
63055.28871638994,167165.0
63055.29881619169,167144.0
63055.30891599343,167158.0
63055.31901579517,167148.0
63055.32911559691,167135.0
63055.33921539866,167127.0
63055.3493152004,167174.0
63055.359415002145,167125.0
63055.36951480388,167131.0
63055.37961460563,167145.0
63055.38971440737,167157.0
63055.399814209115,167173.0
63055.40991401086,167132.0
63055.420013812596,167160.0
63055.43011361434,167177.0
63055.440213416085,167215.0
63055.45031321783,167151.0
63055.460413019566,167182.0
63055.47051282131,167163.0
63055.480612623054,167145.0
63055.4907124248,167133.0
63055.50081222654,167144.0
63055.51091202828,167162.0
63055.521011830024,167138.0
63055.53111163177,167172.0
63055.54121143351,167156.0
63055.55131123526,167127.0
63055.56141103699,167125.0
63055.57151083874,167156.0
63055.58161064048,167149.0
63055.591710442226,167135.0
63055.60181024396,167141.0
63055.61191004571,167131.0
63055.62200984745,167135.0
63055.632109649196,167118.0
63055.64220945094,167140.0
63055.65230925268,167128.0
63055.66240905442,167134.0
63055.672508856165,167130.0
63055.68260865791,167109.0
63055.692708459654,167123.0
63055.70280826139,167111.0
63055.712908063135,167137.0
63055.72300786488,167143.0
63055.73310766662,167145.0
63055.74320746836,167169.0
63055.753307270104,167114.0
63055.76340707185,167141.0
63055.77350687359,167168.0
63055.78360667534,167117.0
63055.793706477074,167145.0
63055.80380627882,167139.0
63055.81390608056,167113.0
63055.82400588231,167155.0
63055.83410568405,167138.0
63055.84420548579,167118.0
63055.85430528753,167123.0
63055.864405089276,167147.0
63055.87450489102,167117.0
63055.88460469276,167121.0
63055.8947044945,167110.0
63055.904804296246,167143.0
63055.91490409799,167113.0
63055.925003899734,167117.0
63055.93510370147,167124.0
63055.945203503215,167083.0
63055.95530330496,167042.0
63055.965403106704,167058.0
63055.97550290845,167061.0
63055.985602710185,167040.0
63055.99570251193,167009.0
63056.00580231367,167016.0
63056.01590211542,167030.0
63056.026001917155,166960.0
63056.0361017189,167015.0
63056.04620152064,167015.0
63056.05630132239,167011.0
63056.06640112413,167011.0
63056.07650092587,167036.0
63056.08660072761,166996.0
63056.09670052936,166990.0
63056.1068003311,167032.0
63056.116900132845,167004.0
63056.12699993458,167001.0
63056.13709973633,167030.0
63056.14719953807,167040.0
63056.157299339815,166995.0
63056.16739914155,167015.0
63056.177498943296,167024.0
63056.18759874504,167052.0
63056.197698546785,166996.0
63056.20779834853,167045.0
