time,ppg
62863.87885118916,164425.0
62863.888940156714,164432.0
62863.89902912426,164426.0
62863.909118091804,164443.0
62863.919207059356,164398.0
62863.9292960269,164453.0
62863.939384994446,164428.0
62863.949473962,164409.0
62863.95956292954,164418.0
62863.96965189709,164392.0
62863.97974086464,164416.0
62863.989829832186,164411.0
62863.99991879973,164423.0
62864.01000776728,164376.0
62864.02009673483,164425.0
62864.03018570237,164395.0
62864.040274669926,164383.0
62864.05036363747,164419.0
62864.060452605016,164368.0
62864.07054157256,164404.0
62864.08063054011,164372.0
62864.09071950766,164400.0
62864.1008084752,164381.0
62864.110897442755,164418.0
62864.1209864103,164421.0
62864.131075377845,164407.0
62864.1411643454,164419.0
62864.15125331294,164453.0
62864.16134228049,164481.0
62864.17143124804,164469.0
62864.181520215585,164478.0
62864.19160918313,164481.0
62864.20169815068,164479.0
62864.21178711823,164517.0
62864.22187608577,164477.0
62864.23196505332,164535.0
62864.24205402087,164515.0
62864.252142988415,164515.0
62864.26223195596,164532.0
62864.27232092351,164548.0
62864.28240989106,164568.0
62864.2924988586,164531.0
62864.302587826154,164571.0
62864.3126767937,164567.0
62864.322765761244,164577.0
62864.3328547288,164578.0
62864.34294369634,164603.0
62864.35303266389,164603.0
62864.36312163144,164558.0
62864.373210598984,164574.0
62864.38329956653,164592.0
62864.39338853408,164610.0
62864.403477501626,164640.0
62864.41356646917,164603.0
62864.423655436716,164625.0
62864.43374440427,164659.0
62864.44383337181,164698.0
62864.45392233936,164643.0
62864.46401130691,164690.0
62864.474100274456,164681.0
62864.484189242,164666.0
62864.49427820955,164737.0
62864.5043671771,164680.0
62864.51445614464,164702.0
62864.524545112195,164704.0
62864.53463407974,164768.0
62864.544723047286,164715.0
62864.55481201484,164758.0
62864.56490098238,164755.0
62864.57498994993,164756.0
62864.58507891748,164721.0
62864.595167885025,164697.0
62864.60525685257,164700.0
62864.615345820115,164663.0
62864.62543478767,164650.0
62864.63552375521,164552.0
62864.64561272276,164553.0
62864.65570169031,164512.0
62864.665790657855,164507.0
62864.6758796254,164489.0
62864.68596859295,164456.0
62864.6960575605,164426.0
62864.70614652804,164403.0
62864.716235495594,164398.0
62864.72632446314,164415.0
62864.736413430684,164422.0
62864.74650239824,164448.0
62864.75659136578,164406.0
62864.76668033333,164391.0
62864.77676930087,164420.0
62864.786858268424,164412.0
62864.79694723597,164401.0
62864.807036203514,164416.0
62864.81712517107,164420.0
62864.82721413861,164375.0
62864.83730310616,164405.0
62864.84739207371,164403.0
62864.857481041254,164418.0
62864.8675700088,164371.0
62864.87765897635,164388.0
62864.887747943896,164406.0
62864.89783691144,164361.0
62864.90792587899,164386.0
62864.91801484654,164384.0
62864.92810381408,164384.0
62864.938192781636,164392.0
62864.94828174918,164398.0
62864.958370716726,164353.0
62864.96845968427,164390.0
62864.97854865182,164390.0
62864.98863761937,164372.0
62864.99872658691,164403.0
62865.008815554465,164409.0
62865.01890452201,164402.0
62865.028993489555,164392.0
62865.03908245711,164446.0
62865.04917142465,164438.0
62865.0592603922,164422.0
62865.06934935975,164481.0
62865.079438327295,164453.0
62865.08952729484,164488.0
62865.09961626239,164470.0
62865.10970522994,164483.0
62865.11979419748,164500.0
62865.129883165035,164514.0
62865.13997213258,164505.0
62865.150061100125,164518.0
62865.16015006767,164529.0
62865.17023903522,164571.0
62865.18032800277,164555.0
62865.19041697031,164561.0
62865.200505937864,164569.0
62865.21059490541,164562.0
62865.220683872954,164581.0
62865.23077284051,164617.0
62865.24086180805,164590.0
62865.2509507756,164601.0
62865.26103974315,164616.0
62865.271128710694,164616.0
62865.28121767824,164622.0
62865.29130664579,164640.0
62865.301395613336,164605.0
62865.31148458088,164631.0
62865.32157354843,164656.0
62865.33166251598,164657.0
62865.341751483524,164671.0
62865.35184045107,164660.0
62865.36192941862,164693.0
62865.372018386166,164693.0
62865.38210735371,164716.0
62865.39219632126,164706.0
62865.40228528881,164715.0
62865.41237425635,164778.0
62865.422463223906,164754.0
62865.43255219145,164741.0
62865.442641158996,164757.0
62865.45273012655,164803.0
62865.46281909409,164796.0
62865.47290806164,164786.0
62865.48299702919,164809.0
62865.493085996735,164787.0
62865.50317496428,164772.0
62865.513263931825,164736.0
62865.52335289938,164727.0
62865.53344186692,164659.0
62865.54353083447,164646.0
62865.55361980202,164629.0
62865.563708769565,164561.0
62865.57379773711,164540.0
62865.58388670466,164514.0
62865.59397567221,164479.0
62865.60406463975,164475.0
62865.614153607305,164487.0
62865.62424257485,164492.0
62865.634331542395,164446.0
62865.64442050995,164494.0
62865.65450947749,164445.0
62865.66459844504,164482.0
62865.67468741259,164432.0
62865.684776380134,164479.0
62865.69486534768,164473.0
62865.704954315224,164473.0
62865.71504328278,164471.0
62865.72513225032,164463.0
62865.73522121787,164480.0
62865.74531018542,164472.0
62865.755399152964,164499.0
62865.76548812051,164504.0
62865.77557708806,164508.0
62865.785666055606,164486.0
62865.79575502315,164481.0
62865.8058439907,164494.0
62865.81593295825,164469.0
62865.82602192579,164467.0
62865.836110893346,164476.0
62865.84619986089,164457.0
62865.856288828436,164485.0
62865.86637779598,164431.0
62865.87646676353,164476.0
62865.88655573108,164504.0
62865.89664469862,164488.0
62865.906733666176,164473.0
62865.91682263372,164507.0
62865.926911601266,164533.0
62865.93700056882,164526.0
62865.94708953636,164534.0
62865.95717850391,164542.0
62865.96726747146,164562.0
62865.977356439005,164581.0
62865.98744540655,164586.0
62865.9975343741,164588.0
62866.00762334165,164574.0
62866.01771230919,164622.0
62866.027801276745,164614.0
62866.03789024429,164638.0
62866.047979211835,164630.0
62866.05806817938,164682.0
62866.06815714693,164681.0
62866.07824611448,164672.0
62866.08833508202,164647.0
62866.098424049575,164672.0
62866.10851301712,164638.0
62866.118601984665,164695.0
62866.12869095222,164734.0
62866.13877991976,164715.0
62866.14886888731,164687.0
62866.15895785486,164732.0
62866.169046822404,164750.0
62866.17913578995,164707.0
62866.1892247575,164751.0
62866.19931372505,164771.0
62866.20940269259,164761.0
62866.219491660144,164804.0
62866.22958062769,164800.0
62866.239669595234,164770.0
62866.24975856278,164771.0
62866.25984753033,164824.0
62866.269936497876,164817.0
62866.28002546542,164830.0
62866.29011443297,164864.0
62866.30020340052,164874.0
62866.31029236806,164881.0
62866.320381335616,164841.0
62866.33047030316,164888.0
62866.340559270706,164884.0
62866.35064823826,164925.0
62866.3607372058,164924.0
62866.37082617335,164942.0
62866.3809151409,164916.0
62866.391004108445,164968.0
62866.40109307599,164974.0
62866.411182043536,164959.0
62866.42127101109,164936.0
62866.43135997863,164894.0
62866.44144894618,164850.0
62866.45153791373,164856.0
62866.461626881275,164804.0
62866.47171584882,164782.0
62866.48180481637,164757.0
62866.49189378392,164719.0
62866.50198275146,164637.0
62866.512071719015,164664.0
62866.52216068656,164646.0
62866.532249654105,164644.0
62866.54233862166,164668.0
62866.5524275892,164647.0
62866.56251655675,164637.0
62866.5726055243,164643.0
62866.582694491844,164648.0
62866.59278345939,164605.0
62866.602872426934,164610.0
62866.61296139449,164656.0
62866.62305036203,164633.0
62866.63313932958,164648.0
62866.64322829713,164669.0
62866.653317264674,164654.0
62866.66340623222,164664.0
62866.67349519977,164670.0
62866.68358416732,164640.0
62866.69367313486,164670.0
62866.703762102414,164703.0
62866.71385106996,164655.0
62866.723940037504,164672.0
62866.734029005056,164659.0
62866.7441179726,164665.0
62866.754206940146,164626.0
62866.76429590769,164665.0
62866.77438487524,164632.0
62866.78447384279,164624.0
62866.79456281033,164644.0
62866.804651777886,164635.0
62866.81474074543,164649.0
62866.824829712976,164656.0
62866.83491868053,164681.0
62866.84500764807,164677.0
62866.85509661562,164686.0
62866.86518558317,164676.0
62866.875274550715,164668.0
62866.88536351826,164696.0
62866.89545248581,164740.0
62866.90554145336,164728.0
62866.9156304209,164734.0
62866.925719388455,164776.0
62866.935808356,164719.0
62866.945897323545,164775.0
62866.95598629109,164798.0
62866.96607525864,164763.0
62866.97616422619,164805.0
62866.98625319373,164808.0
62866.996342161285,164802.0
62867.00643112883,164804.0
62867.016520096375,164845.0
62867.02660906393,164843.0
62867.03669803147,164826.0
62867.04678699902,164855.0
62867.05687596657,164826.0
62867.066964934114,164862.0
62867.07705390166,164874.0
62867.08714286921,164887.0
62867.09723183676,164859.0
62867.1073208043,164886.0
62867.117409771854,164923.0
62867.1274987394,164871.0
62867.137587706944,164898.0
62867.14767667449,164916.0
62867.15776564204,164876.0
62867.167854609586,164919.0
62867.17794357713,164954.0
62867.188032544684,164952.0
62867.19812151223,164934.0
62867.208210479774,164984.0
62867.218299447326,164924.0
62867.22838841487,164995.0
62867.238477382416,164965.0
62867.24856634997,165000.0
62867.25865531751,164991.0
62867.26874428506,165025.0
62867.27883325261,165022.0
62867.288922220156,165051.0
62867.2990111877,165010.0
62867.309100155246,165072.0
62867.3191891228,165039.0
62867.32927809034,165009.0
62867.33936705789,165014.0
62867.34945602544,164978.0
62867.359544992985,164944.0
62867.36963396053,164936.0
62867.37972292808,164860.0
62867.38981189563,164859.0
62867.39990086317,164824.0
62867.409989830725,164816.0
62867.42007879827,164800.0
62867.430167765815,164770.0
62867.44025673337,164716.0
62867.45034570091,164722.0
62867.46043466846,164775.0
62867.47052363601,164719.0
62867.480612603555,164737.0
62867.4907015711,164746.0
62867.500790538645,164792.0
62867.5108795062,164752.0
62867.52096847374,164772.0
62867.53105744129,164784.0
62867.54114640884,164770.0
62867.551235376384,164801.0
62867.56132434393,164806.0
62867.57141331148,164783.0
62867.58150227903,164826.0
62867.59159124657,164819.0
62867.601680214124,164810.0
62867.61176918167,164808.0
62867.621858149214,164810.0
62867.631947116766,164777.0
62867.64203608431,164799.0
62867.652125051856,164779.0
62867.66221401941,164768.0
62867.67230298695,164778.0
62867.6823919545,164769.0
62867.69248092204,164753.0
62867.702569889596,164750.0
62867.71265885714,164786.0
62867.722747824686,164777.0
62867.73283679224,164788.0
62867.74292575978,164795.0
62867.75301472733,164774.0
62867.76310369488,164799.0
62867.773192662426,164780.0
62867.78328162997,164803.0
62867.79337059752,164800.0
62867.80345956507,164847.0
62867.81354853261,164830.0
62867.823637500165,164831.0
62867.83372646771,164847.0
62867.843815435255,164891.0
62867.8539044028,164903.0
62867.86399337035,164894.0
62867.8740823379,164932.0
62867.88417130544,164919.0
62867.894260272995,164925.0
62867.90434924054,164911.0
62867.914438208085,164942.0
62867.92452717564,164956.0
62867.93461614318,164954.0
62867.94470511073,164993.0
62867.95479407828,164949.0
62867.964883045825,164984.0
62867.97497201337,164999.0
62867.98506098092,164951.0
62867.99514994847,164997.0
62868.00523891601,164985.0
62868.015327883564,164998.0
62868.02541685111,164987.0
62868.035505818654,165000.0
62868.0455947862,164990.0
62868.05568375375,165027.0
62868.0657727213,165036.0
62868.07586168884,165008.0
62868.085950656394,165046.0
62868.09603962394,165048.0
62868.106128591484,165060.0
62868.116217559036,165049.0
62868.12630652658,165086.0
62868.136395494126,165084.0
62868.14648446168,165074.0
62868.15657342922,165100.0
62868.16666239677,165095.0
62868.17675136432,165118.0
62868.186840331866,165078.0
62868.19692929941,165056.0
62868.20701826696,165041.0
62868.21710723451,165009.0
62868.22719620205,164988.0
62868.2372851696,164958.0
62868.24737413715,164896.0
62868.257463104695,164886.0
62868.26755207224,164897.0
62868.27764103979,164844.0
62868.28773000734,164848.0
62868.29781897488,164812.0
62868.307907942435,164778.0
62868.31799690998,164816.0
62868.328085877525,164798.0
62868.33817484508,164791.0
62868.34826381262,164785.0
62868.35835278017,164817.0
62868.36844174772,164799.0
62868.378530715265,164810.0
62868.38861968281,164816.0
62868.398708650355,164799.0
62868.40879761791,164802.0
62868.41888658545,164836.0
62868.428975553,164878.0
62868.43906452055,164838.0
62868.449153488094,164886.0
62868.45924245564,164859.0
62868.46933142319,164823.0
62868.47942039074,164866.0
62868.48950935828,164829.0
62868.499598325834,164853.0
62868.50968729338,164869.0
62868.519776260924,164820.0
62868.52986522848,164817.0
62868.53995419602,164841.0
62868.55004316357,164804.0
62868.56013213112,164802.0
62868.570221098664,164847.0
62868.58031006621,164834.0
62868.590399033754,164816.0
62868.600488001306,164865.0
62868.61057696885,164865.0
62868.620665936396,164838.0
62868.63075490395,164873.0
62868.64084387149,164911.0
62868.65093283904,164839.0
62868.66102180659,164883.0
62868.671110774136,164898.0
62868.68119974168,164893.0
62868.69128870923,164927.0
62868.70137767678,164962.0
62868.71146664432,164964.0
62868.721555611875,164954.0
62868.73164457942,164978.0
62868.741733546965,164984.0
62868.75182251452,164995.0
62868.76191148206,165012.0
62868.77200044961,165011.0
62868.78208941715,164978.0
62868.792178384705,165019.0
62868.80226735225,165042.0
62868.812356319795,165051.0
62868.82244528735,165053.0
62868.83253425489,165061.0
62868.84262322244,165069.0
62868.85271218999,165026.0
62868.862801157535,165084.0
62868.87289012508,165084.0
62868.88297909263,165106.0
62868.89306806018,165124.0
62868.90315702772,165066.0
62868.913245995274,165076.0
62868.92333496282,165066.0
62868.933423930364,165126.0
62868.94351289791,165095.0
62868.95360186546,165124.0
62868.96369083301,165152.0
62868.97377980055,165135.0
62868.983868768104,165170.0
62868.99395773565,165168.0
62869.004046703194,165194.0
62869.014135670746,165207.0
62869.02422463829,165202.0
62869.034313605836,165213.0
62869.04440257339,165188.0
62869.054491540934,165225.0
62869.06458050848,165213.0
62869.07466947603,165154.0
62869.084758443576,165124.0
62869.09484741112,165072.0
62869.10493637867,165068.0
62869.11502534622,165036.0
62869.12511431376,165015.0
62869.13520328131,164992.0
62869.14529224886,164920.0
62869.155381216406,164909.0
62869.16547018395,164892.0
62869.1755591515,164896.0
62869.18564811905,164864.0
62869.19573708659,164848.0
62869.205826054145,164845.0
62869.21591502169,164843.0
62869.226003989235,164880.0
62869.23609295679,164846.0
62869.24618192433,164855.0
62869.25627089188,164831.0
62869.26635985943,164834.0
62869.276448826975,164880.0
62869.28653779452,164866.0
62869.29662676207,164849.0
62869.30671572962,164861.0
62869.31680469716,164842.0
62869.32689366471,164854.0
62869.33698263226,164837.0
62869.347071599805,164842.0
62869.35716056735,164885.0
62869.3672495349,164870.0
62869.37733850245,164830.0
62869.38742746999,164845.0
62869.397516437544,164881.0
62869.40760540509,164852.0
62869.417694372634,164829.0
62869.42778334019,164860.0
62869.43787230773,164857.0
62869.44796127528,164830.0
62869.45805024283,164822.0
62869.468139210374,164811.0
62869.47822817792,164833.0
62869.488317145464,164879.0
62869.498406113016,164903.0
62869.50849508056,164908.0
62869.518584048106,164912.0
62869.52867301566,164902.0
62869.5387619832,164872.0
62869.54885095075,164950.0
62869.5589399183,164914.0
62869.569028885846,164945.0
62869.57911785339,164923.0
62869.58920682094,164967.0
62869.59929578849,164978.0
62869.60938475603,164980.0
62869.619473723586,165012.0
62869.62956269113,164981.0
62869.639651658676,165020.0
62869.64974062623,165025.0
62869.65982959377,165019.0
62869.66991856132,165038.0
62869.68000752886,165006.0
62869.690096496415,165039.0
62869.70018546396,165033.0
62869.710274431505,165029.0
62869.72036339906,165046.0
62869.7304523666,165059.0
62869.74054133415,165068.0
62869.7506303017,165052.0
62869.760719269245,165105.0
62869.77080823679,165093.0
62869.78089720434,165089.0
62869.79098617189,165097.0
62869.80107513943,165091.0
62869.811164106985,165123.0
62869.82125307453,165137.0
62869.831342042075,165137.0
62869.84143100963,165132.0
62869.85151997717,165170.0
62869.86160894472,165163.0
62869.87169791226,165168.0
62869.881786879814,165193.0
62869.89187584736,165216.0
62869.901964814904,165201.0
62869.91205378246,165234.0
62869.92214275,165218.0
62869.93223171755,165220.0
62869.9423206851,165213.0
62869.952409652644,165203.0
62869.96249862019,165166.0
62869.97258758774,165150.0
62869.982676555286,165058.0
62869.99276552283,165062.0
62870.00285449038,165049.0
62870.01294345793,165006.0
62870.02303242547,164958.0
62870.03312139302,164930.0
62870.04321036057,164926.0
62870.053299328116,164864.0
62870.06338829566,164890.0
62870.07347726321,164867.0
62870.08356623076,164901.0
62870.0936551983,164864.0
62870.103744165855,164893.0
62870.1138331334,164838.0
62870.123922100945,164897.0
62870.1340110685,164847.0
62870.14410003604,164890.0
62870.15418900359,164899.0
62870.16427797114,164888.0
62870.174366938685,164912.0
62870.18445590623,164902.0
62870.19454487378,164887.0
62870.20463384133,164919.0
62870.21472280887,164891.0
62870.22481177642,164906.0
62870.23490074397,164875.0
62870.244989711515,164923.0
62870.25507867906,164895.0
62870.26516764661,164885.0
62870.27525661416,164850.0
62870.2853455817,164853.0
62870.295434549254,164879.0
62870.3055235168,164879.0
62870.315612484344,164873.0
62870.3257014519,164892.0
62870.33579041944,164891.0
62870.34587938699,164853.0
62870.35596835454,164902.0
62870.366057322084,164931.0
62870.37614628963,164883.0
62870.386235257174,164954.0
62870.39632422473,164920.0
62870.40641319227,164928.0
62870.41650215982,164936.0
62870.42659112737,164929.0
62870.436680094914,164972.0
62870.44676906246,164949.0
62870.45685803001,165003.0
62870.466946997556,164979.0
62870.4770359651,165008.0
62870.48712493265,164883.0
62870.4972139002,164990.0
62870.50730286774,165008.0
62870.517391835296,165008.0
62870.52748080284,165054.0
62870.537569770386,165062.0
62870.54765873794,165039.0
62870.55774770548,165084.0
62870.56783667303,165083.0
62870.57792564057,165063.0
62870.588014608125,165065.0
62870.59810357567,165095.0
62870.608192543215,165099.0
62870.61828151077,165127.0
62870.62837047831,165086.0
62870.63845944586,165131.0
62870.64854841341,165151.0
62870.658637380955,165102.0
62870.6687263485,165138.0
62870.67881531605,165163.0
62870.6889042836,165158.0
62870.69899325114,165158.0
62870.709082218695,165186.0
62870.71917118624,165197.0
62870.729260153785,165197.0
62870.73934912134,165220.0
62870.74943808888,165227.0
62870.75952705643,165241.0
62870.76961602397,165238.0
62870.779704991524,165254.0
62870.78979395907,165272.0
62870.799882926614,165269.0
62870.80997189417,165298.0
62870.82006086171,165252.0
62870.83014982926,165248.0
62870.84023879681,165235.0
62870.850327764354,165198.0
62870.8604167319,165153.0
62870.87050569945,165137.0
62870.880594666996,165090.0
62870.89068363454,165050.0
62870.900772602094,165048.0
62870.91086156964,165029.0
62870.920950537184,164968.0
62870.93103950473,164942.0
62870.94112847228,164958.0
62870.951217439826,164947.0
62870.96130640737,164950.0
62870.97139537492,164959.0
62870.98148434247,164946.0
62870.99157331001,164972.0
62871.001662277566,164949.0
62871.01175124511,164940.0
62871.021840212656,164908.0
62871.03192918021,164959.0
62871.04201814775,164992.0
62871.0521071153,164968.0
62871.06219608285,164971.0
62871.072285050395,164976.0
62871.08237401794,164934.0
62871.09246298549,164990.0
62871.10255195304,164989.0
62871.11264092058,164977.0
62871.12272988813,164989.0
62871.13281885568,164982.0
62871.142907823225,164932.0
62871.15299679077,164954.0
62871.16308575832,164974.0
62871.17317472587,164953.0
62871.18326369341,164948.0
62871.193352660965,164974.0
62871.20344162851,164920.0
62871.213530596055,164962.0
62871.22361956361,164964.0
62871.23370853115,164930.0
62871.2437974987,164997.0
62871.25388646625,164979.0
62871.263975433794,164958.0
62871.27406440134,164976.0
62871.28415336889,165010.0
62871.29424233644,165009.0
62871.30433130398,165040.0
62871.31442027153,165044.0
62871.32450923908,165037.0
62871.334598206624,165048.0
62871.34468717417,165069.0
62871.35477614172,165079.0
62871.364865109266,165060.0
62871.37495407681,165105.0
62871.38504304436,165146.0
62871.39513201191,165076.0
62871.40522097945,165125.0
62871.415309947006,165141.0
62871.42539891455,165163.0
62871.435487882096,165172.0
62871.44557684965,165185.0
62871.45566581719,165154.0
62871.46575478474,165135.0
62871.47584375228,165171.0
62871.485932719836,165194.0
62871.49602168738,165187.0
62871.506110654926,165202.0
62871.51619962248,165216.0
62871.52628859002,165175.0
62871.53637755757,165248.0
62871.54646652512,165209.0
62871.556555492665,165219.0
62871.56664446021,165233.0
62871.57673342776,165255.0
62871.58682239531,165236.0
62871.59691136285,165215.0
62871.607000330405,165279.0
62871.61708929795,165264.0
62871.627178265495,165285.0
62871.63726723305,165289.0
62871.64735620059,165275.0
62871.65744516814,165332.0
62871.66753413568,165335.0
62871.677623103235,165330.0
62871.68771207078,165317.0
62871.697801038325,165364.0
62871.70789000588,165333.0
62871.71797897342,165242.0
62871.72806794097,165268.0
62871.73815690852,165230.0
62871.748245876064,165216.0
62871.75833484361,165204.0
62871.76842381116,165152.0
62871.77851277871,165101.0
62871.78860174625,165106.0
62871.798690713804,165098.0
62871.80877968135,165031.0
62871.818868648894,165043.0
62871.828957616446,165036.0
62871.83904658399,165023.0
62871.849135551536,165021.0
62871.85922451908,165028.0
62871.86931348663,165016.0
62871.87940245418,165011.0
62871.88949142172,165046.0
62871.899580389276,165028.0
62871.90966935682,165041.0
62871.919758324366,165057.0
62871.92984729192,165078.0
62871.93993625946,165088.0
62871.95002522701,165067.0
62871.96011419456,165100.0
62871.970203162105,165046.0
62871.98029212965,165079.0
62871.9903810972,165070.0
62872.00047006475,165033.0
62872.01055903229,165054.0
62872.02064799984,165088.0
62872.03073696739,165054.0
62872.040825934935,165038.0
62872.05091490248,165073.0
62872.06100387003,165050.0
62872.07109283758,165032.0
62872.08118180512,165045.0
62872.091270772675,165047.0
62872.10135974022,164993.0
62872.111448707765,165051.0
62872.12153767532,165023.0
62872.13162664286,165013.0
62872.14171561041,165053.0
62872.15180457796,165030.0
62872.161893545504,165081.0
62872.17198251305,165109.0
62872.1820714806,165091.0
62872.19216044815,165093.0
62872.20224941569,165126.0
62872.21233838324,165106.0
62872.22242735079,165122.0
62872.232516318334,165109.0
62872.24260528588,165151.0
62872.25269425343,165158.0
62872.26278322098,165183.0
62872.27287218852,165167.0
62872.282961156074,165182.0
62872.29305012362,165184.0
62872.303139091164,165167.0
62872.313228058716,165198.0
62872.32331702626,165200.0
62872.333405993806,165219.0
62872.34349496136,165236.0
62872.3535839289,165229.0
62872.36367289645,165223.0
62872.373761864,165249.0
62872.383850831546,165204.0
62872.39393979909,165240.0
62872.404028766636,165247.0
62872.41411773419,165254.0
62872.42420670173,165240.0
62872.43429566928,165256.0
62872.44438463683,165282.0
62872.454473604375,165315.0
62872.46456257192,165274.0
62872.47465153947,165311.0
62872.48474050702,165313.0
62872.49482947456,165326.0
62872.504918442115,165331.0
62872.51500740966,165341.0
62872.525096377205,165341.0
62872.53518534476,165344.0
62872.5452743123,165316.0
62872.55536327985,165317.0
62872.56545224739,165304.0
62872.575541214945,165251.0
62872.58563018249,165204.0
62872.595719150035,165182.0
62872.60580811759,165180.0
62872.61589708513,165147.0
62872.62598605268,165117.0
62872.63607502023,165128.0
62872.646163987774,165054.0
62872.65625295532,165072.0
62872.66634192287,165066.0
62872.67643089042,165010.0
62872.68651985796,165008.0
62872.696608825514,165068.0
62872.70669779306,165030.0
62872.716786760604,165076.0
62872.726875728156,165059.0
62872.7369646957,165054.0
62872.747053663246,165028.0
62872.75714263079,165073.0
62872.767231598344,165070.0
62872.77732056589,165079.0
62872.787409533434,165048.0
62872.797498500986,165066.0
62872.80758746853,165099.0
62872.817676436076,165109.0
62872.82776540363,165128.0
62872.83785437117,165117.0
62872.84794333872,165101.0
62872.85803230627,165089.0
62872.868121273816,165087.0
62872.87821024136,165034.0
62872.88829920891,165041.0
62872.89838817646,165064.0
62872.908477144,165068.0
62872.918566111555,165041.0
62872.9286550791,165001.0
62872.938744046645,165047.0
62872.94883301419,165027.0
62872.95892198174,165073.0
62872.96901094929,165029.0
62872.97909991683,165071.0
62872.989188884385,165069.0
62872.99927785193,165092.0
62873.009366819475,165114.0
62873.01945578703,165098.0
62873.02954475457,165104.0
62873.03963372212,165127.0
62873.04972268967,165150.0
62873.059811657215,165123.0
62873.06990062476,165099.0
62873.07998959231,165161.0
62873.09007855986,165188.0
62873.1001675274,165165.0
62873.11025649495,165156.0
62873.1203454625,165194.0
62873.130434430044,165186.0
62873.14052339759,165193.0
62873.15061236514,165219.0
62873.16070133269,165182.0
62873.17079030023,165242.0
62873.180879267784,165210.0
62873.19096823533,165200.0
62873.201057202874,165201.0
62873.211146170426,165234.0
62873.22123513797,165236.0
62873.231324105516,165229.0
62873.24141307307,165272.0
62873.25150204061,165240.0
62873.26159100816,165274.0
62873.27167997571,165255.0
62873.281768943256,165247.0
62873.2918579108,165281.0
62873.301946878346,165250.0
62873.3120358459,165279.0
62873.32212481344,165289.0
62873.33221378099,165294.0
62873.34230274854,165235.0
62873.352391716086,165221.0
62873.36248068363,165210.0
62873.37256965118,165153.0
62873.38265861873,165109.0
62873.39274758627,165096.0
62873.402836553825,165052.0
62873.41292552137,165034.0
62873.423014488915,165020.0
62873.43310345647,165000.0
62873.44319242401,164966.0
62873.45328139156,164946.0
62873.4633703591,164968.0
62873.473459326655,164954.0
62873.4835482942,164951.0
62873.493637261745,164933.0
62873.5037262293,164979.0
62873.51381519684,164965.0
62873.52390416439,164949.0
62873.53399313194,164939.0
62873.544082099485,164972.0
62873.55417106703,164990.0
62873.56426003458,164977.0
62873.57434900213,164980.0
62873.58443796967,165008.0
62873.594526937224,164966.0
62873.60461590477,164982.0
62873.614704872314,165014.0
62873.62479383987,164991.0
62873.63488280741,164987.0
62873.64497177496,164975.0
62873.6550607425,164974.0
62873.665149710054,164928.0
62873.6752386776,164960.0
62873.685327645144,164988.0
62873.695416612696,164915.0
62873.70550558024,164973.0
62873.715594547786,164942.0
62873.72568351534,164961.0
62873.73577248288,164936.0
62873.74586145043,164974.0
62873.75595041798,164948.0
62873.766039385526,164946.0
62873.77612835307,165000.0
62873.78621732062,164981.0
62873.79630628817,164978.0
62873.80639525571,164995.0
62873.816484223265,165012.0
62873.82657319081,164981.0
62873.836662158355,165035.0
62873.8467511259,165038.0
62873.85684009345,165005.0
62873.866929061,165066.0
62873.87701802854,165045.0
62873.887106996095,165066.0
62873.89719596364,165086.0
62873.907284931185,165098.0
62873.91737389874,165065.0
62873.92746286628,165085.0
62873.93755183383,165100.0
62873.94764080138,165086.0
62873.957729768925,165096.0
62873.96781873647,165117.0
62873.97790770402,165145.0
62873.98799667157,165107.0
62873.99808563911,165141.0
62874.00817460666,165121.0
62874.01826357421,165120.0
62874.028352541754,165152.0
62874.0384415093,165126.0
62874.04853047685,165150.0
62874.0586194444,165164.0
62874.06870841194,165185.0
62874.078797379494,165150.0
62874.08888634704,165166.0
62874.098975314584,165173.0
62874.10906428214,165101.0
62874.11915324968,165125.0
62874.12924221723,165071.0
62874.13933118478,165003.0
62874.149420152324,164978.0
62874.15950911987,164975.0
62874.16959808742,164925.0
62874.179687054966,164890.0
62874.18977602251,164877.0
62874.199864990056,164842.0
62874.20995395761,164841.0
62874.22004292515,164829.0
62874.2301318927,164817.0
62874.24022086025,164779.0
62874.250309827796,164797.0
62874.26039879534,164827.0
62874.27048776289,164760.0
62874.28057673044,164765.0
62874.29066569798,164784.0
62874.300754665535,164776.0
62874.31084363308,164775.0
62874.320932600625,164740.0
62874.33102156818,164777.0
62874.34111053572,164744.0
62874.35119950327,164785.0
62874.36128847082,164747.0
62874.371377438365,164741.0
62874.38146640591,164735.0
62874.391555373455,164713.0
62874.40164434101,164716.0
62874.41173330855,164704.0
62874.4218222761,164717.0
62874.43191124365,164705.0
62874.442000211195,164737.0
62874.45208917874,164698.0
62874.46217814629,164726.0
62874.47226711384,164681.0
62874.48235608138,164729.0
62874.492445048934,164687.0
62874.50253401648,164708.0
62874.512622984024,164709.0
62874.52271195158,164704.0
62874.53280091912,164686.0
62874.54288988667,164723.0
62874.55297885421,164746.0
62874.563067821764,164738.0
62874.57315678931,164764.0
62874.583245756854,164768.0
62874.593334724406,164736.0
62874.60342369195,164784.0
62874.613512659496,164771.0
62874.62360162705,164803.0
62874.633690594594,164826.0
62874.64377956214,164796.0
62874.65386852969,164815.0
62874.663957497236,164840.0
62874.67404646478,164839.0
62874.68413543233,164795.0
62874.69422439988,164869.0
62874.70431336742,164854.0
62874.714402334976,164839.0
62874.72449130252,164873.0
62874.734580270066,164856.0
62874.74466923761,164876.0
62874.75475820516,164858.0
62874.76484717271,164868.0
62874.77493614025,164844.0
62874.785025107805,164892.0
62874.79511407535,164888.0
62874.805203042895,164860.0
62874.81529201045,164904.0
62874.82538097799,164905.0
62874.83546994554,164904.0
62874.84555891309,164935.0
62874.855647880635,164960.0
62874.86573684818,164938.0
62874.87582581573,164913.0
62874.88591478328,164960.0
62874.89600375082,164913.0
62874.906092718375,164888.0
62874.91618168592,164841.0
62874.926270653465,164775.0
62874.93635962101,164766.0
62874.94644858856,164740.0
62874.95653755611,164689.0
62874.96662652365,164657.0
62874.976715491204,164624.0
62874.98680445875,164639.0
62874.996893426294,164608.0
62875.00698239385,164573.0
62875.01707136139,164595.0
62875.02716032894,164569.0
62875.03724929649,164577.0
62875.047338264034,164578.0
62875.05742723158,164546.0
62875.06751619913,164556.0
62875.077605166676,164553.0
62875.08769413422,164542.0
62875.097783101766,164537.0
62875.10787206932,164541.0
62875.11796103686,164554.0
62875.12805000441,164563.0
62875.13813897196,164569.0
62875.148227939506,164520.0
62875.15831690705,164554.0
62875.1684058746,164547.0
62875.17849484215,164561.0
62875.18858380969,164531.0
62875.198672777246,164563.0
62875.20876174479,164535.0
62875.218850712336,164508.0
62875.22893967989,164526.0
62875.23902864743,164536.0
62875.24911761498,164515.0
62875.25920658253,164545.0
62875.269295550075,164535.0
62875.27938451762,164522.0
62875.289473485165,164508.0
62875.29956245272,164563.0
62875.30965142026,164522.0
62875.31974038781,164548.0
62875.32982935536,164554.0
62875.339918322905,164535.0
62875.35000729045,164581.0
62875.360096258,164577.0
62875.37018522555,164617.0
62875.38027419309,164595.0
62875.390363160644,164618.0
62875.40045212819,164629.0
62875.410541095735,164612.0
62875.42063006329,164603.0
62875.43071903083,164630.0
62875.44080799838,164661.0
62875.45089696593,164668.0
62875.460985933474,164624.0
62875.47107490102,164657.0
62875.481163868564,164681.0
62875.49125283612,164644.0
62875.50134180366,164715.0
62875.51143077121,164706.0
62875.52151973876,164722.0
62875.531608706304,164703.0
62875.54169767385,164716.0
62875.5517866414,164722.0
62875.561875608946,164720.0
62875.57196457649,164748.0
62875.58205354404,164754.0
62875.59214251159,164788.0
62875.60223147913,164716.0
62875.612320446686,164773.0
62875.62240941423,164793.0
62875.632498381776,164766.0
62875.64258734932,164823.0
62875.65267631687,164821.0
62875.66276528442,164790.0
62875.67285425196,164830.0
62875.682943219515,164830.0
62875.69303218706,164859.0
62875.703121154605,164862.0
62875.71321012216,164882.0
62875.7232990897,164873.0
62875.73338805725,164861.0
62875.7434770248,164882.0
62875.753565992345,164846.0
62875.76365495989,164827.0
62875.77374392744,164783.0
62875.78383289499,164716.0
62875.79392186253,164713.0
62875.804010830085,164659.0
62875.81409979763,164622.0
62875.824188765175,164613.0
62875.83427773272,164548.0
62875.84436670027,164531.0
62875.85445566782,164535.0
62875.86454463536,164517.0
62875.874633602914,164538.0
62875.88472257046,164487.0
62875.894811538004,164510.0
62875.90490050556,164501.0
62875.9149894731,164485.0
62875.92507844065,164472.0
62875.9351674082,164511.0
62875.945256375744,164488.0
62875.95534534329,164521.0
62875.96543431084,164526.0
62875.97552327839,164505.0
62875.98561224593,164532.0
62875.995701213484,164495.0
62876.00579018103,164535.0
62876.015879148574,164501.0
62876.02596811612,164480.0
62876.03605708367,164503.0
62876.046146051216,164509.0
62876.05623501876,164505.0
62876.06632398631,164476.0
62876.07641295386,164484.0
62876.0865019214,164479.0
62876.096590888956,164480.0
62876.1066798565,164467.0
62876.116768824046,164487.0
62876.1268577916,164469.0
62876.13694675914,164546.0
62876.14703572669,164486.0
62876.15712469424,164521.0
62876.167213661785,164511.0
62876.17730262933,164518.0
62876.187391596875,164548.0
62876.19748056443,164547.0
62876.20756953197,164557.0
62876.21765849952,164557.0
62876.22774746707,164585.0
62876.237836434615,164580.0
62876.24792540216,164626.0
62876.25801436971,164632.0
62876.26810333726,164609.0
62876.2781923048,164616.0
62876.288281272355,164629.0
62876.2983702399,164626.0
62876.308459207445,164662.0
62876.318548175,164650.0
62876.32863714254,164684.0
62876.33872611009,164672.0
62876.34881507764,164693.0
62876.358904045184,164694.0
62876.36899301273,164705.0
62876.379081980274,164708.0
62876.38917094783,164713.0
62876.39925991537,164696.0
62876.40934888292,164715.0
62876.41943785047,164776.0
62876.429526818014,164757.0
62876.43961578556,164746.0
62876.44970475311,164747.0
62876.459793720656,164801.0
62876.4698826882,164768.0
62876.47997165575,164783.0
62876.4900606233,164833.0
62876.500149590844,164790.0
62876.510238558396,164827.0
62876.52032752594,164834.0
62876.530416493486,164834.0
62876.54050546104,164848.0
62876.55059442858,164853.0
62876.56068339613,164863.0
62876.57077236367,164913.0
62876.580861331226,164915.0
62876.59095029877,164903.0
62876.601039266316,164925.0
62876.61112823387,164934.0
62876.62121720141,164922.0
62876.63130616896,164916.0
62876.64139513651,164886.0
62876.651484104055,164879.0
62876.6615730716,164819.0
62876.67166203915,164803.0
62876.6817510067,164754.0
62876.69183997424,164706.0
62876.701928941795,164668.0
62876.71201790934,164687.0
62876.722106876885,164652.0
62876.73219584443,164619.0
62876.74228481198,164624.0
62876.75237377953,164582.0
62876.76246274707,164583.0
62876.772551714625,164530.0
62876.78264068217,164561.0
62876.792729649715,164570.0
62876.80281861727,164592.0
62876.81290758481,164576.0
62876.82299655236,164577.0
62876.83308551991,164557.0
62876.843174487454,164583.0
62876.853263455,164570.0
62876.86335242255,164612.0
62876.8734413901,164566.0
62876.88353035764,164612.0
62876.893619325194,164597.0
62876.90370829274,164631.0
62876.913797260284,164578.0
62876.92388622783,164588.0
62876.93397519538,164629.0
62876.944064162926,164572.0
62876.95415313047,164605.0
62876.96424209802,164583.0
62876.97433106557,164574.0
62876.98442003311,164557.0
62876.994509000666,164601.0
62877.00459796821,164572.0
62877.014686935756,164559.0
62877.02477590331,164580.0
62877.03486487085,164590.0
62877.0449538384,164596.0
62877.05504280595,164590.0
62877.065131773496,164602.0
62877.07522074104,164619.0
62877.085309708586,164622.0
62877.09539867614,164647.0
62877.10548764368,164629.0
62877.11557661123,164669.0
62877.12566557878,164665.0
62877.135754546325,164707.0
62877.14584351387,164654.0
62877.15593248142,164714.0
62877.16602144897,164714.0
62877.17611041651,164738.0
62877.186199384065,164742.0
62877.19628835161,164704.0
62877.206377319155,164708.0
62877.21646628671,164696.0
62877.22655525425,164748.0
62877.2366442218,164726.0
62877.24673318935,164767.0
62877.256822156894,164749.0
62877.26691112444,164732.0
62877.277000091985,164720.0
62877.28708905954,164733.0
62877.29717802708,164766.0
62877.30726699463,164771.0
62877.31735596218,164809.0
62877.327444929724,164730.0
62877.33753389727,164763.0
62877.34762286482,164786.0
62877.35771183237,164759.0
62877.36780079991,164789.0
62877.377889767464,164799.0
62877.38797873501,164794.0
62877.398067702554,164795.0
62877.408156670106,164809.0
62877.41824563765,164830.0
62877.428334605196,164833.0
62877.43842357275,164876.0
62877.44851254029,164874.0
62877.45860150784,164867.0
62877.46869047538,164885.0
62877.478779442936,164922.0
62877.48886841048,164865.0
62877.498957378026,164868.0
62877.50904634558,164865.0
62877.51913531312,164852.0
62877.52922428067,164758.0
62877.53931324822,164752.0
62877.549402215765,164735.0
62877.55949118331,164673.0
62877.56958015086,164673.0
62877.57966911841,164632.0
62877.58975808595,164605.0
62877.599847053505,164586.0
62877.60993602105,164566.0
62877.620024988595,164571.0
62877.63011395614,164574.0
62877.64020292369,164557.0
62877.65029189124,164550.0
62877.66038085878,164590.0
62877.670469826335,164606.0
62877.68055879388,164590.0
62877.690647761425,164601.0
62877.70073672898,164609.0
62877.71082569652,164604.0
62877.72091466407,164582.0
62877.73100363162,164605.0
62877.741092599164,164608.0
62877.75118156671,164632.0
62877.76127053426,164658.0
62877.77135950181,164623.0
62877.78144846935,164641.0
62877.791537436904,164612.0
62877.80162640445,164646.0
62877.811715371994,164609.0
62877.82180433954,164620.0
62877.83189330709,164599.0
62877.84198227464,164578.0
62877.85207124218,164565.0
62877.862160209734,164617.0
62877.87224917728,164593.0
62877.882338144824,164584.0
62877.892427112376,164634.0
62877.90251607992,164576.0
62877.912605047466,164623.0
62877.92269401502,164641.0
62877.93278298256,164646.0
62877.94287195011,164629.0
62877.95296091766,164619.0
62877.963049885206,164623.0
62877.97313885275,164596.0
62877.9832278203,164654.0
62877.99331678785,164659.0
62878.00340575539,164665.0
62878.01349472294,164677.0
62878.02358369049,164655.0
62878.033672658035,164714.0
62878.04376162558,164728.0
62878.05385059313,164737.0
62878.06393956068,164723.0
62878.07402852822,164768.0
62878.084117495775,164794.0
62878.09420646332,164784.0
62878.104295430865,164805.0
62878.11438439842,164827.0
62878.12447336596,164838.0
62878.13456233351,164831.0
62878.14465130106,164884.0
62878.154740268605,164872.0
62878.16482923615,164887.0
62878.174918203695,164918.0
62878.18500717125,164951.0
62878.19509613879,164932.0
62878.20518510634,164927.0
62878.21527407389,164950.0
62878.225363041434,164961.0
62878.23545200898,164996.0
62878.24554097653,164985.0
62878.25562994408,164969.0
62878.26571891162,165016.0
62878.275807879174,165047.0
62878.28589684672,164999.0
62878.295985814264,164993.0
62878.306074781816,165068.0
62878.31616374936,165043.0
62878.326252716906,165027.0
62878.33634168446,165026.0
62878.346430652,164973.0
62878.35651961955,164937.0
62878.366608587094,164925.0
62878.376697554646,164896.0
62878.38678652219,164794.0
62878.396875489736,164784.0
62878.40696445729,164718.0
62878.41705342483,164737.0
62878.42714239238,164721.0
62878.43723135993,164670.0
62878.447320327476,164654.0
62878.45740929502,164679.0
62878.46749826257,164644.0
62878.47758723012,164592.0
62878.48767619766,164615.0
62878.497765165215,164608.0
62878.50785413276,164603.0
62878.517943100305,164602.0
62878.52803206786,164604.0
62878.5381210354,164567.0
62878.54821000295,164620.0
62878.55829897049,164612.0
62878.568387938045,164621.0
62878.57847690559,164659.0
62878.588565873135,164641.0
62878.59865484069,164654.0
62878.60874380823,164658.0
62878.61883277578,164689.0
62878.62892174333,164635.0
62878.639010710875,164630.0
62878.64909967842,164658.0
62878.65918864597,164668.0
62878.66927761352,164673.0
62878.67936658106,164645.0
62878.689455548614,164654.0
62878.69954451616,164678.0
62878.709633483704,164648.0
62878.71972245125,164688.0
62878.7298114188,164691.0
62878.73990038635,164675.0
62878.74998935389,164731.0
62878.760078321444,164709.0
62878.77016728899,164738.0
62878.780256256534,164744.0
62878.790345224086,164757.0
62878.80043419163,164757.0
62878.810523159176,164811.0
62878.82061212673,164832.0
62878.83070109427,164787.0
62878.84079006182,164839.0
62878.85087902937,164839.0
62878.860967996916,164829.0
62878.87105696446,164847.0
62878.88114593201,164891.0
62878.89123489956,164896.0
62878.9013238671,164894.0
62878.91141283465,164902.0
62878.9215018022,164911.0
62878.931590769746,164924.0
62878.94167973729,164929.0
62878.95176870484,164914.0
62878.96185767239,164928.0
62878.97194663993,164959.0
62878.982035607485,164978.0
62878.99212457503,164964.0
62879.002213542575,164950.0
62879.01230251013,164990.0
62879.02239147767,165007.0
62879.03248044522,164993.0
62879.04256941277,165017.0
62879.052658380315,165023.0
62879.06274734786,165045.0
62879.07283631541,165048.0
62879.08292528296,165062.0
62879.0930142505,165091.0
62879.10310321805,165088.0
62879.1131921856,165107.0
62879.123281153144,165104.0
62879.13337012069,165127.0
62879.14345908824,165143.0
62879.15354805579,165136.0
62879.16363702333,165154.0
62879.173725990884,165155.0
62879.18381495843,165121.0
62879.193903925974,165059.0
62879.20399289353,165008.0
62879.21408186107,164979.0
62879.22417082862,164978.0
62879.23425979617,164934.0
62879.244348763714,164890.0
62879.25443773126,164907.0
62879.264526698804,164852.0
62879.274615666356,164851.0
62879.2847046339,164807.0
62879.294793601446,164797.0
62879.304882569,164813.0
62879.31497153654,164784.0
62879.32506050409,164789.0
62879.33514947164,164777.0
62879.345238439186,164805.0
62879.35532740673,164790.0
62879.36541637428,164788.0
62879.37550534183,164843.0
62879.38559430937,164817.0
62879.395683276925,164782.0
62879.40577224447,164818.0
62879.415861212015,164801.0
62879.42595017957,164825.0
62879.43603914711,164838.0
62879.44612811466,164812.0
62879.4562170822,164861.0
62879.466306049755,164828.0
62879.4763950173,164797.0
62879.486483984845,164802.0
62879.4965729524,164835.0
62879.50666191994,164817.0
62879.51675088749,164798.0
62879.52683985504,164841.0
62879.536928822585,164826.0
62879.54701779013,164833.0
62879.55710675768,164828.0
62879.56719572523,164814.0
62879.57728469277,164834.0
62879.587373660324,164860.0
62879.59746262787,164857.0
62879.607551595414,164876.0
62879.61764056297,164884.0
62879.62772953051,164859.0
62879.63781849806,164902.0
62879.6479074656,164933.0
62879.657996433154,164900.0
62879.6680854007,164953.0
62879.678174368244,164943.0
62879.6882633358,164937.0
62879.69835230334,164987.0
62879.70844127089,164961.0
62879.71853023844,164984.0
62879.728619205984,165015.0
62879.73870817353,165003.0
62879.74879714108,165012.0
62879.758886108626,165031.0
62879.76897507617,164987.0
62879.77906404372,165022.0
62879.78915301127,165035.0
62879.79924197881,165051.0
62879.80933094636,165028.0
62879.81941991391,165092.0
62879.829508881456,165046.0
62879.839597849,165077.0
62879.84968681655,165058.0
62879.8597757841,165076.0
62879.86986475164,165124.0
62879.879953719195,165144.0
62879.89004268674,165114.0
62879.900131654285,165093.0
62879.91022062184,165111.0
62879.92030958938,165142.0
62879.93039855693,165194.0
62879.94048752448,165170.0
62879.950576492025,165139.0
62879.96066545957,165188.0
62879.97075442712,165179.0
62879.98084339467,165207.0
62879.99093236221,165193.0
62880.00102132976,165223.0
62880.01111029731,165276.0
62880.021199264855,165255.0
62880.0312882324,165266.0
62880.04137719995,165247.0
62880.0514661675,165251.0
62880.06155513504,165194.0
62880.071644102594,165156.0
62880.08173307014,165132.0
62880.091822037684,165075.0
62880.10191100524,165057.0
62880.11199997278,165045.0
62880.12208894033,164985.0
62880.13217790788,164962.0
62880.142266875424,164954.0
62880.15235584297,164954.0
62880.162444810514,164938.0
62880.172533778066,164936.0
62880.18262274561,164912.0
62880.192711713156,164917.0
62880.20280068071,164900.0
62880.21288964825,164920.0
62880.2229786158,164899.0
62880.23306758335,164954.0
62880.243156550896,164910.0
62880.25324551844,164924.0
62880.26333448599,164922.0
62880.27342345354,164943.0
62880.28351242108,164911.0
62880.293601388636,164938.0
62880.30369035618,164954.0
62880.313779323726,164936.0
62880.32386829128,164980.0
62880.33395725882,164943.0
62880.34404622637,164917.0
62880.35413519391,164917.0
62880.364224161465,164913.0
62880.37431312901,164928.0
62880.384402096555,164895.0
62880.39449106411,164935.0
62880.40458003165,164909.0
62880.4146689992,164928.0
62880.42475796675,164897.0
62880.434846934295,164895.0
62880.44493590184,164941.0
62880.45502486939,164939.0
62880.46511383694,164927.0
62880.47520280448,164960.0
62880.485291772035,164984.0
62880.49538073958,164988.0
62880.505469707125,164987.0
62880.51555867468,165014.0
62880.52564764222,165011.0
62880.53573660977,165018.0
62880.54582557731,165042.0
62880.555914544864,165050.0
62880.56600351241,165030.0
62880.576092479954,165057.0
62880.58618144751,165050.0
62880.59627041505,165076.0
62880.6063593826,165093.0
62880.61644835015,165095.0
62880.626537317694,165120.0
62880.63662628524,165123.0
62880.64671525279,165138.0
62880.656804220336,165127.0
62880.66689318788,165109.0
62880.67698215543,165187.0
62880.68707112298,165134.0
62880.69716009052,165124.0
62880.70724905807,165144.0
62880.71733802562,165180.0
62880.727426993166,165133.0
62880.73751596071,165188.0
62880.74760492826,165177.0
62880.75769389581,165179.0
62880.76778286335,165210.0
62880.777871830905,165185.0
62880.78796079845,165226.0
62880.798049765996,165244.0
62880.80813873355,165264.0
62880.81822770109,165229.0
62880.82831666864,165255.0
62880.83840563619,165253.0
62880.848494603735,165254.0
62880.85858357128,165251.0
62880.86867253883,165298.0
62880.87876150638,165314.0
62880.88885047392,165320.0
62880.89893944147,165350.0
62880.90902840902,165336.0
62880.919117376565,165318.0
62880.92920634411,165331.0
62880.93929531166,165332.0
62880.94938427921,165255.0
62880.95947324675,165231.0
62880.969562214304,165200.0
62880.97965118185,165153.0
62880.989740149394,165139.0
62880.99982911695,165127.0
62881.00991808449,165065.0
62881.02000705204,165081.0
62881.03009601959,165055.0
62881.040184987134,165050.0
62881.05027395468,165034.0
62881.06036292223,165029.0
62881.07045188978,165042.0
62881.08054085732,165014.0
62881.09062982487,165043.0
62881.10071879242,165027.0
62881.110807759964,165046.0
62881.12089672751,165050.0
62881.13098569506,165027.0
62881.141074662606,165033.0
62881.15116363015,165057.0
62881.1612525977,165080.0
62881.17134156525,165049.0
62881.18143053279,165093.0
62881.191519500346,165076.0
62881.20160846789,165049.0
62881.211697435436,165071.0
62881.22178640299,165084.0
62881.23187537053,165067.0
62881.24196433808,165042.0
62881.25205330562,165070.0
62881.262142273175,165057.0
62881.27223124072,165066.0
62881.282320208265,165055.0
62881.29240917582,165032.0
62881.30249814336,165022.0
62881.31258711091,165070.0
62881.32267607846,165070.0
62881.332765046005,165060.0
62881.34285401355,165109.0
62881.3529429811,165078.0
62881.36303194865,165067.0
62881.37312091619,165065.0
62881.383209883745,165089.0
62881.39329885129,165119.0
62881.403387818835,165125.0
62881.41347678639,165132.0
62881.42356575393,165106.0
62881.43365472148,165137.0
62881.44374368902,165166.0
62881.453832656574,165205.0
62881.46392162412,165195.0
62881.474010591664,165212.0
62881.48409955922,165175.0
62881.49418852676,165187.0
62881.50427749431,165233.0
62881.51436646186,165251.0
62881.524455429404,165234.0
62881.53454439695,165234.0
62881.5446333645,165254.0
62881.55472233205,165222.0
62881.56481129959,165262.0
62881.574900267144,165240.0
62881.58498923469,165248.0
62881.595078202234,165299.0
62881.605167169786,165278.0
62881.61525613733,165236.0
62881.625345104876,165287.0
62881.63543407242,165295.0
62881.64552303997,165301.0
62881.65561200752,165263.0
62881.66570097506,165324.0
62881.675789942616,165282.0
62881.68587891016,165338.0
62881.695967877706,165343.0
62881.70605684526,165328.0
62881.7161458128,165324.0
62881.72623478035,165349.0
62881.7363237479,165387.0
62881.746412715445,165351.0
62881.75650168299,165396.0
62881.76659065054,165387.0
62881.77667961809,165405.0
62881.78676858563,165441.0
62881.79685755318,165421.0
62881.80694652073,165387.0
62881.817035488275,165338.0
62881.82712445582,165353.0
62881.83721342337,165286.0
62881.84730239092,165260.0
62881.85739135846,165221.0
62881.867480326015,165196.0
62881.87756929356,165152.0
62881.887658261105,165196.0
62881.89774722866,165122.0
62881.9078361962,165117.0
62881.91792516375,165122.0
62881.9280141313,165092.0
62881.938103098844,165108.0
62881.94819206639,165079.0
62881.95828103394,165114.0
62881.96837000149,165118.0
62881.97845896903,165113.0
62881.98854793658,165116.0
62881.99863690413,165115.0
62882.008725871674,165139.0
62882.01881483922,165165.0
62882.02890380677,165151.0
62882.038992774316,165133.0
62882.04908174186,165181.0
62882.05917070941,165165.0
62882.06925967696,165136.0
62882.0793486445,165138.0
62882.089437612056,165141.0
62882.0995265796,165157.0
62882.109615547146,165175.0
62882.1197045147,165170.0
62882.12979348224,165134.0
62882.13988244979,165133.0
62882.14997141734,165142.0
62882.160060384886,165105.0
62882.17014935243,165115.0
62882.180238319976,165116.0
62882.19032728753,165111.0
62882.20041625507,165131.0
62882.21050522262,165122.0
62882.22059419017,165150.0
62882.230683157715,165118.0
62882.24077212526,165180.0
62882.25086109281,165178.0
62882.26095006036,165183.0
62882.2710390279,165196.0
62882.281127995455,165194.0
62882.291216963,165212.0
62882.301305930545,165198.0
62882.3113948981,165239.0
62882.32148386564,165174.0
62882.33157283319,165246.0
62882.34166180073,165262.0
62882.351750768285,165259.0
62882.36183973583,165239.0
62882.371928703375,165281.0
62882.38201767093,165270.0
62882.39210663847,165245.0
62882.40219560602,165311.0
62882.41228457357,165270.0
62882.422373541114,165279.0
62882.43246250866,165287.0
62882.44255147621,165303.0
62882.45264044376,165280.0
62882.4627294113,165277.0
62882.472818378854,165319.0
62882.4829073464,165315.0
62882.492996313944,165323.0
62882.503085281496,165294.0
62882.51317424904,165347.0
62882.523263216586,165352.0
62882.53335218413,165355.0
62882.54344115168,165337.0
62882.55353011923,165346.0
62882.56361908677,165357.0
62882.573708054326,165377.0
62882.58379702187,165364.0
62882.593885989416,165391.0
62882.60397495697,165383.0
62882.61406392451,165362.0
62882.62415289206,165366.0
62882.63424185961,165377.0
62882.644330827155,165365.0
62882.6544197947,165286.0
62882.66450876225,165279.0
62882.6745977298,165248.0
62882.68468669734,165201.0
62882.694775664895,165169.0
62882.70486463244,165165.0
62882.714953599985,165117.0
62882.72504256753,165119.0
62882.73513153508,165057.0
62882.74522050263,165101.0
62882.75530947017,165088.0
62882.765398437725,165074.0
62882.77548740527,165098.0
62882.785576372815,165083.0
62882.79566534037,165077.0
62882.80575430791,165059.0
62882.81584327546,165119.0
62882.82593224301,165096.0
62882.836021210554,165112.0
62882.8461101781,165115.0
62882.85619914565,165073.0
62882.8662881132,165146.0
62882.87637708074,165144.0
62882.88646604829,165116.0
62882.89655501584,165153.0
62882.906643983384,165090.0
62882.91673295093,165141.0
62882.92682191848,165086.0
62882.93691088603,165101.0
62882.94699985357,165108.0
62882.957088821124,165116.0
62882.96717778867,165110.0
62882.977266756214,165113.0
62882.987355723766,165101.0
62882.99744469131,165067.0
62883.007533658856,165086.0
62883.01762262641,165088.0
62883.02771159395,165096.0
62883.0378005615,165088.0
62883.04788952905,165113.0
62883.057978496596,165101.0
62883.06806746414,165124.0
62883.078156431686,165160.0
62883.08824539924,165118.0
62883.09833436678,165152.0
62883.10842333433,165154.0
62883.11851230188,165189.0
62883.128601269425,165174.0
62883.13869023697,165195.0
62883.14877920452,165192.0
62883.15886817207,165191.0
62883.16895713961,165219.0
62883.179046107165,165237.0
62883.18913507471,165244.0
62883.199224042255,165242.0
62883.20931300981,165245.0
62883.21940197735,165230.0
62883.2294909449,165274.0
62883.23957991245,165269.0
62883.249668879995,165271.0
62883.25975784754,165299.0
62883.269846815085,165247.0
62883.27993578264,165261.0
62883.29002475018,165289.0
62883.30011371773,165249.0
62883.31020268528,165328.0
62883.320291652824,165281.0
62883.33038062037,165298.0
62883.34046958792,165298.0
62883.35055855547,165329.0
62883.36064752301,165302.0
62883.370736490564,165339.0
62883.38082545811,165330.0
62883.390914425654,165346.0
62883.401003393206,165390.0
62883.41109236075,165364.0
62883.4211813283,165346.0
62883.43127029584,165377.0
62883.441359263394,165317.0
62883.45144823094,165309.0
62883.461537198484,165288.0
62883.471626166036,165245.0
62883.48171513358,165179.0
62883.491804101126,165120.0
62883.50189306868,165124.0
62883.51198203622,165044.0
62883.52207100377,165057.0
62883.53215997132,165034.0
62883.542248938866,164999.0
62883.55233790641,164998.0
62883.56242687396,165006.0
62883.57251584151,164978.0
62883.58260480905,164965.0
62883.592693776605,164989.0
62883.60278274415,164971.0
62883.612871711695,164989.0
62883.62296067924,164960.0
62883.63304964679,164956.0
62883.64313861434,164969.0
62883.65322758188,164951.0
62883.663316549435,164976.0
62883.67340551698,164961.0
62883.683494484525,165013.0
62883.69358345208,164971.0
62883.70367241962,164984.0
62883.71376138717,164959.0
62883.72385035472,164975.0
62883.733939322265,164939.0
62883.74402828981,164944.0
62883.75411725736,164966.0
62883.76420622491,164922.0
62883.77429519245,164964.0
62883.78438416,164939.0
62883.79447312755,164914.0
62883.804562095094,164889.0
62883.81465106264,164939.0
62883.82474003019,164944.0
62883.83482899774,164931.0
62883.84491796528,164945.0
62883.855006932834,164932.0
62883.86509590038,164967.0
62883.875184867924,164937.0
62883.885273835476,164934.0
62883.89536280302,164952.0
62883.905451770566,164984.0
62883.91554073812,164971.0
62883.92562970566,164975.0
62883.93571867321,165011.0
62883.94580764076,165025.0
62883.955896608306,165027.0
62883.96598557585,165055.0
62883.976074543396,165021.0
62883.98616351095,165057.0
62883.99625247849,165043.0
62884.00634144604,165090.0
62884.01643041359,165039.0
62884.026519381136,165075.0
62884.03660834868,165097.0
62884.04669731623,165084.0
62884.05678628378,165077.0
62884.06687525132,165103.0
62884.076964218875,165122.0
62884.08705318642,165120.0
62884.097142153965,165138.0
62884.10723112152,165126.0
62884.11732008906,165116.0
62884.12740905661,165131.0
62884.13749802416,165130.0
62884.147586991705,165152.0
62884.15767595925,165139.0
62884.167764926795,165125.0
62884.17785389435,165137.0
62884.18794286189,165189.0
62884.19803182944,165175.0
62884.20812079699,165161.0
62884.218209764535,165205.0
62884.22829873208,165205.0
62884.23838769963,165214.0
62884.24847666718,165176.0
62884.25856563472,165204.0
62884.268654602274,165141.0
62884.27874356982,165116.0
62884.288832537364,165076.0
62884.29892150492,164994.0
62884.30901047246,164961.0
62884.31909944001,164960.0
62884.32918840755,164959.0
62884.339277375104,164890.0
62884.34936634265,164892.0
62884.359455310194,164861.0
62884.369544277746,164836.0
62884.37963324529,164836.0
62884.389722212836,164815.0
62884.39981118039,164843.0
62884.40990014793,164833.0
62884.41998911548,164868.0
62884.43007808303,164807.0
62884.440167050576,164848.0
62884.45025601812,164826.0
62884.46034498567,164831.0
62884.47043395322,164870.0
62884.48052292076,164859.0
62884.490611888315,164851.0
62884.50070085586,164853.0
62884.510789823406,164870.0
62884.52087879095,164861.0
62884.5309677585,164856.0
62884.54105672605,164852.0
62884.55114569359,164824.0
62884.561234661145,164816.0
62884.57132362869,164821.0
62884.581412596235,164825.0
62884.59150156379,164821.0
62884.60159053133,164826.0
62884.61167949888,164848.0
62884.62176846643,164810.0
62884.631857433975,164833.0
62884.64194640152,164841.0
62884.65203536907,164847.0
62884.66212433662,164808.0
62884.67221330416,164834.0
62884.682302271714,164853.0
62884.69239123926,164848.0
62884.702480206804,164903.0
62884.71256917435,164881.0
62884.7226581419,164871.0
62884.73274710945,164892.0
62884.74283607699,164930.0
62884.752925044544,164895.0
62884.76301401209,164965.0
62884.773102979634,164955.0
62884.78319194719,164950.0
62884.79328091473,164984.0
62884.80336988228,164947.0
62884.81345884983,164993.0
62884.823547817374,164966.0
62884.83363678492,165004.0
62884.84372575247,164967.0
62884.853814720016,165004.0
62884.86390368756,165009.0
62884.873992655106,165009.0
62884.88408162266,164982.0
62884.8941705902,165033.0
62884.90425955775,165017.0
62884.9143485253,165037.0
62884.924437492846,165081.0
62884.93452646039,165059.0
62884.94461542794,165038.0
62884.95470439549,165060.0
62884.96479336303,165085.0
62884.974882330585,165078.0
62884.98497129813,165096.0
62884.995060265675,165085.0
62885.00514923323,165095.0
62885.01523820077,165132.0
62885.02532716832,165118.0
62885.03541613587,165110.0
62885.045505103415,165189.0
62885.05559407096,165163.0
62885.065683038505,165151.0
62885.07577200606,165145.0
62885.0858609736,165185.0
62885.09594994115,165173.0
62885.1060389087,165105.0
62885.116127876245,165093.0
62885.12621684379,165061.0
62885.13630581134,165020.0
62885.14639477889,164969.0
62885.15648374643,164968.0
62885.166572713984,164897.0
62885.17666168153,164889.0
62885.186750649074,164878.0
62885.19683961663,164835.0
62885.20692858417,164857.0
62885.21701755172,164840.0
62885.22710651927,164824.0
62885.237195486814,164812.0
62885.24728445436,164855.0
62885.257373421904,164841.0
62885.267462389456,164836.0
62885.277551357,164850.0
62885.28764032455,164825.0
62885.2977292921,164850.0
62885.307818259644,164854.0
62885.31790722719,164841.0
62885.32799619474,164854.0
62885.338085162286,164838.0
62885.34817412983,164880.0
62885.35826309738,164878.0
62885.36835206493,164882.0
62885.37844103247,164888.0
62885.388530000026,164869.0
62885.39861896757,164849.0
62885.408707935116,164853.0
62885.41879690266,164836.0
62885.42888587021,164866.0
62885.43897483776,164825.0
62885.4490638053,164839.0
62885.459152772855,164825.0
62885.4692417404,164855.0
62885.479330707945,164877.0
62885.4894196755,164877.0
62885.49950864304,164887.0
62885.50959761059,164886.0
62885.51968657814,164864.0
62885.529775545685,164874.0
62885.53986451323,164940.0
62885.54995348078,164917.0
62885.56004244833,164934.0
62885.57013141587,164981.0
62885.580220383425,164935.0
62885.59030935097,164985.0
62885.600398318515,165009.0
62885.61048728606,164972.0
62885.62057625361,165002.0
62885.63066522116,165018.0
62885.6407541887,165023.0
62885.650843156254,165006.0
62885.6609321238,165040.0
62885.671021091344,165041.0
62885.6811100589,165061.0
62885.69119902644,165082.0
62885.70128799399,165086.0
62885.71137696154,165092.0
62885.721465929084,165094.0
62885.73155489663,165083.0
62885.74164386418,165121.0
62885.751732831726,165101.0
62885.76182179927,165087.0
62885.77191076682,165095.0
62885.78199973437,165079.0
62885.79208870191,165113.0
62885.80217766946,165119.0
62885.81226663701,165171.0
62885.822355604556,165170.0
62885.8324445721,165172.0
62885.84253353965,165154.0
62885.8526225072,165203.0
62885.86271147474,165145.0
62885.872800442296,165154.0
62885.88288940984,165197.0
62885.892978377386,165213.0
62885.90306734494,165177.0
62885.91315631248,165208.0
62885.92324528003,165248.0
62885.93333424758,165233.0
62885.943423215125,165214.0
62885.95351218267,165219.0
62885.963601150215,165190.0
62885.97369011777,165130.0
62885.98377908531,165115.0
62885.99386805286,165094.0
62886.00395702041,165043.0
62886.014045987955,165028.0
62886.0241349555,164952.0
62886.03422392305,164904.0
62886.0443128906,164937.0
62886.05440185814,164953.0
62886.064490825695,164916.0
62886.07457979324,164899.0
62886.084668760785,164920.0
62886.09475772834,164924.0
62886.10484669588,164917.0
62886.11493566343,164884.0
62886.12502463098,164932.0
62886.135113598524,164909.0
62886.14520256607,164954.0
62886.155291533614,164948.0
62886.16538050117,164933.0
62886.17546946871,164949.0
62886.18555843626,164967.0
62886.19564740381,164978.0
62886.205736371354,164964.0
62886.2158253389,164962.0
62886.22591430645,164955.0
62886.236003273996,164932.0
62886.24609224154,164957.0
62886.25618120909,164941.0
62886.26627017664,164906.0
62886.27635914418,164938.0
62886.286448111736,164919.0
62886.29653707928,164913.0
62886.306626046826,164876.0
62886.31671501438,164912.0
62886.32680398192,164928.0
62886.33689294947,164918.0
62886.34698191701,164942.0
62886.357070884565,164955.0
62886.36715985211,164942.0
62886.377248819656,164976.0
62886.38733778721,164971.0
62886.39742675475,164969.0
62886.4075157223,164986.0
62886.41760468985,164986.0
62886.427693657395,165003.0
62886.43778262494,165005.0
62886.44787159249,164996.0
62886.45796056004,165025.0
62886.46804952758,165066.0
62886.478138495135,165009.0
62886.48822746268,165032.0
62886.498316430225,165069.0
62886.50840539777,165093.0
62886.51849436532,165077.0
62886.52858333287,165107.0
62886.53867230041,165098.0
62886.548761267964,165084.0
62886.55885023551,165120.0
62886.568939203054,165087.0
62886.57902817061,165100.0
62886.58911713815,165087.0
62886.5992061057,165145.0
62886.60929507325,165140.0
62886.619384040794,165127.0
62886.62947300834,165165.0
62886.63956197589,165134.0
62886.64965094344,165158.0
62886.65973991098,165157.0
62886.669828878534,165168.0
62886.67991784608,165204.0
62886.690006813624,165214.0
62886.70009578117,165157.0
62886.71018474872,165214.0
62886.720273716266,165231.0
62886.73036268381,165230.0
62886.74045165136,165251.0
62886.75054061891,165223.0
62886.76062958645,165276.0
62886.770718554006,165236.0
62886.78080752155,165207.0
62886.790896489096,165178.0
62886.80098545665,165122.0
62886.81107442419,165080.0
62886.82116339174,165072.0
62886.83125235929,165055.0
62886.841341326835,165031.0
62886.85143029438,164995.0
62886.861519261925,164966.0
62886.87160822948,164924.0
62886.88169719702,164905.0
62886.89178616457,164905.0
62886.90187513212,164926.0
62886.911964099665,164933.0
62886.92205306721,164942.0
62886.93214203476,164899.0
62886.94223100231,164927.0
62886.95231996985,164945.0
62886.962408937405,164922.0
62886.97249790495,164939.0
62886.982586872495,164951.0
62886.99267584005,164963.0
62887.00276480759,164970.0
62887.01285377514,164984.0
62887.02294274269,164967.0
62887.033031710234,164999.0
62887.04312067778,164977.0
62887.053209645324,164970.0
62887.06329861288,164985.0
62887.07338758042,164960.0
62887.08347654797,164973.0
62887.09356551552,164944.0
62887.103654483064,164988.0
62887.11374345061,164942.0
62887.12383241816,164904.0
62887.133921385706,164953.0
62887.14401035325,164927.0
62887.154099320804,164948.0
62887.16418828835,164933.0
62887.174277255894,164927.0
62887.184366223446,164928.0
62887.19445519099,164977.0
62887.204544158536,164997.0
62887.21463312609,164961.0
62887.22472209363,164978.0
62887.23481106118,165043.0
62887.24490002872,165060.0
62887.254988996276,164993.0
62887.26507796382,165060.0
62887.275166931366,165056.0
62887.28525589892,165051.0
62887.29534486646,165084.0
62887.30543383401,165062.0
62887.31552280156,165090.0
62887.325611769105,165086.0
62887.33570073665,165108.0
62887.3457897042,165085.0
62887.35587867175,165133.0
62887.36596763929,165105.0
62887.376056606845,165135.0
62887.38614557439,165133.0
62887.396234541935,165152.0
62887.40632350948,165158.0
62887.41641247703,165146.0
62887.42650144458,165184.0
62887.43659041212,165176.0
62887.446679379675,165198.0
62887.45676834722,165202.0
62887.466857314765,165167.0
62887.47694628232,165190.0
62887.48703524986,165219.0
62887.49712421741,165182.0
62887.50721318496,165217.0
62887.517302152504,165230.0
62887.52739112005,165244.0
62887.5374800876,165236.0
62887.54756905515,165283.0
62887.55765802269,165244.0
62887.567746990244,165232.0
62887.57783595779,165194.0
62887.587924925334,165171.0
62887.59801389288,165116.0
62887.60810286043,165083.0
62887.618191827976,165067.0
62887.62828079552,165003.0
62887.63836976307,164984.0
62887.64845873062,164960.0
62887.65854769816,164927.0
62887.668636665716,164928.0
62887.67872563326,164924.0
62887.688814600806,164917.0
62887.69890356836,164868.0
62887.7089925359,164934.0
62887.71908150345,164884.0
62887.729170471,164909.0
62887.739259438546,164908.0
62887.74934840609,164875.0
62887.75943737364,164881.0
62887.76952634119,164919.0
62887.77961530873,164938.0
62887.78970427628,164930.0
62887.79979324383,164945.0
62887.809882211375,164929.0
62887.81997117892,164913.0
62887.83006014647,164928.0
62887.84014911402,164935.0
62887.85023808156,164940.0
62887.860327049115,164930.0
62887.87041601666,164956.0
62887.880504984205,164899.0
62887.89059395176,164916.0
62887.9006829193,164944.0
62887.91077188685,164889.0
62887.9208608544,164903.0
62887.930949821945,164918.0
62887.94103878949,164916.0
62887.951127757035,164896.0
62887.96121672459,164897.0
62887.97130569213,164923.0
62887.98139465968,164928.0
62887.99148362723,164960.0
62888.001572594774,164964.0
62888.01166156232,164969.0
62888.02175052987,164963.0
62888.03183949742,164997.0
62888.04192846496,164978.0
62888.052017432514,165011.0
62888.06210640006,165050.0
62888.072195367604,165031.0
62888.082284335156,165044.0
62888.0923733027,165046.0
62888.102462270246,165051.0
62888.1125512378,165085.0
62888.12264020534,165109.0
62888.13272917289,165091.0
62888.14281814043,165081.0
62888.152907107986,165114.0
62888.16299607553,165130.0
62888.173085043076,165106.0
62888.18317401063,165107.0
62888.19326297817,165112.0
62888.20335194572,165125.0
62888.21344091327,165135.0
62888.223529880815,165148.0
62888.23361884836,165152.0
62888.24370781591,165134.0
62888.25379678346,165191.0
62888.263885751,165170.0
62888.273974718555,165147.0
62888.2840636861,165190.0
62888.294152653645,165189.0
62888.3042416212,165167.0
62888.31433058874,165189.0
62888.32441955629,165235.0
62888.33450852383,165229.0
62888.344597491385,165249.0
62888.35468645893,165265.0
62888.364775426475,165244.0
62888.37486439403,165252.0
62888.38495336157,165237.0
62888.39504232912,165192.0
62888.40513129667,165169.0
62888.415220264214,165163.0
62888.42530923176,165092.0
62888.43539819931,165047.0
62888.44548716686,165031.0
62888.4555761344,164953.0
62888.465665101954,164959.0
62888.4757540695,164921.0
62888.485843037044,164908.0
62888.49593200459,164946.0
62888.50602097214,164905.0
62888.51610993969,164890.0
62888.52619890723,164858.0
62888.536287874784,164873.0
62888.54637684233,164890.0
62888.556465809874,164877.0
62888.566554777426,164917.0
62888.57664374497,164851.0
62888.586732712516,164885.0
62888.59682168007,164862.0
62888.60691064761,164904.0
62888.61699961516,164863.0
62888.62708858271,164884.0
62888.637177550256,164905.0
62888.6472665178,164915.0
62888.65735548535,164883.0
62888.6674444529,164894.0
62888.67753342044,164894.0
62888.68762238799,164869.0
62888.69771135554,164860.0
62888.707800323085,164894.0
62888.71788929063,164849.0
62888.72797825818,164863.0
62888.73806722573,164894.0
62888.74815619327,164829.0
62888.758245160825,164871.0
62888.76833412837,164887.0
62888.778423095915,164841.0
62888.78851206347,164873.0
62888.79860103101,164883.0
62888.80868999856,164889.0
62888.81877896611,164921.0
62888.828867933655,164944.0
62888.8389569012,164922.0
62888.84904586875,164888.0
62888.8591348363,164945.0
62888.86922380384,164927.0
62888.87931277139,164961.0
62888.88940173894,164968.0
62888.899490706484,165000.0
62888.90957967403,164976.0
62888.91966864158,165002.0
62888.92975760913,165034.0
62888.93984657667,165025.0
62888.949935544224,165042.0
62888.96002451177,165035.0
62888.970113479314,164978.0
62888.980202446866,165013.0
62888.99029141441,165037.0
62889.000380381956,165059.0
62889.01046934951,165078.0
62889.020558317054,165099.0
62889.0306472846,165073.0
62889.040736252144,165101.0
62889.050825219696,165074.0
62889.06091418724,165126.0
62889.071003154786,165140.0
62889.08109212234,165126.0
62889.09118108988,165106.0
62889.10127005743,165103.0
62889.11135902498,165165.0
62889.121447992526,165153.0
62889.13153696007,165186.0
62889.14162592762,165155.0
62889.15171489517,165161.0
62889.16180386271,165196.0
62889.171892830265,165161.0
62889.18198179781,165175.0
62889.192070765355,165206.0
62889.20215973291,165244.0
62889.21224870045,165262.0
62889.222337668,165248.0
62889.23242663554,165210.0
62889.242515603095,165246.0
62889.25260457064,165194.0
62889.262693538185,165136.0
62889.27278250574,165113.0
62889.28287147328,165083.0
62889.29296044083,165030.0
62889.30304940838,165006.0
62889.313138375925,164933.0
62889.32322734347,164939.0
62889.33331631102,164926.0
62889.34340527857,164939.0
62889.35349424611,164942.0
62889.363583213664,164928.0
62889.37367218121,164903.0
62889.383761148754,164891.0
62889.39385011631,164925.0
62889.40393908385,164905.0
62889.4140280514,164911.0
62889.42411701894,164888.0
62889.434205986494,164899.0
62889.44429495404,164906.0
62889.454383921584,164920.0
62889.464472889136,164914.0
62889.47456185668,164897.0
62889.484650824226,164880.0
62889.49473979178,164928.0
62889.50482875932,164927.0
62889.51491772687,164945.0
62889.52500669442,164889.0
62889.535095661966,164928.0
62889.54518462951,164950.0
62889.55527359706,164926.0
62889.56536256461,164917.0
62889.57545153215,164915.0
62889.5855404997,164922.0
62889.59562946725,164898.0
62889.605718434796,164924.0
62889.61580740234,164925.0
62889.62589636989,164922.0
62889.63598533744,164934.0
62889.64607430498,164923.0
62889.656163272535,164933.0
62889.66625224008,164928.0
62889.676341207625,164963.0
62889.68643017518,164947.0
62889.69651914272,164985.0
62889.70660811027,164997.0
62889.71669707782,165011.0
62889.726786045365,165021.0
62889.73687501291,165031.0
62889.74696398046,165018.0
62889.75705294801,165023.0
62889.76714191555,165081.0
62889.7772308831,165061.0
62889.78731985065,165048.0
62889.797408818195,165098.0
62889.80749778574,165068.0
62889.81758675329,165124.0
62889.82767572084,165110.0
62889.83776468838,165128.0
62889.847853655934,165096.0
62889.85794262348,165140.0
62889.868031591024,165114.0
62889.87812055858,165112.0
62889.88820952612,165102.0
62889.89829849367,165156.0
62889.90838746122,165159.0
62889.918476428764,165192.0
62889.92856539631,165151.0
62889.938654363854,165181.0
62889.948743331406,165204.0
62889.95883229895,165223.0
62889.968921266496,165201.0
62889.97901023405,165220.0
62889.98909920159,165233.0
62889.99918816914,165240.0
62890.00927713669,165268.0
62890.019366104236,165254.0
62890.02945507178,165285.0
62890.03954403933,165302.0
62890.04963300688,165318.0
62890.05972197442,165291.0
62890.069810941975,165333.0
62890.07989990952,165351.0
62890.089988877065,165371.0
62890.10007784462,165348.0
62890.11016681216,165330.0
62890.12025577971,165318.0
62890.13034474725,165258.0
62890.140433714805,165265.0
62890.15052268235,165211.0
62890.160611649895,165156.0
62890.17070061745,165139.0
62890.18078958499,165026.0
62890.19087855254,165068.0
62890.20096752009,165030.0
62890.211056487635,165011.0
62890.22114545518,165013.0
62890.23123442273,165020.0
62890.24132339028,165013.0
62890.25141235782,165009.0
62890.261501325374,164987.0
62890.27159029292,165040.0
62890.281679260464,165062.0
62890.29176822802,165027.0
62890.30185719556,165068.0
62890.31194616311,165025.0
62890.32203513065,165029.0
62890.332124098204,165030.0
62890.34221306575,165091.0
62890.352302033294,165077.0
62890.36239100085,165069.0
62890.37247996839,165084.0
62890.38256893594,165077.0
62890.39265790349,165082.0
62890.402746871034,165084.0
62890.41283583858,165031.0
62890.42292480613,165058.0
62890.433013773676,165064.0
62890.44310274122,165019.0
62890.45319170877,165040.0
62890.46328067632,165050.0
62890.47336964386,165029.0
62890.48345861141,165045.0
62890.49354757896,165093.0
62890.503636546506,165062.0
62890.51372551405,165070.0
62890.5238144816,165079.0
62890.53390344915,165100.0
62890.54399241669,165065.0
62890.554081384245,165133.0
62890.56417035179,165103.0
62890.574259319335,165074.0
62890.58434828689,165132.0
62890.59443725443,165152.0
62890.60452622198,165166.0
62890.61461518953,165147.0
62890.624704157075,165176.0
62890.63479312462,165205.0
62890.64488209217,165198.0
62890.65497105972,165235.0
62890.66506002726,165226.0
62890.67514899481,165237.0
62890.68523796236,165228.0
62890.695326929905,165222.0
62890.70541589745,165220.0
62890.715504865,165250.0
62890.72559383255,165254.0
62890.73568280009,165250.0
62890.745771767644,165302.0
62890.75586073519,165250.0
62890.765949702734,165281.0
62890.77603867029,165254.0
62890.78612763783,165327.0
62890.79621660538,165283.0
62890.80630557293,165312.0
62890.816394540474,165319.0
62890.82648350802,165302.0
62890.83657247557,165358.0
62890.846661443116,165350.0
62890.85675041066,165344.0
62890.866839378206,165338.0
62890.87692834576,165376.0
62890.887017313304,165387.0
62890.89710628085,165363.0
62890.9071952484,165381.0
62890.917284215946,165385.0
62890.92737318349,165422.0
62890.93746215104,165419.0
62890.94755111859,165401.0
62890.95764008613,165383.0
62890.967729053686,165370.0
62890.97781802123,165327.0
62890.987906988776,165309.0
62890.99799595633,165286.0
62891.00808492387,165238.0
62891.01817389142,165185.0
62891.02826285896,165201.0
62891.038351826515,165175.0
62891.04844079406,165136.0
62891.058529761605,165144.0
62891.06861872916,165149.0
62891.0787076967,165118.0
62891.08879666425,165127.0
62891.0988856318,165133.0
62891.108974599345,165121.0
62891.11906356689,165095.0
62891.12915253444,165143.0
62891.13924150199,165132.0
62891.14933046953,165160.0
62891.159419437085,165165.0
62891.16950840463,165191.0
62891.179597372175,165180.0
62891.18968633973,165177.0
62891.19977530727,165193.0
62891.20986427482,165195.0
62891.21995324236,165200.0
62891.230042209914,165237.0
62891.24013117746,165178.0
62891.250220145004,165209.0
62891.26030911256,165167.0
62891.2703980801,165209.0
62891.28048704765,165136.0
62891.2905760152,165187.0
62891.300664982744,165147.0
62891.31075395029,165142.0
62891.32084291784,165177.0
62891.330931885386,165128.0
62891.34102085293,165153.0
62891.35110982048,165167.0
62891.36119878803,165176.0
62891.37128775557,165160.0
62891.381376723126,165201.0
62891.39146569067,165189.0
62891.401554658216,165165.0
62891.41164362576,165187.0
62891.42173259331,165226.0
62891.43182156086,165253.0
62891.4419105284,165252.0
62891.451999495956,165271.0
62891.4620884635,165269.0
62891.472177431046,165244.0
62891.4822663986,165254.0
62891.49235536614,165275.0
62891.50244433369,165309.0
62891.51253330124,165324.0
62891.522622268785,165318.0
62891.53271123633,165334.0
62891.54280020388,165331.0
62891.55288917143,165334.0
62891.56297813897,165326.0
62891.57306710652,165349.0
62891.58315607407,165342.0
62891.593245041615,165356.0
62891.60333400916,165358.0
62891.61342297671,165385.0
62891.62351194426,165369.0
62891.6336009118,165390.0
62891.643689879354,165421.0
62891.6537788469,165356.0
62891.663867814445,165401.0
62891.673956782,165419.0
62891.68404574954,165424.0
62891.69413471709,165430.0
62891.70422368464,165446.0
62891.714312652184,165460.0
62891.72440161973,165453.0
62891.73449058728,165477.0
62891.74457955483,165439.0
62891.75466852237,165448.0
62891.76475748992,165412.0
62891.77484645747,165404.0
62891.784935425014,165343.0
62891.79502439256,165305.0
62891.80511336011,165287.0
62891.815202327656,165236.0
62891.8252912952,165225.0
62891.83538026275,165192.0
62891.8454692303,165168.0
62891.85555819784,165163.0
62891.865647165396,165186.0
62891.87573613294,165159.0
62891.885825100486,165140.0
62891.89591406804,165181.0
62891.90600303558,165172.0
62891.91609200313,165127.0
62891.92618097068,165128.0
62891.936269938225,165201.0
62891.94635890577,165179.0
62891.956447873315,165194.0
62891.96653684087,165194.0
62891.97662580841,165184.0
62891.98671477596,165180.0
62891.99680374351,165223.0
62892.006892711055,165252.0
62892.0169816786,165210.0
62892.02707064615,165241.0
62892.0371596137,165224.0
62892.04724858124,165172.0
62892.057337548795,165200.0
62892.06742651634,165180.0
62892.077515483885,165204.0
62892.08760445144,165211.0
62892.09769341898,165215.0
62892.10778238653,165154.0
62892.11787135407,165203.0
62892.127960321624,165202.0
62892.13804928917,165179.0
62892.148138256714,165215.0
62892.15822722427,165205.0
62892.16831619181,165188.0
62892.17840515936,165230.0
62892.18849412691,165237.0
62892.198583094454,165207.0
62892.208672062,165240.0
62892.21876102955,165272.0
62892.2288499971,165261.0
62892.23893896464,165281.0
62892.249027932194,165292.0
62892.25911689974,165282.0
62892.269205867284,165304.0
62892.279294834836,165339.0
62892.28938380238,165327.0
62892.299472769926,165353.0
62892.30956173747,165342.0
62892.31965070502,165367.0
62892.32973967257,165360.0
62892.33982864011,165329.0
62892.349917607666,165364.0
62892.36000657521,165377.0
62892.370095542756,165388.0
62892.38018451031,165406.0
62892.39027347785,165400.0
62892.4003624454,165393.0
62892.41045141295,165403.0
62892.420540380495,165436.0
62892.43062934804,165387.0
62892.44071831559,165459.0
62892.45080728314,165422.0
62892.46089625068,165420.0
62892.470985218235,165433.0
62892.48107418578,165468.0
62892.491163153325,165468.0
62892.50125212087,165497.0
62892.51134108842,165506.0
62892.52143005597,165469.0
62892.53151902351,165476.0
62892.541607991065,165450.0
62892.55169695861,165437.0
62892.561785926155,165374.0
62892.57187489371,165377.0
62892.58196386125,165339.0
62892.5920528288,165280.0
62892.60214179635,165270.0
62892.612230763894,165235.0
62892.62231973144,165209.0
62892.63240869899,165173.0
62892.64249766654,165199.0
62892.65258663408,165160.0
62892.66267560163,165174.0
62892.67276456918,165136.0
62892.682853536724,165126.0
62892.69294250427,165161.0
62892.70303147182,165110.0
62892.713120439366,165151.0
62892.72320940691,165147.0
62892.73329837446,165146.0
62892.74338734201,165147.0
62892.753476309554,165139.0
62892.763565277106,165170.0
62892.77365424465,165132.0
62892.783743212196,165170.0
62892.79383217975,165163.0
62892.80392114729,165191.0
62892.81401011484,165151.0
62892.82409908239,165158.0
62892.834188049936,165142.0
62892.84427701748,165135.0
62892.854365985026,165135.0
62892.86445495258,165141.0
62892.87454392012,165113.0
62892.88463288767,165139.0
62892.89472185522,165137.0
62892.904810822765,165137.0
62892.91489979031,165145.0
62892.92498875786,165136.0
62892.93507772541,165151.0
62892.94516669295,165164.0
62892.955255660505,165126.0
62892.96534462805,165154.0
62892.975433595595,165136.0
62892.98552256315,165149.0
62892.99561153069,165156.0
62893.00570049824,165176.0
62893.01578946579,165217.0
62893.025878433335,165231.0
62893.03596740088,165239.0
62893.046056368425,165229.0
62893.05614533598,165267.0
62893.06623430352,165265.0
62893.07632327107,165266.0
62893.08641223862,165302.0
62893.096501206164,165250.0
62893.10659017371,165296.0
62893.11667914126,165295.0
62893.12676810881,165325.0
62893.13685707635,165279.0
62893.146946043904,165316.0
62893.15703501145,165339.0
62893.167123978994,165361.0
62893.177212946546,165327.0
62893.18730191409,165339.0
62893.197390881636,165368.0
62893.20747984918,165320.0
62893.21756881673,165370.0
62893.22765778428,165352.0
62893.23774675182,165359.0
62893.247835719376,165366.0
62893.25792468692,165344.0
62893.268013654466,165380.0
62893.27810262202,165380.0
62893.28819158956,165413.0
62893.29828055711,165428.0
62893.30836952466,165428.0
62893.318458492206,165399.0
62893.32854745975,165405.0
62893.3386364273,165401.0
62893.34872539485,165415.0
62893.35881436239,165374.0
62893.368903329945,165321.0
62893.37899229749,165311.0
62893.389081265035,165202.0
62893.39917023258,165215.0
62893.40925920013,165170.0
62893.41934816768,165191.0
62893.42943713522,165148.0
62893.439526102775,165137.0
62893.44961507032,165123.0
62893.459704037865,165096.0
62893.46979300542,165072.0
62893.47988197296,165105.0
62893.48997094051,165094.0
62893.50005990806,165067.0
62893.510148875605,165080.0
62893.52023784315,165112.0
62893.5303268107,165122.0
62893.54041577825,165123.0
62893.55050474579,165068.0
62893.56059371334,165116.0
62893.57068268089,165110.0
62893.580771648434,165109.0
62893.59086061598,165117.0
62893.60094958353,165117.0
62893.61103855108,165095.0
62893.62112751862,165143.0
62893.631216486174,165130.0
62893.64130545372,165117.0
62893.651394421264,165075.0
62893.661483388816,165125.0
62893.67157235636,165087.0
62893.681661323906,165093.0
62893.69175029146,165074.0
62893.701839259,165081.0
62893.71192822655,165083.0
62893.7220171941,165094.0
62893.732106161646,165105.0
62893.74219512919,165079.0
62893.752284096736,165118.0
62893.76237306429,165118.0
62893.77246203183,165097.0
62893.78255099938,165111.0
62893.79263996693,165177.0
62893.802728934475,165149.0
62893.81281790202,165156.0
62893.82290686957,165207.0
62893.83299583712,165155.0
62893.84308480466,165205.0
62893.853173772215,165155.0
62893.86326273976,165239.0
62893.873351707305,165215.0
62893.88344067486,165243.0
62893.8935296424,165254.0
62893.90361860995,165241.0
62893.9137075775,165219.0
62893.923796545045,165275.0
62893.93388551259,165275.0
62893.943974480135,165277.0
62893.95406344769,165303.0
62893.96415241523,165269.0
62893.97424138278,165309.0
62893.98433035033,165317.0
62893.994419317874,165279.0
62894.00450828542,165339.0
62894.01459725297,165333.0
62894.02468622052,165335.0
62894.03477518806,165340.0
62894.044864155614,165365.0
62894.05495312316,165333.0
62894.065042090704,165331.0
62894.07513105826,165389.0
62894.0852200258,165365.0
62894.09530899335,165390.0
62894.10539796089,165420.0
62894.115486928444,165441.0
62894.12557589599,165426.0
62894.135664863534,165446.0
62894.145753831086,165475.0
62894.15584279863,165435.0
62894.165931766176,165458.0
62894.17602073373,165419.0
62894.18610970127,165348.0
62894.19619866882,165358.0
62894.20628763637,165288.0
62894.216376603916,165274.0
62894.22646557146,165232.0
62894.23655453901,165226.0
62894.24664350656,165185.0
62894.2567324741,165180.0
62894.266821441655,165146.0
62894.2769104092,165165.0
62894.286999376745,165117.0
62894.29708834429,165136.0
62894.30717731184,165167.0
62894.31726627939,165097.0
62894.32735524693,165165.0
62894.337444214485,165153.0
62894.34753318203,165124.0
62894.357622149575,165133.0
62894.36771111713,165183.0
62894.37780008467,165166.0
62894.38788905222,165166.0
62894.39797801977,165200.0
62894.408066987315,165160.0
62894.41815595486,165184.0
62894.42824492241,165186.0
62894.43833388996,165169.0
62894.4484228575,165175.0
62894.458511825054,165179.0
62894.4686007926,165152.0
62894.478689760144,165135.0
62894.48877872769,165170.0
62894.49886769524,165129.0
62894.50895666279,165165.0
62894.51904563033,165177.0
62894.529134597884,165189.0
62894.53922356543,165171.0
62894.549312532974,165174.0
62894.559401500526,165154.0
62894.56949046807,165169.0
62894.579579435616,165194.0
62894.58966840317,165198.0
62894.59975737071,165179.0
62894.60984633826,165184.0
62894.61993530581,165222.0
62894.630024273356,165234.0
62894.6401132409,165223.0
62894.650202208446,165267.0
62894.660291176,165257.0
62894.67038014354,165271.0
62894.68046911109,165273.0
62894.69055807864,165273.0
62894.700647046186,165280.0
62894.71073601373,165311.0
62894.72082498128,165316.0
62894.73091394883,165287.0
62894.74100291637,165333.0
62894.751091883925,165345.0
62894.76118085147,165350.0
62894.771269819015,165325.0
62894.78135878657,165368.0
62894.79144775411,165358.0
62894.80153672166,165329.0
62894.81162568921,165383.0
62894.821714656755,165360.0
62894.8318036243,165376.0
62894.841892591845,165362.0
62894.8519815594,165386.0
62894.86207052694,165347.0
62894.87215949449,165399.0
62894.88224846204,165422.0
62894.892337429585,165394.0
62894.90242639713,165429.0
62894.91251536468,165432.0
62894.92260433223,165437.0
62894.93269329977,165442.0
62894.942782267324,165449.0
62894.95287123487,165472.0
62894.962960202414,165458.0
62894.97304916997,165504.0
62894.98313813751,165466.0
62894.99322710506,165436.0
62895.00331607261,165431.0
62895.013405040154,165441.0
62895.0234940077,165417.0
62895.033582975244,165352.0
62895.043671942796,165305.0
62895.05376091034,165265.0
62895.063849877886,165231.0
62895.07393884544,165242.0
62895.08402781298,165222.0
62895.09411678053,165198.0
62895.10420574808,165208.0
62895.114294715626,165145.0
62895.12438368317,165176.0
62895.13447265072,165149.0
62895.14456161827,165151.0
62895.15465058581,165155.0
62895.164739553366,165173.0
62895.17482852091,165153.0
62895.184917488456,165160.0
62895.195006456,165192.0
62895.20509542355,165200.0
62895.2151843911,165193.0
62895.22527335864,165228.0
62895.235362326195,165219.0
62895.24545129374,165220.0
62895.255540261285,165247.0
62895.26562922884,165233.0
62895.27571819638,165189.0
62895.28580716393,165209.0
62895.29589613148,165225.0
62895.305985099025,165186.0
62895.31607406657,165199.0
62895.32616303412,165188.0
62895.33625200167,165165.0
62895.34634096921,165198.0
62895.356429936764,165190.0
62895.36651890431,165184.0
62895.376607871855,165160.0
62895.3866968394,165187.0
62895.39678580695,165172.0
62895.4068747745,165178.0
62895.41696374204,165197.0
62895.427052709594,165230.0
62895.43714167714,165189.0
62895.447230644684,165227.0
62895.45731961224,165232.0
62895.46740857978,165232.0
62895.47749754733,165250.0
62895.48758651488,165268.0
62895.497675482424,165307.0
62895.50776444997,165282.0
62895.51785341752,165319.0
62895.527942385066,165284.0
62895.53803135261,165316.0
62895.54812032016,165318.0
62895.55820928771,165308.0
62895.56829825525,165330.0
62895.5783872228,165307.0
62895.58847619035,165349.0
62895.598565157896,165329.0
62895.60865412544,165343.0
62895.61874309299,165350.0
62895.62883206054,165353.0
62895.63892102808,165368.0
62895.649009995635,165364.0
62895.65909896318,165368.0
62895.669187930725,165374.0
62895.67927689828,165393.0
62895.68936586582,165376.0
62895.69945483337,165403.0
62895.70954380092,165393.0
62895.719632768465,165415.0
62895.72972173601,165415.0
62895.739810703555,165420.0
62895.74989967111,165444.0
62895.75998863865,165450.0
62895.7700776062,165452.0
62895.78016657375,165451.0
62895.790255541295,165417.0
62895.80034450884,165388.0
62895.81043347639,165337.0
62895.82052244394,165322.0
62895.83061141148,165257.0
62895.840700379034,165236.0
62895.85078934658,165203.0
62895.860878314124,165208.0
62895.87096728168,165198.0
62895.88105624922,165187.0
62895.89114521677,165130.0
62895.90123418432,165149.0
62895.911323151864,165176.0
62895.92141211941,165126.0
62895.931501086954,165190.0
62895.94159005451,165136.0
62895.95167902205,165128.0
62895.9617679896,165183.0
62895.97185695715,165130.0
62895.981945924694,165172.0
62895.99203489224,165176.0
62896.00212385979,165211.0
62896.012212827336,165199.0
62896.02230179488,165193.0
62896.03239076243,165216.0
62896.04247972998,165208.0
62896.05256869752,165185.0
62896.062657665076,165186.0
62896.07274663262,165173.0
62896.082835600166,165179.0
62896.09292456772,165186.0
62896.10301353526,165200.0
62896.11310250281,165185.0
62896.12319147035,165186.0
62896.133280437905,165190.0
62896.14336940545,165185.0
62896.153458372995,165159.0
62896.16354734055,165161.0
62896.17363630809,165167.0
62896.18372527564,165169.0
62896.19381424319,165201.0
62896.203903210735,165213.0
62896.21399217828,165199.0
62896.22408114583,165234.0
62896.23417011338,165230.0
62896.24425908092,165264.0
62896.254348048475,165247.0
62896.26443701602,165259.0
62896.274525983565,165274.0
62896.28461495111,165271.0
62896.29470391866,165319.0
62896.30479288621,165299.0
62896.31488185375,165315.0
62896.324970821304,165319.0
62896.33505978885,165306.0
62896.345148756394,165353.0
62896.35523772395,165340.0
62896.36532669149,165374.0
62896.37541565904,165370.0
62896.38550462659,165374.0
62896.395593594134,165369.0
62896.40568256168,165358.0
62896.41577152923,165367.0
62896.425860496776,165408.0
62896.43594946432,165399.0
62896.44603843187,165376.0
62896.45612739942,165432.0
62896.46621636696,165395.0
62896.47630533451,165407.0
62896.48639430206,165393.0
62896.496483269606,165461.0
62896.50657223715,165457.0
62896.5166612047,165466.0
62896.52675017225,165459.0
62896.53683913979,165438.0
62896.546928107346,165453.0
62896.55701707489,165466.0
62896.567106042436,165447.0
62896.57719500999,165381.0
62896.58728397753,165380.0
62896.59737294508,165303.0
62896.60746191263,165285.0
62896.617550880175,165228.0
62896.62763984772,165197.0
62896.637728815265,165200.0
62896.64781778282,165185.0
62896.65790675036,165187.0
62896.66799571791,165125.0
62896.67808468546,165137.0
62896.688173653005,165155.0
62896.69826262055,165079.0
62896.7083515881,165140.0
62896.71844055565,165128.0
62896.72852952319,165107.0
62896.738618490745,165111.0
62896.74870745829,165129.0
62896.758796425835,165111.0
62896.76888539339,165112.0
62896.77897436093,165124.0
62896.78906332848,165125.0
62896.79915229603,165162.0
62896.809241263574,165140.0
62896.81933023112,165155.0
62896.829419198664,165164.0
62896.83950816622,165155.0
62896.84959713376,165145.0
62896.85968610131,165116.0
62896.86977506886,165105.0
62896.879864036404,165109.0
62896.88995300395,165118.0
62896.9000419715,165110.0
62896.910130939046,165148.0
62896.92021990659,165078.0
62896.93030887414,165128.0
62896.94039784169,165133.0
62896.95048680923,165128.0
62896.960575776786,165159.0
62896.97066474433,165136.0
62896.980753711876,165172.0
62896.99084267943,165117.0
62897.00093164697,165155.0
62897.01102061452,165154.0
62897.02110958206,165148.0
62897.031198549616,165210.0
62897.04128751716,165185.0
62897.051376484706,165214.0
62897.06146545226,165169.0
62897.0715544198,165213.0
62897.08164338735,165249.0
62897.0917323549,165248.0
62897.101821322445,165252.0
62897.11191028999,165247.0
62897.12199925754,165274.0
62897.13208822509,165293.0
62897.14217719263,165261.0
62897.152266160185,165288.0
62897.16235512773,165295.0
62897.172444095275,165320.0
62897.18253306282,165342.0
62897.19262203037,165317.0
62897.20271099792,165306.0
62897.21279996546,165328.0
62897.222888933014,165350.0
62897.23297790056,165350.0
62897.243066868105,165349.0
62897.25315583566,165350.0
62897.2632448032,165334.0
62897.27333377075,165349.0
62897.2834227383,165379.0
62897.293511705844,165390.0
62897.30360067339,165387.0
62897.31368964094,165433.0
62897.32377860849,165413.0
62897.33386757603,165431.0
62897.343956543584,165423.0
62897.35404551113,165447.0
62897.364134478674,165388.0
62897.37422344622,165405.0
62897.38431241377,165376.0
62897.394401381316,165314.0
62897.40449034886,165310.0
62897.41457931641,165223.0
62897.42466828396,165216.0
62897.4347572515,165141.0
62897.444846219056,165156.0
62897.4549351866,165117.0
62897.465024154146,165120.0
62897.4751131217,165101.0
62897.48520208924,165122.0
62897.49529105679,165068.0
62897.50538002434,165092.0
62897.515468991885,165082.0
62897.52555795943,165077.0
62897.53564692698,165098.0
62897.54573589453,165081.0
62897.55582486207,165071.0
62897.56591382962,165076.0
62897.57600279717,165099.0
62897.586091764715,165089.0
62897.59618073226,165087.0
62897.60626969981,165125.0
62897.61635866736,165096.0
62897.6264476349,165114.0
62897.636536602455,165099.0
62897.64662557,165091.0
62897.656714537545,165083.0
62897.6668035051,165122.0
62897.67689247264,165069.0
62897.68698144019,165081.0
62897.69707040774,165072.0
62897.707159375284,165082.0
62897.71724834283,165089.0
62897.727337310374,165074.0
62897.73742627793,165090.0
62897.74751524547,165087.0
62897.75760421302,165081.0
62897.76769318057,165118.0
62897.777782148114,165090.0
62897.78787111566,165126.0
62897.79796008321,165163.0
62897.80804905076,165113.0
62897.8181380183,165123.0
62897.828226985854,165149.0
62897.8383159534,165163.0
62897.848404920944,165148.0
62897.858493888496,165194.0
62897.86858285604,165179.0
62897.878671823586,165214.0
62897.88876079114,165217.0
62897.89884975868,165217.0
62897.90893872623,165203.0
62897.91902769377,165251.0
62897.929116661326,165291.0
62897.93920562887,165262.0
62897.949294596416,165257.0
62897.95938356397,165264.0
62897.96947253151,165282.0
62897.97956149906,165302.0
62897.98965046661,165300.0
62897.999739434155,165302.0
62898.0098284017,165280.0
62898.01991736925,165307.0
62898.0300063368,165349.0
62898.04009530434,165327.0
62898.050184271895,165319.0
62898.06027323944,165367.0
62898.070362206985,165384.0
62898.08045117454,165361.0
62898.09054014208,165365.0
62898.10062910963,165395.0
62898.11071807717,165410.0
62898.120807044725,165397.0
62898.13089601227,165389.0
62898.140984979815,165409.0
62898.15107394737,165447.0
62898.16116291491,165448.0
62898.17125188246,165428.0
62898.18134085001,165480.0
62898.191429817554,165421.0
62898.2015187851,165393.0
62898.21160775265,165367.0
62898.2216967202,165317.0
62898.23178568774,165353.0
62898.241874655294,165282.0
62898.25196362284,165261.0
62898.262052590384,165179.0
62898.27214155793,165176.0
62898.28223052548,165173.0
62898.292319493026,165186.0
62898.30240846057,165135.0
62898.31249742812,165102.0
62898.32258639567,165123.0
62898.332675363214,165122.0
62898.342764330766,165123.0
62898.35285329831,165117.0
62898.362942265856,165128.0
62898.37303123341,165129.0
62898.38312020095,165150.0
62898.3932091685,165114.0
62898.40329813605,165140.0
62898.413387103596,165126.0
62898.42347607114,165155.0
62898.43356503869,165184.0
62898.44365400624,165171.0
62898.45374297378,165142.0
62898.46383194133,165173.0
62898.47392090888,165172.0
62898.484009876425,165121.0
62898.49409884397,165162.0
62898.50418781152,165201.0
62898.51427677907,165143.0
62898.52436574661,165161.0
62898.534454714165,165162.0
62898.54454368171,165125.0
62898.554632649255,165134.0
62898.56472161681,165167.0
62898.57481058435,165158.0
62898.5848995519,165145.0
62898.59498851945,165167.0
62898.605077486995,165185.0
62898.61516645454,165187.0
62898.62525542209,165208.0
62898.63534438964,165217.0
62898.64543335718,165212.0
62898.65552232473,165230.0
62898.66561129228,165267.0
62898.675700259824,165248.0
62898.68578922737,165278.0
62898.69587819492,165279.0
62898.70596716247,165301.0
62898.71605613001,165264.0
62898.726145097564,165334.0
62898.73623406511,165288.0
62898.746323032654,165328.0
62898.756412000206,165339.0
62898.76650096775,165319.0
62898.776589935296,165359.0
62898.78667890285,165337.0
62898.79676787039,165386.0
62898.80685683794,165356.0
62898.81694580548,165378.0
62898.827034773036,165383.0
62898.83712374058,165377.0
62898.847212708126,165407.0
62898.85730167568,165410.0
62898.86739064322,165428.0
62898.87747961077,165405.0
62898.88756857832,165445.0
62898.897657545866,165426.0
62898.90774651341,165411.0
62898.91783548096,165467.0
62898.92792444851,165432.0
62898.93801341605,165469.0
62898.948102383605,165481.0
62898.95819135115,165491.0
62898.968280318695,165488.0
62898.97836928625,165507.0
62898.98845825379,165507.0
62898.99854722134,165547.0
62899.00863618888,165528.0
62899.018725156435,165534.0
62899.02881412398,165553.0
62899.038903091525,165553.0
62899.04899205908,165530.0
62899.05908102662,165466.0
62899.06916999417,165472.0
62899.07925896172,165416.0
62899.089347929264,165410.0
62899.09943689681,165340.0
62899.10952586436,165329.0
62899.11961483191,165292.0
62899.12970379945,165296.0
62899.139792767004,165278.0
62899.14988173455,165238.0
62899.159970702094,165205.0
62899.17005966965,165229.0
62899.18014863719,165219.0
62899.19023760474,165240.0
62899.20032657228,165223.0
62899.210415539834,165246.0
62899.22050450738,165242.0
62899.230593474924,165256.0
62899.240682442476,165289.0
62899.25077141002,165263.0
62899.260860377566,165263.0
62899.27094934512,165307.0
62899.28103831266,165268.0
62899.29112728021,165294.0
62899.30121624776,165291.0
62899.311305215306,165301.0
62899.32139418285,165288.0
62899.3314831504,165320.0
62899.34157211795,165269.0
62899.35166108549,165283.0
62899.36175005304,165295.0
62899.37183902059,165293.0
62899.381927988135,165288.0
62899.39201695568,165263.0
62899.40210592323,165268.0
62899.41219489078,165236.0
62899.42228385832,165244.0
62899.432372825875,165268.0
62899.44246179342,165285.0
62899.452550760965,165285.0
62899.46263972852,165263.0
62899.47272869606,165280.0
62899.48281766361,165297.0
62899.49290663116,165275.0
62899.502995598705,165334.0
62899.51308456625,165309.0
62899.5231735338,165327.0
62899.53326250135,165318.0
62899.54335146889,165334.0
62899.55344043644,165365.0
62899.56352940399,165346.0
62899.573618371534,165408.0
62899.58370733908,165365.0
62899.59379630663,165393.0
62899.60388527418,165415.0
62899.61397424172,165444.0
62899.624063209274,165393.0
62899.63415217682,165392.0
62899.644241144364,165452.0
62899.654330111916,165428.0
62899.66441907946,165457.0
62899.67450804701,165393.0
62899.68459701456,165446.0
62899.694685982104,165407.0
62899.70477494965,165458.0
62899.7148639172,165465.0
62899.724952884746,165458.0
62899.73504185229,165469.0
62899.745130819836,165507.0
62899.75521978739,165452.0
62899.76530875493,165477.0
62899.77539772248,165477.0
62899.78548669003,165495.0
62899.795575657576,165529.0
62899.80566462512,165499.0
62899.81575359267,165475.0
62899.82584256022,165528.0
62899.83593152776,165522.0
62899.846020495315,165533.0
62899.85610946286,165518.0
62899.866198430405,165540.0
62899.87628739796,165513.0
62899.8863763655,165500.0
62899.89646533305,165476.0
62899.90655430059,165423.0
62899.916643268145,165437.0
62899.92673223569,165406.0
62899.936821203235,165379.0
62899.94691017079,165367.0
62899.95699913833,165380.0
62899.96708810588,165367.0
62899.97717707343,165376.0
62899.987266040975,165397.0
62899.99735500852,165410.0
62900.00744397607,165418.0
62900.01753294362,165436.0
62900.02762191116,165433.0
62900.037710878714,165422.0
62900.04779984626,165445.0
62900.057888813804,165424.0
62900.06797778136,165473.0
62900.0780667489,165460.0
62900.08815571645,165433.0
62900.09824468399,165442.0
62900.108333651544,165383.0
62900.11842261909,165423.0
62900.128511586634,165363.0
62900.138600554186,165321.0
62900.14868952173,165344.0
62900.158778489276,165304.0
62900.16886745683,165258.0
62900.17895642437,165224.0
62900.18904539192,165179.0
62900.19913435947,165153.0
62900.209223327016,165145.0
62900.21931229456,165101.0
62900.22940126211,165051.0
62900.23949022966,165044.0
62900.2495791972,165032.0
62900.25966816475,164997.0
62900.2697571323,164987.0
62900.279846099846,164906.0
62900.28993506739,164921.0
62900.30002403494,164936.0
62900.31011300249,164939.0
62900.32020197003,164889.0
62900.330290937585,164885.0
62900.34037990513,164943.0
62900.350468872675,164928.0
62900.36055784023,164885.0
62900.37064680777,164908.0
62900.38073577532,164886.0
62900.39082474287,164817.0
62900.400913710415,164748.0
62900.41100267796,164758.0
62900.42109164551,164755.0
62900.43118061306,164740.0
62900.4412695806,164720.0
62900.45135854815,164639.0
62900.4614475157,164640.0
62900.471536483245,164550.0
62900.48162545079,164535.0
62900.49171441834,164531.0
62900.50180338589,164516.0
62900.51189235343,164484.0
62900.521981320984,164477.0
62900.53207028853,164463.0
62900.542159256074,164450.0
62900.55224822363,164448.0
62900.56233719117,164459.0
62900.57242615872,164437.0
62900.58251512627,164457.0
62900.592604093814,164461.0
62900.60269306136,164491.0
62900.61278202891,164430.0
62900.622870996456,164462.0
62900.632959964,164486.0
62900.643048931546,164432.0
62900.6531378991,164444.0
62900.66322686664,164377.0
62900.67331583419,164359.0
62900.68340480174,164314.0
62900.693493769286,164297.0
62900.70358273683,164231.0
62900.71367170438,164213.0
62900.72376067193,164218.0
62900.73384963947,164208.0
62900.743938607025,164185.0
62900.75402757457,164221.0
62900.764116542116,164281.0
62900.77420550967,164312.0
62900.78429447721,164364.0
62900.79438344476,164394.0
62900.8044724123,164420.0
62900.814561379855,164473.0
62900.8246503474,164510.0
62900.834739314945,164555.0
62900.8448282825,164582.0
62900.85491725004,164648.0
62900.86500621759,164685.0
62900.87509518514,164742.0
62900.885184152685,164772.0
62900.89527312023,164812.0
62900.90536208778,164839.0
62900.91545105533,164899.0
62900.92554002287,164949.0
62900.935628990424,164945.0
62900.94571795797,164993.0
62900.955806925514,164973.0
62900.96589589307,164973.0
62900.97598486061,164990.0
62900.98607382816,164994.0
62900.9961627957,165038.0
62901.006251763254,165009.0
62901.0163407308,165063.0
62901.026429698344,165027.0
62901.0365186659,165055.0
62901.04660763344,165053.0
62901.05669660099,165077.0
62901.06678556854,165105.0
62901.076874536084,165099.0
62901.08696350363,165086.0
62901.09705247118,165098.0
62901.107141438726,165125.0
62901.11723040627,165133.0
62901.12731937382,165153.0
62901.13740834137,165180.0
62901.14749730891,165155.0
62901.157586276466,165172.0
62901.16767524401,165159.0
62901.177764211556,165204.0
62901.1878531791,165173.0
62901.19794214665,165208.0
62901.2080311142,165221.0
62901.21812008174,165222.0
62901.228209049295,165225.0
62901.23829801684,165225.0
62901.248386984385,165244.0
62901.25847595194,165216.0
62901.26856491948,165225.0
62901.27865388703,165251.0
62901.28874285458,165226.0
62901.298831822125,165240.0
62901.30892078967,165254.0
62901.31900975722,165230.0
62901.32909872477,165257.0
62901.33918769231,165302.0
62901.34927665986,165251.0
62901.35936562741,165280.0
62901.369454594955,165294.0
62901.3795435625,165289.0
62901.38963253005,165341.0
62901.3997214976,165316.0
62901.40981046514,165273.0
62901.419899432694,165235.0
62901.42998840024,165247.0
62901.440077367784,165162.0
62901.45016633534,165149.0
62901.46025530288,165091.0
62901.47034427043,165058.0
62901.48043323798,165007.0
62901.490522205524,165034.0
62901.50061117307,165031.0
62901.51070014062,164966.0
62901.520789108166,165000.0
62901.53087807571,164967.0
62901.54096704326,164914.0
62901.55105601081,164929.0
62901.561144978354,164976.0
62901.5712339459,164945.0
62901.58132291345,164943.0
62901.591411880996,164946.0
62901.60150084854,164908.0
62901.61158981609,164950.0
62901.62167878364,164919.0
62901.63176775118,164960.0
62901.641856718736,164941.0
62901.65194568628,164956.0
62901.662034653826,164946.0
62901.67212362138,164919.0
62901.68221258892,164928.0
62901.69230155647,164946.0
62901.70239052402,164941.0
62901.712479491565,164932.0
62901.72256845911,164970.0
62901.732657426655,164929.0
62901.74274639421,164903.0
62901.75283536175,164908.0
62901.7629243293,164911.0
62901.77301329685,164923.0
62901.783102264395,164946.0
62901.79319123194,164910.0
62901.80328019949,164891.0
62901.81336916704,164933.0
62901.82345813458,164958.0
62901.833547102135,164929.0
62901.84363606968,164956.0
62901.853725037225,164962.0
62901.86381400478,164960.0
62901.87390297232,164959.0
62901.88399193987,165003.0
62901.89408090741,164993.0
62901.904169874964,165002.0
62901.91425884251,165039.0
62901.924347810054,165027.0
62901.93443677761,165082.0
62901.94452574515,165086.0
62901.9546147127,165087.0
62901.96470368025,165045.0
62901.974792647794,165079.0
62901.98488161534,165090.0
62901.99497058289,165087.0
62902.005059550436,165111.0
62902.01514851798,165130.0
62902.02523748553,165130.0
62902.03532645308,165127.0
62902.04541542062,165163.0
62902.055504388176,165124.0
62902.06559335572,165147.0
62902.075682323266,165133.0
62902.08577129081,165132.0
62902.09586025836,165190.0
62902.10594922591,165173.0
62902.11603819345,165196.0
62902.126127161006,165190.0
62902.13621612855,165193.0
62902.146305096096,165206.0
62902.15639406365,165206.0
62902.16648303119,165223.0
62902.17657199874,165260.0
62902.18666096629,165231.0
62902.196749933835,165196.0
62902.20683890138,165198.0
62902.21692786893,165082.0
62902.22701683648,165104.0
62902.23710580402,165053.0
62902.247194771575,165049.0
62902.25728373912,164988.0
62902.267372706665,164984.0
62902.27746167421,164984.0
62902.28755064176,164973.0
62902.29763960931,164952.0
62902.30772857685,164925.0
62902.317817544405,164892.0
62902.32790651195,164881.0
62902.337995479495,164929.0
62902.34808444705,164908.0
62902.35817341459,165049.0
62902.36826238214,164889.0
62902.37835134969,164924.0
62902.388440317234,164893.0
62902.39852928478,164917.0
62902.40861825233,164929.0
62902.41870721988,164900.0
62902.42879618742,164922.0
62902.43888515497,164920.0
62902.44897412252,164908.0
62902.459063090064,164948.0
62902.46915205761,164951.0
62902.47924102516,164921.0
62902.489329992706,164944.0
62902.49941896025,164921.0
62902.5095079278,164892.0
62902.51959689535,164906.0
62902.52968586289,164927.0
62902.539774830446,164924.0
62902.54986379799,164916.0
62902.559952765536,164913.0
62902.57004173309,164894.0
62902.58013070063,164904.0
62902.59021966818,164890.0
62902.60030863573,164943.0
62902.610397603275,164917.0
62902.62048657082,164955.0
62902.630575538366,164981.0
62902.64066450592,164962.0
62902.65075347346,164981.0
62902.66084244101,164965.0
62902.67093140856,164986.0
62902.681020376105,165022.0
62902.69110934365,165020.0
62902.7011983112,165044.0
62902.71128727875,165050.0
62902.72137624629,165066.0
62902.731465213845,165046.0
62902.74155418139,165101.0
62902.751643148935,165099.0
62902.76173211649,165083.0
62902.77182108403,165093.0
62902.78191005158,165075.0
62902.79199901913,165091.0
62902.802087986674,165123.0
62902.81217695422,165116.0
62902.822265921764,165150.0
62902.83235488932,165175.0
62902.84244385686,165150.0
62902.85253282441,165123.0
62902.86262179196,165148.0
62902.872710759504,165159.0
62902.88279972705,165198.0
62902.8928886946,165181.0
62902.90297766215,165172.0
62902.91306662969,165187.0
62902.923155597244,165212.0
62902.93324456479,165244.0
62902.943333532334,165215.0
62902.953422499886,165235.0
62902.96351146743,165256.0
62902.973600434976,165271.0
62902.98368940252,165260.0
62902.99377837007,165256.0
62903.00386733762,165238.0
62903.01395630516,165242.0
62903.024045272716,165192.0
62903.03413424026,165185.0
62903.044223207806,165139.0
62903.05431217536,165116.0
62903.0644011429,165067.0
62903.07449011045,165018.0
62903.084579078,165029.0
62903.094668045545,164993.0
62903.10475701309,164968.0
62903.11484598064,165012.0
62903.12493494819,164927.0
62903.13502391573,164959.0
62903.145112883285,164962.0
62903.15520185083,164974.0
62903.165290818375,164941.0
62903.17537978592,164943.0
62903.18546875347,164955.0
62903.19555772102,164968.0
62903.20564668856,164928.0
62903.215735656115,164962.0
62903.22582462366,164989.0
62903.235913591205,164991.0
62903.24600255876,164996.0
62903.2560915263,164992.0
62903.26618049385,164996.0
62903.2762694614,164994.0
62903.286358428944,164985.0
62903.29644739649,164984.0
62903.30653636404,164953.0
62903.31662533159,164950.0
62903.32671429913,164952.0
62903.33680326668,164961.0
62903.34689223423,164937.0
62903.356981201774,164944.0
62903.36707016932,164917.0
62903.37715913687,164957.0
62903.387248104416,164973.0
62903.39733707196,164947.0
62903.407426039514,164977.0
62903.41751500706,164940.0
62903.427603974604,164953.0
62903.437692942156,165001.0
62903.4477819097,165021.0
62903.457870877246,165014.0
62903.4679598448,164993.0
62903.47804881234,165044.0
62903.48813777989,165018.0
62903.49822674744,165053.0
62903.508315714986,165032.0
62903.51840468253,165051.0
62903.528493650076,165076.0
62903.53858261763,165084.0
62903.54867158517,165069.0
62903.55876055272,165109.0
62903.56884952027,165103.0
62903.578938487815,165103.0
62903.58902745536,165132.0
62903.59911642291,165132.0
62903.60920539046,165146.0
62903.619294358,165128.0
62903.629383325555,165150.0
62903.6394722931,165166.0
62903.649561260645,165148.0
62903.6596502282,165136.0
62903.66973919574,165168.0
62903.67982816329,165143.0
62903.68991713084,165185.0
62903.700006098385,165173.0
62903.71009506593,165184.0
62903.720184033475,165192.0
62903.73027300103,165225.0
62903.74036196857,165235.0
62903.75045093612,165239.0
62903.76053990367,165258.0
62903.770628871214,165276.0
62903.78071783876,165233.0
62903.79080680631,165263.0
62903.80089577386,165273.0
62903.8109847414,165243.0
62903.821073708954,165197.0
62903.8311626765,165193.0
62903.841251644044,165165.0
62903.851340611596,165137.0
62903.86142957914,165075.0
62903.871518546686,165056.0
62903.88160751423,165012.0
62903.89169648178,165018.0
62903.90178544933,165003.0
62903.91187441687,164974.0
62903.921963384426,164982.0
62903.93205235197,164977.0
62903.942141319516,164937.0
62903.95223028707,164966.0
62903.96231925461,164980.0
62903.97240822216,164961.0
62903.98249718971,164962.0
62903.992586157256,164966.0
62904.0026751248,164956.0
62904.01276409235,164946.0
62904.0228530599,164988.0
62904.03294202744,165008.0
62904.043030994995,164978.0
62904.05311996254,165039.0
62904.063208930085,164970.0
62904.07329789763,165018.0
62904.08338686518,164990.0
62904.09347583273,165014.0
62904.10356480027,164970.0
62904.113653767825,164992.0
62904.12374273537,164976.0
62904.133831702915,164950.0
62904.14392067047,164932.0
62904.15400963801,164942.0
62904.16409860556,164958.0
62904.17418757311,164964.0
62904.184276540655,164983.0
62904.1943655082,164941.0
62904.20445447575,164977.0
62904.2145434433,164984.0
62904.22463241084,164955.0
62904.234721378394,164996.0
62904.24481034594,164999.0
62904.254899313484,164994.0
62904.26498828103,165004.0
62904.27507724858,165044.0
62904.28516621613,165044.0
62904.29525518367,165027.0
62904.305344151224,165072.0
62904.31543311877,165079.0
62904.325522086314,165081.0
62904.335611053866,165090.0
62904.34570002141,165106.0
62904.355788988956,165141.0
62904.36587795651,165123.0
62904.37596692405,165126.0
62904.3860558916,165117.0
62904.39614485915,165107.0
62904.406233826696,165132.0
62904.41632279424,165152.0
62904.426411761786,165121.0
62904.43650072934,165159.0
62904.44658969688,165134.0
62904.45667866443,165155.0
62904.46676763198,165172.0
62904.476856599525,165162.0
62904.48694556707,165129.0
62904.49703453462,165144.0
62904.50712350217,165205.0
62904.51721246971,165182.0
62904.527301437265,165188.0
62904.53739040481,165226.0
62904.547479372355,165226.0
62904.55756833991,165212.0
62904.56765730745,165199.0
62904.577746275,165197.0
62904.58783524255,165104.0
62904.597924210095,165111.0
62904.60801317764,165068.0
62904.618102145185,164989.0
62904.62819111274,164992.0
62904.63828008028,164942.0
62904.64836904783,164958.0
62904.65845801538,164912.0
62904.668546982924,164931.0
62904.67863595047,164910.0
62904.68872491802,164908.0
62904.69881388557,164891.0
62904.70890285311,164899.0
62904.718991820664,164872.0
62904.72908078821,164934.0
62904.739169755754,164907.0
62904.74925872331,164878.0
62904.75934769085,164928.0
62904.7694366584,164879.0
62904.77952562595,164913.0
62904.789614593494,164914.0
62904.79970356104,164948.0
62904.809792528584,164933.0
62904.819881496136,164944.0
62904.82997046368,164940.0
62904.840059431226,164913.0
62904.85014839878,164957.0
62904.86023736632,164949.0
62904.87032633387,164945.0
62904.88041530142,164952.0
62904.890504268966,164948.0
62904.90059323651,164919.0
62904.91068220406,164887.0
62904.92077117161,164913.0
62904.93086013915,164928.0
62904.940949106705,164947.0
62904.95103807425,164950.0
62904.961127041795,164936.0
62904.97121600934,164954.0
62904.98130497689,164948.0
62904.99139394444,164962.0
62905.00148291198,164972.0
62905.011571879535,164993.0
62905.02166084708,165025.0
62905.031749814625,164995.0
62905.04183878218,165006.0
62905.05192774972,165053.0
62905.06201671727,165057.0
62905.07210568482,165044.0
62905.082194652365,165082.0
62905.09228361991,165050.0
62905.10237258746,165094.0
62905.11246155501,165099.0
62905.12255052255,165130.0
62905.132639490104,165094.0
62905.14272845765,165131.0
62905.152817425194,165170.0
62905.16290639274,165128.0
62905.17299536029,165151.0
62905.18308432784,165146.0
62905.19317329538,165138.0
62905.203262262934,165167.0
62905.21335123048,165187.0
62905.223440198024,165190.0
62905.233529165576,165171.0
62905.24361813312,165192.0
62905.253707100666,165207.0
62905.26379606822,165189.0
62905.273885035764,165223.0
62905.28397400331,165273.0
62905.29406297086,165208.0
62905.304151938406,165255.0
62905.31424090595,165255.0
62905.3243298735,165286.0
62905.33441884105,165234.0
62905.34450780859,165252.0
62905.35459677614,165194.0
62905.36468574369,165142.0
62905.374774711236,165113.0
62905.38486367878,165076.0
62905.39495264633,165053.0
62905.40504161388,165025.0
62905.41513058142,165030.0
62905.425219548975,164898.0
62905.43530851652,164941.0
62905.445397484065,164938.0
62905.45548645162,164935.0
62905.46557541916,164919.0
62905.47566438671,164919.0
62905.48575335426,164899.0
62905.495842321805,164911.0
62905.50593128935,164940.0
62905.516020256895,164924.0
62905.52610922445,164890.0
62905.53619819199,164960.0
62905.54628715954,164902.0
62905.55637612709,164882.0
62905.566465094635,164883.0
62905.57655406218,164920.0
62905.58664302973,164915.0
62905.59673199728,164938.0
62905.60682096482,164933.0
62905.616909932374,164923.0
62905.62699889992,164919.0
62905.637087867464,164932.0
62905.64717683502,164960.0
62905.65726580256,164937.0
62905.66735477011,164952.0
62905.67744373766,164916.0
62905.687532705204,164888.0
62905.69762167275,164929.0
62905.707710640294,164907.0
62905.717799607846,164918.0
62905.72788857539,164920.0
62905.737977542936,164933.0
62905.74806651049,164916.0
62905.75815547803,164962.0
62905.76824444558,164949.0
62905.77833341313,164954.0
62905.788422380676,164984.0
62905.79851134822,164986.0
62905.80860031577,164971.0
62905.81868928332,164987.0
62905.82877825086,165017.0
62905.838867218416,165028.0
62905.84895618596,165033.0
62905.859045153506,165078.0
62905.86913412106,165053.0
62905.8792230886,165070.0
62905.88931205615,165074.0
62905.89940102369,165115.0
62905.909489991245,165093.0
62905.91957895879,165088.0
62905.929667926335,165109.0
62905.93975689389,165115.0
62905.94984586143,165133.0
62905.95993482898,165124.0
62905.97002379653,165138.0
62905.980112764075,165129.0
62905.99020173162,165143.0
62906.00029069917,165136.0
62906.01037966672,165169.0
62906.02046863426,165154.0
62906.030557601815,165198.0
62906.04064656936,165186.0
62906.050735536905,165198.0
62906.06082450445,165232.0
62906.070913472,165257.0
62906.08100243955,165208.0
62906.09109140709,165251.0
62906.101180374644,165237.0
62906.11126934219,165269.0
62906.121358309734,165258.0
62906.13144727729,165269.0
62906.14153624483,165272.0
62906.15162521238,165270.0
62906.16171417993,165183.0
62906.171803147474,165189.0
62906.18189211502,165136.0
62906.19198108257,165083.0
62906.202070050116,165050.0
62906.21215901766,165060.0
62906.22224798521,165017.0
62906.23233695276,165007.0
62906.2424259203,164962.0
62906.25251488785,164966.0
62906.2626038554,164953.0
62906.272692822946,164956.0
62906.28278179049,164955.0
62906.29287075804,164956.0
62906.30295972559,164950.0
62906.31304869313,164932.0
62906.323137660685,164982.0
62906.33322662823,164959.0
62906.343315595775,164954.0
62906.35340456333,164929.0
62906.36349353087,164937.0
62906.37358249842,164956.0
62906.38367146597,164963.0
62906.393760433515,164950.0
62906.40384940106,164949.0
62906.41393836861,164961.0
62906.42402733616,164971.0
62906.4341163037,164957.0
62906.44420527125,164954.0
62906.4542942388,164942.0
62906.464383206345,164960.0
62906.47447217389,164950.0
62906.48456114144,164946.0
62906.49465010899,164992.0
62906.50473907653,164941.0
62906.514828044084,164942.0
62906.52491701163,164946.0
62906.535005979174,164971.0
62906.54509494673,164963.0
62906.55518391427,165002.0
62906.56527288182,164961.0
62906.57536184937,165012.0
62906.585450816914,165006.0
62906.59553978446,164996.0
62906.605628752004,165007.0
62906.61571771956,165037.0
62906.6258066871,165046.0
62906.63589565465,165069.0
62906.6459846222,165093.0
62906.656073589744,165099.0
62906.66616255729,165091.0
62906.67625152484,165076.0
62906.686340492386,165105.0
62906.69642945993,165113.0
62906.70651842748,165143.0
62906.71660739503,165139.0
62906.72669636257,165165.0
62906.736785330126,165144.0
62906.74687429767,165160.0
62906.756963265216,165185.0
62906.76705223277,165184.0
62906.77714120031,165210.0
62906.78723016786,165195.0
62906.7973191354,165191.0
62906.807408102955,165200.0
62906.8174970705,165256.0
62906.827586038045,165225.0
62906.8376750056,165244.0
62906.84776397314,165273.0
62906.85785294069,165236.0
62906.86794190824,165254.0
62906.878030875785,165239.0
62906.88811984333,165285.0
62906.89820881088,165312.0
62906.90829777843,165292.0
62906.91838674597,165322.0
62906.928475713525,165324.0
62906.93856468107,165352.0
62906.948653648615,165328.0
62906.95874261616,165317.0
62906.96883158371,165374.0
62906.97892055126,165299.0
62906.9890095188,165315.0
62906.999098486354,165275.0
62907.0091874539,165212.0
62907.019276421444,165206.0
62907.029365389,165144.0
62907.03945435654,165134.0
62907.04954332409,165080.0
62907.05963229164,165103.0
62907.069721259184,165060.0
62907.07981022673,165052.0
62907.08989919428,165031.0
62907.099988161826,165020.0
62907.11007712937,165008.0
62907.120166096924,165043.0
62907.13025506447,165018.0
62907.140344032014,165020.0
62907.15043299956,165076.0
62907.16052196711,165076.0
62907.170610934656,165066.0
62907.1806999022,165019.0
62907.19078886975,165019.0
62907.2008778373,165095.0
62907.21096680484,165072.0
62907.221055772396,165060.0
62907.23114473994,165116.0
62907.241233707486,165087.0
62907.25132267504,165095.0
62907.26141164258,165092.0
62907.27150061013,165075.0
62907.28158957768,165110.0
62907.291678545225,165086.0
62907.30176751277,165054.0
62907.31185648032,165066.0
62907.32194544787,165094.0
62907.33203441541,165081.0
62907.34212338296,165064.0
62907.35221235051,165111.0
62907.362301318055,165082.0
62907.3723902856,165084.0
62907.38247925315,165099.0
62907.3925682207,165139.0
62907.40265718824,165110.0
62907.412746155795,165136.0
62907.42283512334,165162.0
62907.432924090885,165157.0
62907.44301305844,165194.0
62907.45310202598,165180.0
62907.46319099353,165208.0
62907.47327996108,165182.0
62907.483368928624,165230.0
62907.49345789617,165228.0
62907.503546863714,165222.0
62907.51363583127,165255.0
62907.52372479881,165249.0
62907.53381376636,165275.0
62907.54390273391,165283.0
62907.553991701454,165290.0
62907.564080669,165286.0
62907.57416963655,165317.0
62907.584258604096,165309.0
62907.59434757164,165293.0
62907.60443653919,165332.0
62907.61452550674,165346.0
62907.62461447428,165336.0
62907.634703441836,165329.0
62907.64479240938,165326.0
62907.654881376926,165340.0
62907.66497034448,165374.0
62907.67505931202,165368.0
62907.68514827957,165371.0
62907.69523724711,165366.0
62907.705326214666,165396.0
62907.71541518221,165436.0
62907.725504149756,165401.0
62907.73559311731,165460.0
62907.74568208485,165434.0
62907.7557710524,165441.0
62907.76586001995,165430.0
62907.775948987495,165481.0
62907.78603795504,165478.0
62907.79612692259,165473.0
62907.80621589014,165526.0
62907.81630485768,165441.0
62907.826393825235,165447.0
62907.83648279278,165460.0
62907.846571760325,165358.0
62907.85666072788,165354.0
62907.86674969542,165327.0
62907.87683866297,165296.0
62907.88692763051,165262.0
62907.897016598065,165231.0
62907.90710556561,165214.0
62907.917194533155,165205.0
62907.92728350071,165215.0
62907.93737246825,165185.0
62907.9474614358,165178.0
62907.95755040335,165175.0
62907.967639370894,165199.0
62907.97772833844,165135.0
62907.98781730599,165180.0
62907.99790627354,165175.0
62908.00799524108,165185.0
62908.018084208634,165186.0
62908.02817317618,165209.0
62908.038262143724,165207.0
62908.04835111127,165220.0
62908.05844007882,165249.0
62908.068529046366,165227.0
62908.07861801391,165202.0
62908.08870698146,165245.0
62908.09879594901,165239.0
62908.10888491655,165186.0
62908.118973884106,165226.0
62908.12906285165,165227.0
62908.139151819196,165184.0
62908.14924078675,165214.0
62908.15932975429,165202.0
62908.16941872184,165203.0
62908.17950768939,165203.0
62908.189596656935,165227.0
62908.19968562448,165213.0
62908.20977459203,165171.0
62908.21986355958,165215.0
62908.22995252712,165194.0
62908.24004149467,165198.0
62908.25013046222,165224.0
62908.260219429765,165210.0
62908.27030839731,165240.0
62908.28039736486,165251.0
62908.29048633241,165265.0
62908.30057529995,165286.0
62908.310664267505,165267.0
62908.32075323505,165308.0
62908.330842202595,165322.0
62908.34093117015,165307.0
62908.35102013769,165317.0
62908.36110910524,165330.0
62908.37119807279,165346.0
62908.381287040334,165370.0
