time,ppg
62863.88048721075,10253.0
62863.89048998069,10279.0
62863.90049275063,10268.0
62863.91049552057,10286.0
62863.920498290514,10271.0
62863.93050106045,10274.0
62863.940503830396,10305.0
62863.95050660033,10278.0
62863.96050937028,10319.0
62863.970512140215,10300.0
62863.98051491016,10306.0
62863.9905176801,10301.0
62864.00052045004,10309.0
62864.010523219986,10327.0
62864.02052598992,10321.0
62864.03052875987,10321.0
62864.040531529805,10329.0
62864.05053429975,10360.0
62864.06053706969,10369.0
62864.07053983963,10364.0
62864.08054260957,10355.0
62864.09054537951,10378.0
62864.10054814945,10367.0
62864.110550919395,10408.0
62864.12055368933,10386.0
62864.13055645928,10401.0
62864.140559229214,10387.0
62864.15056199916,10389.0
62864.160564769096,10439.0
62864.17056753904,10405.0
62864.18057030898,10407.0
62864.19057307892,10448.0
62864.20057584887,10427.0
62864.210578618804,10446.0
62864.22058138875,10435.0
62864.230584158686,10458.0
62864.24058692863,10452.0
62864.25058969857,10477.0
62864.26059246851,10475.0
62864.27059523845,10483.0
62864.280598008394,10468.0
62864.29060077833,10486.0
62864.300603548276,10528.0
62864.31060631821,10510.0
62864.32060908816,10503.0
62864.330611858095,10537.0
62864.34061462804,10547.0
62864.35061739798,10517.0
62864.36062016792,10559.0
62864.37062293786,10553.0
62864.3806257078,10533.0
62864.39062847774,10520.0
62864.400631247685,10500.0
62864.41063401763,10507.0
62864.42063678757,10503.0
62864.43063955751,10449.0
62864.44064232745,10458.0
62864.45064509739,10416.0
62864.46064786733,10396.0
62864.470650637275,10418.0
62864.48065340721,10357.0
62864.49065617716,10368.0
62864.500658947094,10376.0
62864.51066171704,10340.0
62864.520664486976,10348.0
62864.53066725692,10336.0
62864.54067002686,10316.0
62864.5506727968,10331.0
62864.56067556674,10313.0
62864.570678336684,10333.0
62864.58068110662,10344.0
62864.590683876566,10306.0
62864.60068664651,10304.0
62864.61068941645,10323.0
62864.62069218639,10350.0
62864.63069495633,10322.0
62864.640697726274,10325.0
62864.65070049621,10332.0
62864.660703266156,10359.0
62864.67070603609,10333.0
62864.68070880604,10327.0
62864.690711575975,10329.0
62864.70071434592,10315.0
62864.71071711586,10337.0
62864.7207198858,10333.0
62864.73072265574,10331.0
62864.74072542568,10318.0
62864.75072819562,10368.0
62864.760730965565,10318.0
62864.7707337355,10327.0
62864.78073650545,10317.0
62864.79073927539,10334.0
62864.80074204533,10329.0
62864.81074481527,10340.0
62864.82074758521,10342.0
62864.830750355155,10331.0
62864.84075312509,10353.0
62864.85075589504,10352.0
62864.860758664974,10365.0
62864.87076143492,10341.0
62864.880764204856,10393.0
62864.8907669748,10394.0
62864.90076974474,10378.0
62864.91077251468,10409.0
62864.92077528462,10370.0
62864.930778054564,10397.0
62864.9407808245,10391.0
62864.950783594446,10433.0
62864.96078636438,10420.0
62864.97078913433,10407.0
62864.980791904265,10438.0
62864.99079467421,10426.0
62865.000797444154,10438.0
62865.01080021409,10463.0
62865.020802984036,10452.0
62865.03080575397,10465.0
62865.04080852392,10473.0
62865.050811293855,10475.0
62865.0608140638,10472.0
62865.07081683374,10463.0
62865.08081960368,10473.0
62865.09082237362,10527.0
62865.10082514356,10482.0
62865.1108279135,10486.0
62865.120830683445,10509.0
62865.13083345338,10543.0
62865.14083622333,10514.0
62865.150838993264,10507.0
62865.16084176321,10545.0
62865.170844533146,10542.0
62865.18084730309,10526.0
62865.190850073035,10537.0
62865.20085284297,10548.0
62865.21085561292,10566.0
62865.220858382854,10552.0
62865.2308611528,10561.0
62865.240863922736,10565.0
62865.25086669268,10569.0
62865.26086946262,10600.0
62865.27087223256,10619.0
62865.2808750025,10613.0
62865.290877772444,10628.0
62865.30088054238,10612.0
62865.310883312326,10606.0
62865.32088608226,10620.0
62865.33088885221,10639.0
62865.340891622145,10639.0
62865.35089439209,10653.0
62865.36089716203,10626.0
62865.37089993197,10621.0
62865.380902701916,10606.0
62865.39090547185,10585.0
62865.4009082418,10561.0
62865.410911011735,10552.0
62865.42091378168,10531.0
62865.43091655162,10496.0
62865.44091932156,10511.0
62865.4509220915,10474.0
62865.46092486144,10473.0
62865.47092763138,10458.0
62865.480930401325,10464.0
62865.49093317126,10426.0
62865.50093594121,10435.0
62865.510938711144,10442.0
62865.52094148109,10410.0
62865.530944251026,10425.0
62865.54094702097,10423.0
62865.55094979091,10401.0
62865.56095256085,10415.0
62865.5709553308,10416.0
62865.580958100734,10422.0
62865.59096087068,10441.0
62865.600963640616,10411.0
62865.61096641056,10398.0
62865.6209691805,10422.0
62865.63097195044,10417.0
62865.64097472038,10415.0
62865.650977490324,10432.0
62865.66098026026,10421.0
62865.670983030206,10408.0
62865.68098580014,10383.0
62865.69098857009,10402.0
62865.700991340025,10410.0
62865.71099410997,10407.0
62865.72099687991,10406.0
62865.73099964985,10437.0
62865.74100241979,10419.0
62865.75100518973,10410.0
62865.76100795967,10400.0
62865.771010729615,10386.0
62865.78101349956,10410.0
62865.7910162695,10419.0
62865.80101903944,10396.0
62865.81102180938,10452.0
62865.82102457932,10419.0
62865.83102734926,10422.0
62865.841030119205,10414.0
62865.85103288914,10430.0
62865.86103565909,10435.0
62865.871038429024,10436.0
62865.88104119897,10444.0
62865.891043968906,10474.0
62865.90104673885,10445.0
62865.91104950879,10469.0
62865.92105227873,10481.0
62865.93105504867,10484.0
62865.941057818614,10487.0
62865.95106058855,10515.0
62865.961063358496,10456.0
62865.97106612844,10504.0
62865.98106889838,10487.0
62865.99107166832,10505.0
62866.00107443826,10537.0
62866.011077208204,10513.0
62866.02107997814,10507.0
62866.031082748086,10512.0
62866.04108551802,10520.0
62866.05108828797,10501.0
62866.061091057905,10556.0
62866.07109382785,10534.0
62866.08109659779,10534.0
62866.09109936773,10571.0
62866.10110213767,10535.0
62866.11110490761,10552.0
62866.12110767755,10545.0
62866.131110447495,10551.0
62866.14111321743,10590.0
62866.15111598738,10569.0
62866.16111875732,10585.0
62866.17112152726,10601.0
62866.1811242972,10571.0
62866.19112706714,10601.0
62866.201129837085,10629.0
62866.21113260702,10612.0
62866.22113537697,10634.0
62866.231138146904,10610.0
62866.24114091685,10612.0
62866.251143686786,10632.0
62866.26114645673,10593.0
62866.27114922667,10601.0
62866.28115199661,10575.0
62866.29115476655,10565.0
62866.301157536494,10549.0
62866.31116030643,10526.0
62866.321163076376,10523.0
62866.33116584631,10492.0
62866.34116861626,10507.0
62866.351171386195,10480.0
62866.36117415614,10465.0
62866.371176926084,10480.0
62866.38117969602,10424.0
62866.391182465966,10432.0
62866.4011852359,10444.0
62866.41118800585,10398.0
62866.421190775785,10457.0
62866.43119354573,10428.0
62866.44119631567,10420.0
62866.45119908561,10436.0
62866.46120185555,10421.0
62866.47120462549,10426.0
62866.48120739543,10411.0
62866.491210165375,10413.0
62866.50121293531,10434.0
62866.51121570526,10425.0
62866.521218475194,10397.0
62866.53122124514,10445.0
62866.541224015076,10408.0
62866.55122678502,10422.0
62866.561229554965,10422.0
62866.5712323249,10419.0
62866.58123509485,10407.0
62866.591237864784,10408.0
62866.60124063473,10423.0
62866.611243404666,10402.0
62866.62124617461,10424.0
62866.63124894455,10412.0
62866.64125171449,10397.0
62866.65125448443,10429.0
62866.661257254375,10403.0
62866.67126002431,10415.0
62866.681262794256,10429.0
62866.69126556419,10407.0
62866.70126833414,10450.0
62866.711271104075,10419.0
62866.72127387402,10420.0
62866.73127664396,10455.0
62866.7412794139,10408.0
62866.751282183846,10464.0
62866.76128495378,10464.0
62866.77128772373,10448.0
62866.781290493665,10485.0
62866.79129326361,10455.0
62866.80129603355,10465.0
62866.81129880349,10490.0
62866.82130157343,10469.0
62866.83130434337,10479.0
62866.84130711331,10480.0
62866.851309883255,10483.0
62866.86131265319,10476.0
62866.87131542314,10491.0
62866.881318193075,10510.0
62866.89132096302,10486.0
62866.90132373296,10493.0
62866.9113265029,10524.0
62866.92132927284,10517.0
62866.93133204278,10542.0
62866.94133481273,10516.0
62866.951337582665,10548.0
62866.96134035261,10545.0
62866.97134312255,10514.0
62866.98134589249,10567.0
62866.99134866243,10537.0
62867.00135143237,10554.0
62867.01135420231,10574.0
62867.021356972255,10539.0
62867.03135974219,10578.0
62867.04136251214,10582.0
62867.051365282074,10555.0
62867.06136805202,10597.0
62867.071370821955,10564.0
62867.0813735919,10578.0
62867.09137636184,10591.0
62867.10137913178,10550.0
62867.11138190172,10558.0
62867.121384671664,10541.0
62867.1313874416,10515.0
62867.141390211546,10504.0
62867.15139298149,10464.0
62867.16139575143,10454.0
62867.17139852137,10461.0
62867.18140129131,10428.0
62867.191404061254,10420.0
62867.20140683119,10403.0
62867.211409601136,10386.0
62867.22141237107,10384.0
62867.23141514102,10371.0
62867.241417910955,10375.0
62867.2514206809,10397.0
62867.26142345084,10376.0
62867.27142622078,10349.0
62867.28142899072,10357.0
62867.29143176066,10384.0
62867.3014345306,10375.0
62867.311437300545,10361.0
62867.32144007048,10361.0
62867.33144284043,10366.0
62867.34144561037,10378.0
62867.35144838031,10343.0
62867.36145115025,10353.0
62867.37145392019,10344.0
62867.381456690135,10340.0
62867.39145946007,10388.0
62867.40146223002,10348.0
62867.411464999954,10348.0
62867.4214677699,10358.0
62867.431470539836,10333.0
62867.44147330978,10345.0
62867.45147607972,10349.0
62867.46147884966,10337.0
62867.4714816196,10341.0
62867.481484389544,10336.0
62867.49148715948,10337.0
62867.501489929426,10361.0
62867.51149269936,10339.0
62867.52149546931,10340.0
62867.53149823925,10364.0
62867.54150100919,10343.0
62867.551503779134,10372.0
62867.56150654907,10359.0
62867.571509319016,10358.0
62867.58151208895,10364.0
62867.5915148589,10378.0
62867.601517628835,10376.0
62867.61152039878,10416.0
62867.62152316872,10361.0
62867.63152593866,10411.0
62867.6415287086,10391.0
62867.65153147854,10401.0
62867.66153424848,10386.0
62867.671537018425,10408.0
62867.68153978836,10407.0
62867.69154255831,10401.0
62867.701545328244,10403.0
62867.71154809819,10415.0
62867.72155086813,10432.0
62867.73155363807,10424.0
62867.741556408015,10421.0
62867.75155917795,10445.0
62867.7615619479,10449.0
62867.771564717834,10448.0
62867.78156748778,10473.0
62867.791570257716,10443.0
62867.80157302766,10465.0
62867.8115757976,10451.0
62867.82157856754,10470.0
62867.83158133748,10478.0
62867.841584107424,10471.0
62867.85158687736,10479.0
62867.861589647306,10470.0
62867.87159241724,10487.0
62867.88159518719,10476.0
62867.891597957125,10536.0
62867.90160072707,10506.0
62867.91160349701,10537.0
62867.92160626695,10514.0
62867.931609036896,10495.0
62867.94161180683,10470.0
62867.95161457678,10442.0
62867.961617346715,10428.0
62867.97162011666,10412.0
62867.9816228866,10390.0
62867.99162565654,10383.0
62868.00162842648,10339.0
62868.01163119642,10336.0
62868.02163396636,10324.0
62868.031636736305,10303.0
62868.04163950624,10306.0
62868.05164227619,10286.0
62868.061645046124,10286.0
62868.07164781607,10257.0
62868.081650586006,10271.0
62868.09165335595,10261.0
62868.10165612589,10271.0
62868.11165889583,10254.0
62868.12166166578,10258.0
62868.131664435714,10227.0
62868.14166720566,10241.0
62868.151669975596,10210.0
62868.16167274554,10246.0
62868.17167551548,10227.0
62868.18167828542,10229.0
62868.19168105536,10250.0
62868.201683825304,10247.0
62868.21168659524,10212.0
62868.221689365186,10243.0
62868.23169213512,10211.0
62868.24169490507,10210.0
62868.251697675005,10218.0
62868.26170044495,10209.0
62868.27170321489,10231.0
62868.28170598483,10209.0
62868.29170875477,10208.0
62868.30171152471,10176.0
62868.31171429466,10181.0
62868.321717064595,10196.0
62868.33171983454,10214.0
62868.34172260448,10202.0
62868.35172537442,10224.0
62868.36172814436,10246.0
62868.3717309143,10227.0
62868.38173368424,10215.0
62868.391736454185,10245.0
62868.40173922412,10211.0
62868.41174199407,10236.0
62868.421744764004,10244.0
62868.43174753395,10228.0
62868.441750303886,10265.0
62868.45175307383,10254.0
62868.46175584377,10306.0
62868.47175861371,10305.0
62868.48176138365,10262.0
62868.491764153594,10272.0
62868.50176692353,10293.0
62868.511769693476,10311.0
62868.52177246342,10272.0
62868.53177523336,10292.0
62868.5417780033,10299.0
62868.55178077324,10283.0
62868.561783543184,10280.0
62868.57178631312,10318.0
62868.581789083066,10351.0
62868.591791853,10344.0
62868.60179462295,10329.0
62868.611797392885,10320.0
62868.62180016283,10333.0
62868.63180293277,10352.0
62868.64180570271,10353.0
62868.65180847265,10355.0
62868.66181124259,10375.0
62868.67181401253,10392.0
62868.681816782475,10351.0
62868.69181955241,10377.0
62868.70182232236,10380.0
62868.7118250923,10395.0
62868.72182786224,10417.0
62868.73183063218,10410.0
62868.74183340212,10410.0
62868.751836172065,10416.0
62868.761838942,10389.0
62868.77184171195,10431.0
62868.781844481884,10433.0
62868.79184725183,10434.0
62868.801850021766,10453.0
62868.81185279171,10498.0
62868.82185556165,10464.0
62868.83185833159,10475.0
62868.84186110153,10487.0
62868.851863871474,10451.0
62868.86186664141,10453.0
62868.871869411356,10431.0
62868.88187218129,10400.0
62868.89187495124,10404.0
62868.90187772118,10356.0
62868.91188049112,10334.0
62868.921883261064,10293.0
62868.931886031,10276.0
62868.941888800946,10267.0
62868.95189157088,10263.0
62868.96189434083,10232.0
62868.971897110765,10236.0
62868.98189988071,10223.0
62868.99190265065,10203.0
62869.00190542059,10205.0
62869.01190819053,10164.0
62869.02191096047,10200.0
62869.03191373041,10187.0
62869.041916500355,10175.0
62869.05191927029,10180.0
62869.06192204024,10170.0
62869.071924810174,10162.0
62869.08192758012,10170.0
62869.09193035006,10165.0
62869.10193312,10147.0
62869.111935889945,10184.0
62869.12193865988,10135.0
62869.13194142983,10157.0
62869.141944199764,10137.0
62869.15194696971,10176.0
62869.161949739646,10162.0
62869.17195250959,10171.0
62869.18195527953,10160.0
62869.19195804947,10130.0
62869.20196081941,10180.0
62869.211963589354,10167.0
62869.22196635929,10137.0
62869.231969129236,10150.0
62869.24197189917,10135.0
62869.25197466912,10165.0
62869.261977439055,10154.0
62869.271980209,10156.0
62869.28198297894,10155.0
62869.29198574888,10153.0
62869.301988518826,10164.0
62869.31199128876,10175.0
62869.32199405871,10170.0
62869.331996828645,10180.0
62869.34199959859,10186.0
62869.35200236853,10204.0
62869.36200513847,10183.0
62869.37200790841,10182.0
62869.38201067835,10210.0
62869.39201344829,10228.0
62869.402016218235,10221.0
62869.41201898817,10206.0
62869.42202175812,10229.0
62869.432024528054,10223.0
62869.442027298,10239.0
62869.452030067936,10264.0
62869.46203283788,10240.0
62869.47203560782,10240.0
62869.48203837776,10247.0
62869.49204114771,10260.0
62869.502043917644,10280.0
62869.51204668759,10261.0
62869.522049457526,10276.0
62869.53205222747,10277.0
62869.54205499741,10282.0
62869.55205776735,10294.0
62869.56206053729,10316.0
62869.572063307234,10297.0
62869.58206607717,10324.0
62869.592068847116,10342.0
62869.60207161705,10318.0
62869.612074387,10323.0
62869.622077156935,10355.0
62869.63207992688,10372.0
62869.64208269682,10382.0
62869.65208546676,10365.0
62869.6620882367,10374.0
62869.67209100664,10366.0
62869.68209377659,10389.0
62869.692096546525,10398.0
62869.70209931647,10411.0
62869.71210208641,10419.0
62869.72210485635,10406.0
62869.73210762629,10397.0
62869.74211039623,10415.0
62869.75211316617,10457.0
62869.762115936115,10456.0
62869.77211870605,10446.0
62869.782121476,10463.0
62869.792124245934,10466.0
62869.80212701588,10464.0
62869.812129785816,10481.0
62869.82213255576,10459.0
62869.8321353257,10491.0
62869.84213809564,10495.0
62869.85214086558,10497.0
62869.862143635524,10516.0
62869.87214640546,10506.0
62869.882149175406,10486.0
62869.89215194535,10474.0
62869.90215471529,10429.0
62869.91215748523,10431.0
62869.92216025517,10406.0
62869.932163025114,10376.0
62869.94216579505,10402.0
62869.952168564996,10335.0
62869.96217133493,10311.0
62869.97217410488,10322.0
62869.982176874815,10276.0
62869.99217964476,10279.0
62870.0021824147,10290.0
62870.01218518464,10253.0
62870.02218795458,10273.0
62870.03219072452,10247.0
62870.04219349446,10238.0
62870.052196264405,10254.0
62870.06219903434,10212.0
62870.07220180429,10223.0
62870.08220457423,10237.0
62870.09220734417,10188.0
62870.10221011411,10222.0
62870.11221288405,10209.0
62870.122215653995,10210.0
62870.13221842393,10213.0
62870.14222119388,10211.0
62870.152223963814,10202.0
62870.16222673376,10214.0
62870.172229503696,10194.0
62870.18223227364,10189.0
62870.19223504358,10196.0
62870.20223781352,10193.0
62870.21224058346,10187.0
62870.222243353404,10222.0
62870.23224612334,10206.0
62870.242248893286,10194.0
62870.25225166322,10229.0
62870.26225443317,10199.0
62870.27225720311,10201.0
62870.28225997305,10208.0
62870.292262742994,10180.0
62870.30226551293,10227.0
62870.312268282876,10204.0
62870.32227105281,10206.0
62870.33227382276,10211.0
62870.342276592695,10213.0
62870.35227936264,10223.0
62870.36228213258,10221.0
62870.37228490252,10218.0
62870.38228767246,10268.0
62870.3922904424,10251.0
62870.40229321234,10238.0
62870.412295982285,10267.0
62870.42229875222,10265.0
62870.43230152217,10276.0
62870.442304292104,10246.0
62870.45230706205,10276.0
62870.46230983199,10304.0
62870.47231260193,10270.0
62870.482315371875,10285.0
62870.49231814181,10312.0
62870.50232091176,10317.0
62870.512323681694,10326.0
62870.52232645164,10334.0
62870.532329221576,10300.0
62870.54233199152,10309.0
62870.55233476146,10332.0
62870.5623375314,10320.0
62870.57234030134,10366.0
62870.582343071284,10376.0
62870.59234584122,10370.0
62870.602348611166,10328.0
62870.6123513811,10374.0
62870.62235415105,10367.0
62870.632356920985,10387.0
62870.64235969093,10381.0
62870.65236246087,10390.0
62870.66236523081,10396.0
62870.672368000756,10404.0
62870.68237077069,10443.0
62870.69237354064,10413.0
62870.702376310575,10432.0
62870.71237908052,10446.0
62870.72238185046,10446.0
62870.7323846204,10421.0
62870.74238739034,10479.0
62870.75239016028,10452.0
62870.76239293022,10479.0
62870.772395700165,10472.0
62870.7823984701,10472.0
62870.79240124005,10529.0
62870.802404009984,10511.0
62870.81240677993,10510.0
62870.822409549866,10554.0
62870.83241231981,10514.0
62870.84241508975,10537.0
62870.85241785969,10512.0
62870.86242062964,10521.0
62870.872423399574,10550.0
62870.88242616952,10518.0
62870.892428939456,10496.0
62870.9024317094,10503.0
62870.91243447934,10455.0
62870.92243724928,10446.0
62870.93244001922,10441.0
62870.942442789164,10405.0
62870.9524455591,10384.0
62870.962448329046,10372.0
62870.97245109898,10352.0
62870.98245386893,10368.0
62870.992456638865,10356.0
62871.00245940881,10368.0
62871.01246217875,10322.0
62871.02246494869,10326.0
62871.03246771863,10332.0
62871.04247048857,10329.0
62871.05247325852,10352.0
62871.062476028455,10317.0
62871.0724787984,10316.0
62871.08248156834,10311.0
62871.09248433828,10324.0
62871.10248710822,10330.0
62871.11248987816,10291.0
62871.1224926481,10310.0
62871.132495418045,10350.0
62871.14249818798,10290.0
62871.15250095793,10327.0
62871.162503727865,10317.0
62871.17250649781,10307.0
62871.182509267746,10324.0
62871.19251203769,10290.0
62871.20251480763,10306.0
62871.21251757757,10320.0
62871.22252034751,10274.0
62871.232523117455,10333.0
62871.24252588739,10312.0
62871.25252865734,10318.0
62871.26253142728,10349.0
62871.27253419722,10298.0
62871.28253696716,10317.0
62871.2925397371,10335.0
62871.302542507045,10317.0
62871.31254527698,10343.0
62871.32254804693,10331.0
62871.332550816864,10333.0
62871.34255358681,10364.0
62871.352556356745,10351.0
62871.36255912669,10351.0
62871.37256189663,10391.0
62871.38256466657,10368.0
62871.39256743651,10376.0
62871.402570206454,10372.0
62871.41257297639,10397.0
62871.422575746335,10405.0
62871.43257851627,10403.0
62871.44258128622,10401.0
62871.45258405616,10405.0
62871.4625868261,10407.0
62871.472589596044,10408.0
62871.48259236598,10426.0
62871.492595135926,10407.0
62871.50259790586,10462.0
62871.51260067581,10464.0
62871.522603445745,10441.0
62871.53260621569,10457.0
62871.54260898563,10460.0
62871.55261175557,10454.0
62871.56261452551,10457.0
62871.57261729545,10472.0
62871.58262006539,10459.0
62871.592622835335,10469.0
62871.60262560527,10505.0
62871.61262837522,10496.0
62871.622631145154,10481.0
62871.6326339151,10471.0
62871.64263668504,10540.0
62871.65263945498,10509.0
62871.662642224925,10498.0
62871.67264499486,10551.0
62871.68264776481,10540.0
62871.692650534744,10549.0
62871.70265330469,10526.0
62871.712656074626,10524.0
62871.72265884457,10540.0
62871.73266161451,10571.0
62871.74266438445,10568.0
62871.75266715439,10560.0
62871.762669924334,10610.0
62871.77267269427,10597.0
62871.782675464216,10601.0
62871.79267823415,10603.0
62871.8026810041,10588.0
62871.812683774035,10618.0
62871.82268654398,10632.0
62871.832689313924,10599.0
62871.84269208386,10641.0
62871.852694853806,10627.0
62871.86269762374,10613.0
62871.87270039369,10628.0
62871.882703163625,10600.0
62871.89270593357,10574.0
62871.90270870351,10532.0
62871.91271147345,10516.0
62871.92271424339,10488.0
62871.93271701333,10488.0
62871.94271978327,10467.0
62871.952722553215,10470.0
62871.96272532315,10479.0
62871.9727280931,10442.0
62871.982730863034,10432.0
62871.99273363298,10451.0
62872.002736402916,10429.0
62872.01273917286,10437.0
62872.0227419428,10466.0
62872.03274471274,10397.0
62872.04274748269,10420.0
62872.052750252624,10428.0
62872.06275302257,10419.0
62872.072755792506,10402.0
62872.08275856245,10409.0
62872.09276133239,10430.0
62872.10276410233,10420.0
62872.11276687227,10452.0
62872.122769642214,10457.0
62872.13277241215,10418.0
62872.142775182096,10418.0
62872.15277795203,10421.0
62872.16278072198,10423.0
62872.172783491915,10435.0
62872.18278626186,10412.0
62872.1927890318,10445.0
62872.20279180174,10424.0
62872.21279457168,10408.0
62872.22279734162,10453.0
62872.23280011157,10410.0
62872.242802881505,10404.0
62872.25280565145,10411.0
62872.26280842139,10429.0
62872.27281119133,10418.0
62872.28281396127,10411.0
62872.29281673121,10437.0
62872.30281950115,10454.0
62872.312822271095,10460.0
62872.32282504103,10453.0
62872.33282781098,10446.0
62872.342830580914,10446.0
62872.35283335086,10477.0
62872.362836120796,10482.0
62872.37283889074,10459.0
62872.38284166068,10492.0
62872.39284443062,10462.0
62872.40284720056,10505.0
62872.412849970504,10490.0
62872.42285274045,10478.0
62872.432855510386,10509.0
62872.44285828033,10505.0
62872.45286105027,10508.0
62872.46286382021,10504.0
62872.47286659015,10525.0
62872.482869360094,10546.0
62872.49287213003,10525.0
62872.502874899976,10539.0
62872.51287766991,10537.0
62872.52288043986,10522.0
62872.532883209795,10517.0
62872.54288597974,10558.0
62872.55288874968,10579.0
62872.56289151962,10545.0
62872.57289428956,10578.0
62872.5828970595,10572.0
62872.59289982944,10566.0
62872.602902599385,10582.0
62872.61290536932,10568.0
62872.62290813927,10577.0
62872.63291090921,10607.0
62872.64291367915,10584.0
62872.65291644909,10625.0
62872.66291921903,10609.0
62872.672921988975,10597.0
62872.68292475891,10652.0
62872.69292752886,10622.0
62872.702930298794,10646.0
62872.71293306874,10656.0
62872.722935838676,10638.0
62872.73293860862,10671.0
62872.74294137856,10648.0
62872.7529441485,10622.0
62872.76294691844,10627.0
62872.772949688384,10612.0
62872.78295245832,10603.0
62872.792955228266,10630.0
62872.8029579982,10558.0
62872.81296076815,10579.0
62872.82296353809,10537.0
62872.83296630803,10518.0
62872.842969077974,10529.0
62872.85297184791,10509.0
62872.862974617856,10522.0
62872.87297738779,10475.0
62872.88298015774,10494.0
62872.892982927675,10473.0
62872.90298569762,10464.0
62872.91298846756,10496.0
62872.9229912375,10467.0
62872.93299400744,10462.0
62872.94299677738,10471.0
62872.95299954732,10425.0
62872.963002317265,10488.0
62872.9730050872,10436.0
62872.98300785715,10464.0
62872.993010627084,10484.0
62873.00301339703,10443.0
62873.01301616697,10489.0
62873.02301893691,10470.0
62873.033021706855,10451.0
62873.04302447679,10489.0
62873.05302724674,10445.0
62873.063030016674,10466.0
62873.07303278662,10450.0
62873.083035556556,10447.0
62873.0930383265,10476.0
62873.10304109644,10466.0
62873.11304386638,10455.0
62873.12304663632,10470.0
62873.133049406264,10448.0
62873.1430521762,10474.0
62873.153054946146,10496.0
62873.16305771608,10470.0
62873.17306048603,10477.0
62873.183063255965,10488.0
62873.19306602591,10487.0
62873.203068795854,10494.0
62873.21307156579,10499.0
62873.223074335736,10501.0
62873.23307710567,10500.0
62873.24307987562,10482.0
62873.253082645555,10493.0
62873.2630854155,10508.0
62873.27308818544,10546.0
62873.28309095538,10545.0
62873.29309372532,10540.0
62873.30309649526,10553.0
62873.3130992652,10549.0
62873.323102035145,10583.0
62873.33310480508,10540.0
62873.34310757503,10573.0
62873.353110344964,10573.0
62873.36311311491,10561.0
62873.373115884846,10599.0
62873.38311865479,10588.0
62873.39312142473,10567.0
62873.40312419467,10630.0
62873.41312696462,10589.0
62873.423129734554,10617.0
62873.4331325045,10602.0
62873.443135274436,10600.0
62873.45313804438,10632.0
62873.46314081432,10628.0
62873.47314358426,10657.0
62873.4831463542,10652.0
62873.493149124144,10634.0
62873.50315189408,10685.0
62873.513154664026,10672.0
62873.52315743396,10653.0
62873.53316020391,10693.0
62873.543162973845,10679.0
62873.55316574379,10686.0
62873.56316851373,10710.0
62873.57317128367,10701.0
62873.58317405361,10695.0
62873.59317682355,10720.0
62873.6031795935,10711.0
62873.613182363435,10744.0
62873.62318513338,10719.0
62873.63318790332,10725.0
62873.64319067326,10709.0
62873.6531934432,10699.0
62873.66319621314,10691.0
62873.67319898308,10653.0
62873.683201753025,10639.0
62873.69320452296,10601.0
62873.70320729291,10579.0
62873.713210062844,10583.0
62873.72321283279,10558.0
62873.733215602726,10547.0
62873.74321837267,10542.0
62873.75322114261,10523.0
62873.76322391255,10532.0
62873.77322668249,10534.0
62873.783229452434,10524.0
62873.79323222238,10510.0
62873.803234992316,10485.0
62873.81323776226,10475.0
62873.8232405322,10477.0
62873.83324330214,10486.0
62873.84324607208,10497.0
62873.853248842024,10474.0
62873.86325161196,10491.0
62873.873254381906,10469.0
62873.88325715184,10478.0
62873.89325992179,10491.0
62873.903262691725,10452.0
62873.91326546167,10467.0
62873.92326823161,10448.0
62873.93327100155,10451.0
62873.94327377149,10451.0
62873.95327654143,10459.0
62873.96327931137,10463.0
62873.973282081315,10459.0
62873.98328485125,10459.0
62873.9932876212,10457.0
62874.00329039114,10437.0
62874.01329316108,10447.0
62874.02329593102,10460.0
62874.03329870096,10450.0
62874.043301470905,10429.0
62874.05330424084,10479.0
62874.06330701079,10432.0
62874.073309780724,10465.0
62874.08331255067,10476.0
62874.093315320606,10466.0
62874.10331809055,10460.0
62874.11332086049,10470.0
62874.12332363043,10495.0
62874.13332640037,10495.0
62874.143329170314,10481.0
62874.15333194025,10501.0
62874.163334710196,10502.0
62874.17333748013,10486.0
62874.18334025008,10518.0
62874.19334302002,10513.0
62874.20334578996,10502.0
62874.213348559904,10532.0
62874.22335132984,10535.0
62874.233354099786,10526.0
62874.24335686972,10520.0
62874.25335963967,10565.0
62874.263362409605,10540.0
62874.27336517955,10548.0
62874.28336794949,10530.0
62874.29337071943,10549.0
62874.30337348937,10576.0
62874.31337625931,10565.0
62874.32337902925,10567.0
62874.333381799195,10605.0
62874.34338456913,10571.0
62874.35338733908,10586.0
62874.363390109014,10591.0
62874.37339287896,10570.0
62874.3833956489,10614.0
62874.39339841884,10595.0
62874.403401188785,10610.0
62874.41340395872,10642.0
62874.42340672867,10614.0
62874.433409498604,10657.0
62874.44341226855,10638.0
62874.453415038486,10624.0
62874.46341780843,10657.0
62874.47342057837,10634.0
62874.48342334831,10669.0
62874.49342611825,10683.0
62874.503428888194,10681.0
62874.51343165813,10690.0
62874.523434428076,10693.0
62874.53343719801,10676.0
62874.54343996796,10723.0
62874.553442737895,10694.0
62874.56344550784,10709.0
62874.573448277784,10709.0
62874.58345104772,10687.0
62874.593453817666,10665.0
62874.6034565876,10661.0
62874.61345935755,10644.0
62874.623462127485,10615.0
62874.63346489743,10579.0
62874.64346766737,10565.0
62874.65347043731,10583.0
62874.66347320725,10529.0
62874.67347597719,10522.0
62874.68347874713,10498.0
62874.693481517075,10481.0
62874.70348428701,10488.0
62874.71348705696,10490.0
62874.723489826894,10452.0
62874.73349259684,10465.0
62874.743495366776,10433.0
62874.75349813672,10419.0
62874.76350090666,10432.0
62874.7735036766,10458.0
62874.78350644655,10430.0
62874.793509216484,10441.0
62874.80351198643,10413.0
62874.813514756366,10405.0
62874.82351752631,10429.0
62874.83352029625,10402.0
62874.84352306619,10404.0
62874.85352583613,10375.0
62874.863528606074,10386.0
62874.87353137601,10421.0
62874.883534145956,10398.0
62874.89353691589,10408.0
62874.90353968584,10393.0
62874.913542455775,10387.0
62874.92354522572,10394.0
62874.93354799566,10360.0
62874.9435507656,10361.0
62874.95355353554,10376.0
62874.96355630548,10379.0
62874.97355907543,10390.0
62874.983561845365,10390.0
62874.99356461531,10402.0
62875.00356738525,10388.0
62875.01357015519,10374.0
62875.02357292513,10380.0
62875.03357569507,10382.0
62875.04357846501,10398.0
62875.053581234955,10385.0
62875.06358400489,10387.0
62875.07358677484,10367.0
62875.083589544774,10415.0
62875.09359231472,10438.0
62875.103595084656,10397.0
62875.1135978546,10422.0
62875.12360062454,10421.0
62875.13360339448,10431.0
62875.14360616442,10428.0
62875.153608934364,10439.0
62875.16361170431,10442.0
62875.173614474246,10444.0
62875.18361724419,10464.0
62875.19362001413,10457.0
62875.20362278407,10462.0
62875.21362555401,10447.0
62875.223628323954,10444.0
62875.23363109389,10468.0
62875.243633863836,10477.0
62875.25363663377,10492.0
62875.26363940372,10515.0
62875.273642173655,10495.0
62875.2836449436,10501.0
62875.29364771354,10492.0
62875.30365048348,10521.0
62875.31365325342,10502.0
62875.32365602336,10513.0
62875.3336587933,10543.0
62875.343661563245,10532.0
62875.35366433318,10548.0
62875.36366710313,10554.0
62875.37366987307,10557.0
62875.38367264301,10545.0
62875.39367541295,10539.0
62875.40367818289,10556.0
62875.413680952835,10566.0
62875.42368372277,10566.0
62875.43368649272,10585.0
62875.443689262655,10613.0
62875.4536920326,10605.0
62875.463694802536,10604.0
62875.47369757248,10616.0
62875.48370034242,10643.0
62875.49370311236,10617.0
62875.5037058823,10654.0
62875.513708652245,10657.0
62875.52371142218,10627.0
62875.533714192126,10660.0
62875.54371696206,10660.0
62875.55371973201,10680.0
62875.56372250195,10678.0
62875.57372527189,10642.0
62875.583728041835,10652.0
62875.59373081177,10635.0
62875.60373358172,10623.0
62875.613736351654,10579.0
62875.6237391216,10567.0
62875.633741891535,10518.0
62875.64374466148,10492.0
62875.65374743142,10465.0
62875.66375020136,10460.0
62875.6737529713,10433.0
62875.683755741244,10447.0
62875.69375851118,10429.0
62875.703761281125,10422.0
62875.71376405106,10417.0
62875.72376682101,10394.0
62875.733769590945,10407.0
62875.74377236089,10426.0
62875.753775130834,10418.0
62875.76377790077,10367.0
62875.773780670715,10385.0
62875.78378344065,10350.0
62875.7937862106,10365.0
62875.803788980535,10384.0
62875.81379175048,10371.0
62875.82379452042,10374.0
62875.83379729036,10376.0
62875.8438000603,10370.0
62875.85380283024,10367.0
62875.86380560018,10334.0
62875.873808370125,10343.0
62875.88381114006,10342.0
62875.89381391001,10355.0
62875.903816679944,10368.0
62875.91381944989,10369.0
62875.923822219826,10345.0
62875.93382498977,10352.0
62875.943827759715,10329.0
62875.95383052965,10344.0
62875.9638332996,10359.0
62875.973836069534,10347.0
62875.98383883948,10329.0
62875.993841609416,10355.0
62876.00384437936,10337.0
62876.0138471493,10342.0
62876.02384991924,10340.0
62876.03385268918,10346.0
62876.043855459124,10333.0
62876.05385822906,10363.0
62876.063860999006,10390.0
62876.07386376894,10362.0
62876.08386653889,10401.0
62876.093869308825,10380.0
62876.10387207877,10389.0
62876.11387484871,10415.0
62876.12387761865,10389.0
62876.13388038859,10398.0
62876.14388315853,10386.0
62876.15388592848,10385.0
62876.163888698415,10429.0
62876.17389146836,10419.0
62876.1838942383,10412.0
62876.19389700824,10447.0
62876.20389977818,10413.0
62876.21390254812,10434.0
62876.22390531806,10440.0
62876.233908088005,10440.0
62876.24391085794,10436.0
62876.25391362789,10460.0
62876.263916397824,10438.0
62876.27391916777,10466.0
62876.283921937706,10452.0
62876.29392470765,10488.0
62876.30392747759,10486.0
62876.31393024753,10490.0
62876.32393301747,10472.0
62876.333935787414,10473.0
62876.34393855736,10485.0
62876.353941327296,10510.0
62876.36394409724,10503.0
62876.37394686718,10493.0
62876.38394963712,10513.0
62876.39395240706,10513.0
62876.403955177004,10513.0
62876.41395794694,10536.0
62876.423960716886,10550.0
62876.43396348682,10533.0
62876.44396625677,10554.0
62876.453969026705,10539.0
62876.46397179665,10557.0
62876.47397456659,10582.0
62876.48397733653,10561.0
62876.49398010647,10560.0
62876.50398287641,10576.0
62876.51398564635,10543.0
62876.523988416295,10581.0
62876.53399118624,10543.0
62876.54399395618,10509.0
62876.55399672612,10533.0
62876.56399949606,10451.0
62876.574002266,10472.0
62876.58400503594,10412.0
62876.594007805885,10398.0
62876.60401057582,10576.0
62876.61401334577,10543.0
62876.624016115704,10581.0
62876.63401888565,10543.0
62876.644021655586,10509.0
62876.65402442553,10533.0
62876.66402719547,10451.0
62876.67402996541,10472.0
62876.68403273535,10412.0
62876.694035505294,10398.0
62876.70403827523,10421.0
62876.714041045176,10382.0
62876.72404381511,10384.0
62876.73404658506,10404.0
62876.744049355,10344.0
62876.75405212494,10394.0
62876.764054894884,10372.0
62876.77405766482,10358.0
62876.784060434766,10382.0
62876.7940632047,10359.0
62876.80406597465,10368.0
62876.814068744585,10373.0
62876.82407151453,10371.0
62876.83407428447,10357.0
62876.84407705441,10375.0
62876.85407982435,10378.0
62876.86408259429,10403.0
62876.87408536423,10376.0
62876.884088134175,10376.0
62876.89409090411,10376.0
62876.90409367406,10382.0
62876.914096443994,10377.0
62876.92409921394,10380.0
62876.93410198388,10384.0
62876.94410475382,10364.0
62876.954107523765,10368.0
62876.9641102937,10372.0
62876.97411306365,10381.0
62876.984115833584,10381.0
62876.99411860353,10378.0
62877.004121373466,10383.0
62877.01412414341,10385.0
62877.02412691335,10371.0
62877.03412968329,10423.0
62877.04413245323,10398.0
62877.054135223174,10386.0
62877.06413799311,10404.0
62877.074140763056,10382.0
62877.08414353299,10396.0
62877.09414630294,10438.0
62877.104149072875,10402.0
62877.11415184282,10439.0
62877.124154612764,10432.0
62877.1341573827,10434.0
62877.144160152646,10447.0
62877.15416292258,10444.0
62877.16416569253,10459.0
62877.174168462465,10472.0
62877.18417123241,10439.0
62877.19417400235,10483.0
62877.20417677229,10464.0
62877.21417954223,10456.0
62877.22418231217,10514.0
62877.23418508211,10484.0
62877.244187852055,10489.0
62877.25419062199,10489.0
62877.26419339194,10490.0
62877.274196161874,10516.0
62877.28419893182,10513.0
62877.294201701756,10521.0
62877.3042044717,10509.0
62877.314207241645,10521.0
62877.32421001158,10501.0
62877.33421278153,10560.0
62877.344215551464,10594.0
62877.35421832141,10548.0
62877.364221091346,10575.0
62877.37422386129,10574.0
62877.38422663123,10559.0
62877.39422940117,10586.0
62877.40423217111,10573.0
62877.414234941054,10605.0
62877.42423771099,10577.0
62877.434240480936,10575.0
62877.44424325087,10617.0
62877.45424602082,10577.0
62877.464248790755,10520.0
62877.4742515607,10539.0
62877.48425433064,10483.0
62877.49425710058,10488.0
62877.50425987052,10471.0
62877.51426264046,10448.0
62877.52426541041,10444.0
62877.534268180345,10427.0
62877.54427095029,10412.0
62877.55427372023,10414.0
62877.56427649017,10387.0
62877.57427926011,10396.0
62877.58428203005,10416.0
62877.59428479999,10384.0
62877.604287569935,10434.0
62877.61429033987,10389.0
62877.62429310982,10385.0
62877.634295879754,10407.0
62877.6442986497,10417.0
62877.654301419636,10390.0
62877.66430418958,10381.0
62877.67430695952,10363.0
62877.68430972946,10418.0
62877.6943124994,10387.0
62877.704315269344,10406.0
62877.71431803929,10405.0
62877.724320809226,10405.0
62877.73432357917,10413.0
62877.74432634911,10372.0
62877.75432911905,10429.0
62877.76433188899,10396.0
62877.774334658934,10412.0
62877.78433742887,10378.0
62877.794340198816,10433.0
62877.80434296875,10402.0
62877.8143457387,10411.0
62877.824348508635,10386.0
62877.83435127858,10405.0
62877.84435404852,10415.0
62877.85435681846,10425.0
62877.8643595884,10401.0
62877.87436235834,10387.0
62877.88436512828,10427.0
62877.894367898225,10437.0
62877.90437066817,10458.0
62877.91437343811,10455.0
62877.92437620805,10458.0
62877.93437897799,10468.0
62877.94438174793,10482.0
62877.95438451787,10465.0
62877.964387287815,10476.0
62877.97439005775,10492.0
62877.9843928277,10476.0
62877.994395597634,10510.0
62878.00439836758,10480.0
62878.014401137516,10509.0
62878.02440390746,10524.0
62878.0344066774,10502.0
62878.04440944734,10511.0
62878.05441221728,10538.0
62878.064414987224,10529.0
62878.07441775716,10546.0
62878.084420527106,10526.0
62878.09442329704,10551.0
62878.10442606699,10587.0
62878.11442883693,10555.0
62878.12443160687,10592.0
62878.134434376814,10582.0
62878.14443714675,10579.0
62878.154439916696,10608.0
62878.16444268663,10609.0
62878.17444545658,10610.0
62878.184448226515,10598.0
62878.19445099646,10615.0
62878.2044537664,10592.0
62878.21445653634,10614.0
62878.22445930628,10662.0
62878.23446207622,10659.0
62878.24446484616,10670.0
62878.254467616105,10664.0
62878.26447038604,10667.0
62878.27447315599,10718.0
62878.284475925924,10673.0
62878.29447869587,10677.0
62878.30448146581,10692.0
62878.31448423575,10691.0
62878.324487005695,10695.0
62878.33448977563,10688.0
62878.34449254558,10651.0
62878.354495315514,10642.0
62878.36449808546,10614.0
62878.374500855396,10605.0
62878.38450362534,10566.0
62878.39450639528,10545.0
62878.40450916522,10533.0
62878.41451193516,10489.0
62878.424514705104,10501.0
62878.43451747504,10495.0
62878.444520244986,10485.0
62878.45452301492,10492.0
62878.46452578487,10465.0
62878.474528554805,10462.0
62878.48453132475,10488.0
62878.494534094694,10483.0
62878.50453686463,10461.0
62878.514539634576,10470.0
62878.52454240451,10469.0
62878.53454517446,10466.0
62878.544547944395,10425.0
62878.55455071434,10442.0
62878.56455348428,10429.0
62878.57455625422,10416.0
62878.58455902416,10432.0
62878.5945617941,10435.0
62878.60456456404,10444.0
62878.614567333985,10440.0
62878.62457010392,10438.0
62878.63457287387,10445.0
62878.644575643804,10464.0
62878.65457841375,10463.0
62878.664581183686,10431.0
62878.67458395363,10405.0
62878.684586723575,10425.0
62878.69458949351,10453.0
62878.70459226346,10444.0
62878.714595033394,10417.0
62878.72459780334,10445.0
62878.734600573276,10437.0
62878.74460334322,10443.0
62878.75460611316,10442.0
62878.7646088831,10444.0
62878.77461165304,10442.0
62878.784614422984,10464.0
62878.79461719292,10471.0
62878.804619962866,10483.0
62878.8146227328,10484.0
62878.82462550275,10486.0
62878.834628272685,10517.0
62878.84463104263,10469.0
62878.85463381257,10490.0
62878.86463658251,10504.0
62878.87463935245,10547.0
62878.88464212239,10517.0
62878.89464489234,10500.0
62878.904647662275,10524.0
62878.91465043222,10544.0
62878.92465320216,10526.0
62878.9346559721,10563.0
62878.94465874204,10552.0
62878.95466151198,10532.0
62878.96466428192,10541.0
62878.974667051865,10578.0
62878.9846698218,10568.0
62878.99467259175,10584.0
62879.004675361684,10573.0
62879.01467813163,10608.0
62879.024680901566,10597.0
62879.03468367151,10576.0
62879.04468644145,10582.0
62879.05468921139,10599.0
62879.06469198133,10617.0
62879.074694751274,10650.0
62879.08469752122,10609.0
62879.094700291156,10643.0
62879.1047030611,10636.0
62879.11470583104,10649.0
62879.12470860098,10674.0
62879.13471137092,10634.0
62879.144714140864,10688.0
62879.1547169108,10677.0
62879.164719680746,10676.0
62879.17472245068,10694.0
62879.18472522063,10708.0
62879.194727990565,10721.0
62879.20473076051,10684.0
62879.21473353045,10745.0
62879.22473630039,10698.0
62879.23473907033,10734.0
62879.24474184027,10724.0
62879.25474461021,10716.0
62879.264747380155,10755.0
62879.2747501501,10735.0
62879.28475292004,10735.0
62879.29475568998,10700.0
62879.30475845992,10700.0
62879.31476122986,10682.0
62879.3247639998,10653.0
62879.334766769745,10613.0
62879.34476953968,10636.0
62879.35477230963,10602.0
62879.364775079564,10583.0
62879.37477784951,10570.0
62879.384780619446,10582.0
62879.39478338939,10555.0
62879.40478615933,10552.0
62879.41478892927,10514.0
62879.42479169921,10560.0
62879.434794469154,10538.0
62879.44479723909,10498.0
62879.454800009036,10531.0
62879.46480277898,10512.0
62879.47480554892,10540.0
62879.48480831886,10533.0
62879.4948110888,10502.0
62879.504813858744,10504.0
62879.51481662868,10498.0
62879.524819398626,10490.0
62879.53482216856,10513.0
62879.54482493851,10520.0
62879.554827708445,10504.0
62879.56483047839,10488.0
62879.57483324833,10508.0
62879.58483601827,10498.0
62879.59483878821,10505.0
62879.60484155815,10520.0
62879.61484432809,10530.0
62879.624847098035,10519.0
62879.63484986797,10505.0
62879.64485263792,10483.0
62879.654855407854,10504.0
62879.6648581778,10482.0
62879.67486094774,10497.0
62879.68486371768,10517.0
62879.694866487625,10496.0
62879.70486925756,10516.0
62879.71487202751,10509.0
62879.724874797444,10520.0
62879.73487756739,10520.0
62879.744880337326,10517.0
62879.75488310727,10518.0
62879.76488587721,10539.0
62879.77488864715,10524.0
62879.78489141709,10546.0
62879.794894187035,10538.0
62879.80489695697,10568.0
62879.814899726916,10557.0
62879.82490249685,10552.0
62879.8349052668,10560.0
62879.844908036735,10587.0
62879.85491080668,10542.0
62879.864913576625,10599.0
62879.87491634656,10566.0
62879.884919116506,10591.0
62879.89492188644,10574.0
62879.90492465639,10592.0
62879.914927426325,10597.0
62879.92493019627,10600.0
62879.93493296621,10628.0
62879.94493573615,10595.0
62879.95493850609,10616.0
62879.964941276034,10623.0
62879.97494404597,10628.0
62879.984946815915,10657.0
62879.99494958585,10643.0
62880.0049523558,10643.0
62880.014955125735,10663.0
62880.02495789568,10639.0
62880.03496066562,10655.0
62880.04496343556,10672.0
62880.054966205505,10663.0
62880.06496897544,10677.0
62880.07497174539,10681.0
62880.084974515325,10694.0
62880.09497728527,10719.0
62880.10498005521,10718.0
62880.11498282515,10745.0
62880.12498559509,10726.0
62880.13498836503,10704.0
62880.14499113497,10742.0
62880.154993904915,10711.0
62880.16499667485,10747.0
62880.1749994448,10755.0
62880.185002214734,10726.0
62880.19500498468,10773.0
62880.205007754616,10760.0
62880.21501052456,10731.0
62880.2250132945,10731.0
62880.23501606444,10711.0
62880.24501883438,10701.0
62880.255021604324,10677.0
62880.26502437427,10650.0
62880.275027144206,10657.0
62880.28502991415,10627.0
62880.29503268409,10611.0
62880.30503545403,10600.0
62880.31503822397,10581.0
62880.325040993914,10587.0
62880.33504376385,10596.0
62880.345046533796,10571.0
62880.35504930373,10580.0
62880.36505207368,10574.0
62880.375054843615,10564.0
62880.38505761356,10588.0
62880.3950603835,10570.0
62880.40506315344,10549.0
62880.41506592338,10540.0
62880.42506869332,10534.0
62880.43507146326,10600.0
62880.445074233205,10558.0
62880.45507700315,10556.0
62880.46507977309,10590.0
62880.47508254303,10570.0
62880.48508531297,10561.0
62880.49508808291,10569.0
62880.50509085285,10574.0
62880.515093622795,10546.0
62880.52509639273,10553.0
62880.53509916268,10581.0
62880.545101932614,10567.0
62880.55510470256,10555.0
62880.565107472496,10559.0
62880.57511024244,10564.0
62880.58511301238,10547.0
62880.59511578232,10557.0
62880.60511855226,10557.0
62880.615121322204,10570.0
62880.62512409214,10553.0
62880.635126862086,10551.0
62880.64512963203,10560.0
62880.65513240197,10561.0
62880.66513517191,10615.0
62880.67513794185,10587.0
62880.685140711794,10590.0
62880.69514348173,10620.0
62880.705146251676,10564.0
62880.71514902161,10605.0
62880.72515179156,10592.0
62880.735154561495,10601.0
62880.74515733144,10620.0
62880.75516010138,10607.0
62880.76516287132,10633.0
62880.77516564126,10645.0
62880.7851684112,10625.0
62880.79517118114,10629.0
62880.805173951085,10613.0
62880.81517672102,10662.0
62880.82517949097,10681.0
62880.83518226091,10645.0
62880.84518503085,10665.0
62880.85518780079,10671.0
62880.86519057073,10647.0
62880.875193340675,10692.0
62880.88519611061,10673.0
62880.89519888056,10666.0
62880.905201650494,10718.0
62880.91520442044,10702.0
62880.925207190376,10709.0
62880.93520996032,10678.0
62880.94521273026,10712.0
62880.9552155002,10740.0
62880.96521827014,10730.0
62880.975221040084,10739.0
62880.98522381002,10712.0
62880.995226579966,10725.0
62881.0052293499,10734.0
62881.01523211985,10774.0
62881.025234889785,10739.0
62881.03523765973,10746.0
62881.045240429674,10716.0
62881.05524319961,10711.0
62881.065245969556,10691.0
62881.07524873949,10695.0
62881.08525150944,10639.0
62881.095254279375,10647.0
62881.10525704932,10623.0
62881.11525981926,10606.0
62881.1252625892,10621.0
62881.13526535914,10608.0
62881.14526812908,10569.0
62881.15527089902,10597.0
62881.165273668965,10592.0
62881.1752764389,10584.0
62881.18527920885,10601.0
62881.195281978784,10561.0
62881.20528474873,10578.0
62881.215287518666,10579.0
62881.22529028861,10539.0
62881.235293058555,10554.0
62881.24529582849,10580.0
62881.25529859844,10575.0
62881.265301368374,10600.0
62881.27530413832,10555.0
62881.285306908256,10576.0
62881.2953096782,10574.0
62881.30531244814,10552.0
62881.31531521808,10579.0
62881.32531798802,10574.0
62881.335320757964,10611.0
62881.3453235279,10577.0
62881.355326297846,10574.0
62881.36532906778,10611.0
62881.37533183773,10588.0
62881.385334607665,10576.0
62881.39533737761,10547.0
62881.40534014755,10592.0
62881.41534291749,10605.0
62881.425345687436,10590.0
62881.43534845737,10605.0
62881.44535122732,10579.0
62881.455353997255,10608.0
62881.4653567672,10599.0
62881.47535953714,10638.0
62881.48536230708,10609.0
62881.49536507702,10623.0
62881.50536784696,10632.0
62881.5153706169,10630.0
62881.525373386845,10639.0
62881.53537615678,10647.0
62881.54537892673,10645.0
62881.555381696664,10645.0
62881.56538446661,10680.0
62881.575387236546,10665.0
62881.58539000649,10703.0
62881.59539277643,10710.0
62881.60539554637,10692.0
62881.61539831631,10696.0
62881.625401086254,10727.0
62881.6354038562,10706.0
62881.645406626136,10713.0
62881.65540939608,10710.0
62881.66541216602,10693.0
62881.67541493596,10732.0
62881.6854177059,10713.0
62881.695420475844,10726.0
62881.70542324578,10732.0
62881.715426015726,10779.0
62881.72542878566,10771.0
62881.73543155561,10747.0
62881.745434325545,10785.0
62881.75543709549,10786.0
62881.76543986543,10769.0
62881.77544263537,10788.0
62881.78544540531,10752.0
62881.79544817525,10807.0
62881.80545094519,10831.0
62881.815453715135,10811.0
62881.82545648508,10811.0
62881.83545925502,10816.0
62881.84546202496,10828.0
62881.8554647949,10835.0
62881.86546756484,10824.0
62881.87547033478,10819.0
62881.885473104725,10861.0
62881.89547587466,10819.0
62881.90547864461,10834.0
62881.915481414544,10827.0
62881.92548418449,10757.0
62881.935486954426,10756.0
62881.94548972437,10768.0
62881.95549249431,10737.0
62881.96549526425,10740.0
62881.97549803419,10726.0
62881.985500804134,10696.0
62881.99550357407,10680.0
62882.005506344016,10671.0
62882.01550911396,10646.0
62882.0255118839,10669.0
62882.03551465384,10656.0
62882.04551742378,10627.0
62882.055520193724,10634.0
62882.06552296366,10633.0
62882.075525733606,10629.0
62882.08552850354,10627.0
62882.09553127349,10629.0
62882.105534043425,10620.0
62882.11553681337,10623.0
62882.12553958331,10616.0
62882.13554235325,10617.0
62882.14554512319,10613.0
62882.15554789313,10602.0
62882.16555066307,10614.0
62882.175553433015,10640.0
62882.18555620295,10622.0
62882.1955589729,10623.0
62882.20556174284,10620.0
62882.21556451278,10609.0
62882.22556728272,10614.0
62882.23557005266,10612.0
62882.245572822605,10617.0
62882.25557559254,10642.0
62882.26557836249,10619.0
62882.275581132424,10618.0
62882.28558390237,10627.0
62882.295586672306,10627.0
62882.30558944225,10616.0
62882.31559221219,10609.0
62882.32559498213,10619.0
62882.33559775207,10606.0
62882.345600522014,10633.0
62882.35560329195,10633.0
62882.365606061896,10617.0
62882.37560883183,10650.0
62882.38561160178,10643.0
62882.395614371715,10673.0
62882.40561714166,10666.0
62882.415619911604,10655.0
62882.42562268154,10671.0
62882.435625451486,10682.0
62882.44562822142,10702.0
62882.45563099137,10669.0
62882.465633761305,10689.0
62882.47563653125,10694.0
62882.48563930119,10703.0
62882.49564207113,10696.0
62882.50564484107,10700.0
62882.51564761101,10742.0
62882.52565038095,10730.0
62882.535653150895,10744.0
62882.54565592083,10722.0
62882.55565869078,10731.0
62882.565661460714,10764.0
62882.57566423066,10720.0
62882.585667000596,10753.0
62882.59566977054,10772.0
62882.605672540485,10725.0
62882.61567531042,10783.0
62882.62567808037,10767.0
62882.635680850304,10758.0
62882.64568362025,10783.0
62882.655686390186,10768.0
62882.66568916013,10791.0
62882.67569193007,10816.0
62882.68569470001,10788.0
62882.69569746995,10811.0
62882.705700239894,10802.0
62882.71570300983,10799.0
62882.725705779776,10805.0
62882.73570854971,10839.0
62882.74571131966,10824.0
62882.755714089595,10832.0
62882.76571685954,10872.0
62882.77571962948,10857.0
62882.78572239942,10852.0
62882.795725169366,10850.0
62882.8057279393,10886.0
62882.81573070925,10867.0
62882.825733479185,10871.0
62882.83573624913,10910.0
62882.84573901907,10898.0
62882.85574178901,10881.0
62882.86574455895,10915.0
62882.87574732889,10874.0
62882.88575009883,10849.0
62882.895752868775,10856.0
62882.90575563871,10816.0
62882.91575840866,10803.0
62882.925761178594,10773.0
62882.93576394854,10765.0
62882.945766718476,10723.0
62882.95576948842,10729.0
62882.96577225836,10684.0
62882.9757750283,10716.0
62882.98577779824,10685.0
62882.995780568184,10693.0
62883.00578333813,10657.0
62883.015786108066,10669.0
62883.02578887801,10677.0
62883.03579164795,10655.0
62883.04579441789,10659.0
62883.05579718783,10633.0
62883.065799957774,10606.0
62883.07580272771,10641.0
62883.085805497656,10613.0
62883.09580826759,10621.0
62883.10581103754,10619.0
62883.115813807475,10630.0
62883.12581657742,10620.0
62883.13581934736,10596.0
62883.1458221173,10629.0
62883.15582488724,10606.0
62883.16582765718,10618.0
62883.17583042712,10608.0
62883.185833197065,10600.0
62883.19583596701,10616.0
62883.20583873695,10591.0
62883.21584150689,10615.0
62883.22584427683,10617.0
62883.23584704677,10606.0
62883.24584981671,10592.0
62883.255852586655,10620.0
62883.26585535659,10576.0
62883.27585812654,10598.0
62883.285860896474,10585.0
62883.29586366642,10594.0
62883.305866436356,10608.0
62883.3158692063,10607.0
62883.32587197624,10606.0
62883.33587474618,10630.0
62883.34587751612,10597.0
62883.355880286064,10614.0
62883.365883056,10637.0
62883.375885825946,10619.0
62883.38588859589,10645.0
62883.39589136583,10631.0
62883.40589413577,10637.0
62883.41589690571,10651.0
62883.425899675654,10624.0
62883.43590244559,10648.0
62883.445905215536,10652.0
62883.45590798547,10701.0
62883.46591075542,10664.0
62883.475913525355,10668.0
62883.4859162953,10668.0
62883.49591906524,10683.0
62883.50592183518,10681.0
62883.51592460512,10690.0
62883.52592737506,10694.0
62883.535930145,10668.0
62883.545932914945,10678.0
62883.55593568488,10698.0
62883.56593845483,10728.0
62883.57594122477,10716.0
62883.58594399471,10724.0
62883.59594676465,10731.0
62883.60594953459,10704.0
62883.615952304535,10758.0
62883.62595507447,10727.0
62883.63595784442,10739.0
62883.645960614354,10753.0
62883.6559633843,10731.0
62883.665966154236,10773.0
62883.67596892418,10761.0
62883.68597169412,10776.0
62883.69597446406,10798.0
62883.705977234,10775.0
62883.715980003944,10792.0
62883.72598277388,10798.0
62883.735985543826,10772.0
62883.74598831376,10803.0
62883.75599108371,10801.0
62883.765993853645,10816.0
62883.77599662359,10853.0
62883.785999393534,10820.0
62883.79600216347,10848.0
62883.806004933416,10839.0
62883.81600770335,10855.0
62883.8260104733,10874.0
62883.836013243235,10851.0
62883.84601601318,10867.0
62883.85601878312,10864.0
62883.86602155306,10875.0
62883.876024323,10902.0
62883.88602709294,10868.0
62883.89602986288,10839.0
62883.906032632825,10835.0
62883.91603540276,10805.0
62883.92603817271,10792.0
62883.936040942644,10777.0
62883.94604371259,10775.0
62883.956046482526,10717.0
62883.96604925247,10712.0
62883.976052022415,10690.0
62883.98605479235,10699.0
62883.9960575623,10637.0
62884.006060332234,10663.0
62884.01606310218,10662.0
62884.026065872116,10646.0
62884.03606864206,10643.0
62884.046071412,10642.0
62884.05607418194,10625.0
62884.06607695188,10617.0
62884.076079721824,10620.0
62884.08608249176,10607.0
62884.096085261706,10594.0
62884.10608803164,10574.0
62884.11609080159,10602.0
62884.126093571525,10594.0
62884.13609634147,10616.0
62884.14609911141,10570.0
62884.15610188135,10591.0
62884.166104651296,10584.0
62884.17610742123,10581.0
62884.18611019118,10613.0
62884.196112961115,10581.0
62884.20611573106,10579.0
62884.216118501,10564.0
62884.22612127094,10583.0
62884.23612404088,10576.0
62884.24612681082,10571.0
62884.25612958076,10556.0
62884.266132350705,10569.0
62884.27613512064,10567.0
62884.28613789059,10576.0
62884.296140660525,10557.0
62884.30614343047,10591.0
62884.31614620041,10594.0
62884.32614897035,10579.0
62884.33615174029,10578.0
62884.34615451023,10602.0
62884.35615728017,10562.0
62884.366160050115,10580.0
62884.37616282006,10614.0
62884.38616559,10611.0
62884.39616835994,10614.0
62884.40617112988,10594.0
62884.41617389982,10619.0
62884.42617666976,10623.0
62884.436179439705,10600.0
62884.44618220964,10618.0
62884.45618497959,10631.0
62884.466187749524,10610.0
62884.47619051947,10645.0
62884.486193289405,10631.0
62884.49619605935,10653.0
62884.50619882929,10648.0
62884.51620159923,10642.0
62884.52620436917,10668.0
62884.536207139114,10662.0
62884.54620990905,10645.0
62884.556212678996,10678.0
62884.56621544894,10677.0
62884.57621821888,10655.0
62884.58622098882,10699.0
62884.59622375876,10700.0
62884.606226528704,10690.0
62884.61622929864,10655.0
62884.626232068586,10691.0
62884.63623483852,10696.0
62884.64623760847,10701.0
62884.656240378405,10731.0
62884.66624314835,10697.0
62884.67624591829,10698.0
62884.68624868823,10738.0
62884.69625145817,10740.0
62884.70625422811,10754.0
62884.71625699805,10744.0
62884.726259767995,10773.0
62884.73626253793,10756.0
62884.74626530788,10750.0
62884.75626807782,10776.0
62884.76627084776,10758.0
62884.7762736177,10697.0
62884.78627638764,10698.0
62884.796279157585,10738.0
62884.80628192752,10740.0
62884.81628469747,10754.0
62884.826287467404,10744.0
62884.83629023735,10773.0
62884.846293007286,10756.0
62884.85629577723,10750.0
62884.86629854717,10776.0
62884.87630131711,10758.0
62884.88630408705,10788.0
62884.896306856994,10772.0
62884.90630962693,10774.0
62884.916312396876,10796.0
62884.92631516681,10803.0
62884.93631793676,10785.0
62884.9463207067,10825.0
62884.95632347664,10797.0
62884.966326246584,10812.0
62884.97632901652,10795.0
62884.986331786466,10758.0
62884.9963345564,10749.0
62885.00633732635,10732.0
62885.016340096285,10704.0
62885.02634286623,10676.0
62885.03634563617,10645.0
62885.04634840611,10660.0
62885.05635117605,10657.0
62885.06635394599,10645.0
62885.07635671593,10619.0
62885.086359485875,10606.0
62885.09636225581,10608.0
62885.10636502576,10571.0
62885.116367795694,10609.0
62885.12637056564,10585.0
62885.136373335576,10587.0
62885.14637610552,10581.0
62885.156378875465,10584.0
62885.1663816454,10562.0
62885.17638441535,10566.0
62885.186387185284,10560.0
62885.19638995523,10548.0
62885.206392725166,10571.0
62885.21639549511,10546.0
62885.22639826505,10576.0
62885.23640103499,10567.0
62885.24640380493,10557.0
62885.256406574874,10550.0
62885.26640934481,10571.0
62885.276412114756,10545.0
62885.28641488469,10561.0
62885.29641765464,10540.0
62885.306420424575,10574.0
62885.31642319452,10564.0
62885.32642596446,10547.0
62885.3364287344,10555.0
62885.346431504346,10548.0
62885.35643427428,10534.0
62885.36643704423,10546.0
62885.376439814165,10567.0
62885.38644258411,10533.0
62885.39644535405,10548.0
62885.40644812399,10550.0
62885.41645089393,10554.0
62885.42645366387,10557.0
62885.43645643381,10598.0
62885.446459203755,10565.0
62885.45646197369,10594.0
62885.46646474364,10582.0
62885.476467513574,10561.0
62885.48647028352,10579.0
62885.496473053456,10603.0
62885.5064758234,10622.0
62885.51647859334,10591.0
62885.52648136328,10605.0
62885.53648413323,10629.0
62885.546486903164,10602.0
62885.55648967311,10608.0
62885.566492443046,10626.0
62885.57649521299,10646.0
62885.58649798293,10629.0
62885.59650075287,10664.0
62885.60650352281,10650.0
62885.616506292754,10652.0
62885.62650906269,10658.0
62885.636511832636,10675.0
62885.64651460257,10658.0
62885.65651737252,10667.0
62885.666520142455,10652.0
62885.6765229124,10659.0
62885.68652568234,10682.0
62885.69652845228,10741.0
62885.70653122222,10715.0
62885.71653399216,10707.0
62885.7265367621,10682.0
62885.736539532045,10738.0
62885.74654230199,10698.0
62885.75654507193,10743.0
62885.76654784187,10702.0
62885.77655061181,10729.0
62885.78655338175,10754.0
62885.79655615169,10747.0
62885.806558921635,10730.0
62885.81656169157,10754.0
62885.82656446152,10775.0
62885.836567231454,10746.0
62885.8465700014,10748.0
62885.856572771336,10774.0
62885.86657554128,10772.0
62885.87657831122,10781.0
62885.88658108116,10811.0
62885.8965838511,10816.0
62885.906586621044,10783.0
62885.91658939098,10816.0
62885.926592160926,10809.0
62885.93659493087,10801.0
62885.94659770081,10806.0
62885.95660047075,10776.0
62885.96660324069,10772.0
62885.976606010634,10732.0
62885.98660878057,10711.0
62885.996611550516,10691.0
62886.00661432045,10684.0
62886.0166170904,10649.0
62886.026619860335,10614.0
62886.03662263028,10637.0
62886.04662540022,10597.0
62886.05662817016,10613.0
62886.0666309401,10594.0
62886.07663371004,10579.0
62886.08663647998,10608.0
62886.096639249925,10583.0
62886.10664201986,10580.0
62886.11664478981,10588.0
62886.12664755975,10573.0
62886.13665032969,10588.0
62886.14665309963,10601.0
62886.15665586957,10560.0
62886.166658639515,10569.0
62886.17666140945,10585.0
62886.1866641794,10592.0
62886.196666949334,10573.0
62886.20666971928,10583.0
62886.216672489216,10581.0
62886.22667525916,10560.0
62886.2366780291,10575.0
62886.24668079904,10591.0
62886.25668356898,10587.0
62886.266686338924,10606.0
62886.27668910886,10590.0
62886.286691878806,10570.0
62886.29669464874,10567.0
62886.30669741869,10583.0
62886.31670018863,10608.0
62886.32670295857,10574.0
62886.336705728514,10573.0
62886.34670849845,10582.0
62886.356711268396,10575.0
62886.36671403833,10609.0
62886.37671680828,10590.0
62886.386719578215,10593.0
62886.39672234816,10607.0
62886.4067251181,10599.0
62886.41672788804,10615.0
62886.42673065798,10635.0
62886.43673342792,10614.0
62886.44673619786,10639.0
62886.456738967805,10627.0
62886.46674173774,10628.0
62886.47674450769,10667.0
62886.486747277624,10616.0
62886.49675004757,10642.0
62886.506752817506,10629.0
62886.51675558745,10636.0
62886.526758357395,10685.0
62886.53676112733,10660.0
62886.54676389728,10694.0
62886.556766667214,10683.0
62886.56676943716,10681.0
62886.576772207096,10691.0
62886.58677497704,10702.0
62886.59677774698,10684.0
62886.60678051692,10712.0
62886.61678328686,10699.0
62886.626786056804,10728.0
62886.63678882674,10737.0
62886.646791596686,10701.0
62886.65679436662,10760.0
62886.66679713657,10752.0
62886.676799906505,10733.0
62886.68680267645,10747.0
62886.69680544639,10748.0
62886.70680821633,10750.0
62886.716810986276,10780.0
62886.72681375621,10764.0
62886.73681652616,10776.0
62886.746819296095,10788.0
62886.75682206604,10792.0
62886.76682483598,10776.0
62886.77682760592,10787.0
62886.78683037586,10803.0
62886.7968331458,10803.0
62886.80683591574,10816.0
62886.816838685685,10840.0
62886.82684145562,10820.0
62886.83684422557,10819.0
62886.846846995504,10820.0
62886.85684976545,10820.0
62886.866852535386,10862.0
62886.87685530533,10885.0
62886.88685807527,10881.0
62886.89686084521,10870.0
62886.90686361516,10855.0
62886.916866385094,10845.0
62886.92686915504,10803.0
62886.936871924976,10808.0
62886.94687469492,10788.0
62886.95687746486,10748.0
62886.9668802348,10768.0
62886.97688300474,10709.0
62886.986885774684,10706.0
62886.99688854462,10718.0
62887.006891314566,10670.0
62887.0168940845,10685.0
62887.02689685445,10670.0
62887.036899624385,10652.0
62887.04690239433,10684.0
62887.05690516427,10649.0
62887.06690793421,10668.0
62887.07691070415,10653.0
62887.08691347409,10642.0
62887.09691624403,10668.0
62887.106919013975,10655.0
62887.11692178392,10644.0
62887.12692455386,10674.0
62887.1369273238,10651.0
62887.14693009374,10661.0
62887.15693286368,10641.0
62887.16693563362,10660.0
62887.176938403565,10684.0
62887.1869411735,10658.0
62887.19694394345,10647.0
62887.206946713384,10652.0
62887.21694948333,10642.0
62887.226952253266,10661.0
62887.23695502321,10649.0
62887.24695779315,10676.0
62887.25696056309,10660.0
62887.26696333303,10643.0
62887.276966102974,10643.0
62887.28696887291,10610.0
62887.296971642856,10647.0
62887.3069744128,10655.0
62887.31697718274,10673.0
62887.32697995268,10643.0
62887.33698272262,10657.0
62887.346985492564,10669.0
62887.3569882625,10692.0
62887.366991032446,10680.0
62887.37699380238,10671.0
62887.38699657233,10669.0
62887.396999342265,10695.0
62887.40700211221,10708.0
62887.41700488215,10681.0
62887.42700765209,10667.0
62887.43701042203,10723.0
62887.44701319197,10706.0
62887.45701596191,10734.0
62887.467018731855,10709.0
62887.47702150179,10726.0
62887.48702427174,10729.0
62887.49702704168,10701.0
62887.50702981162,10734.0
62887.51703258156,10730.0
62887.5270353515,10723.0
62887.537038121445,10754.0
62887.54704089138,10737.0
62887.55704366133,10774.0
62887.567046431264,10771.0
62887.57704920121,10759.0
62887.587051971146,10770.0
62887.59705474109,10770.0
62887.60705751103,10754.0
62887.61706028097,10813.0
62887.62706305091,10790.0
62887.637065820854,10786.0
62887.64706859079,10790.0
62887.657071360736,10784.0
62887.66707413067,10801.0
62887.67707690062,10806.0
62887.68707967056,10811.0
62887.6970824405,10830.0
62887.707085210444,10817.0
62887.71708798038,10817.0
62887.727090750326,10847.0
62887.73709352026,10862.0
62887.74709629021,10828.0
62887.757099060145,10848.0
62887.76710183009,10832.0
62887.77710460003,10861.0
62887.78710736997,10817.0
62887.79711013991,10819.0
62887.80711290985,10827.0
62887.81711567979,10773.0
62887.827118449735,10769.0
62887.83712121967,10734.0
62887.84712398962,10728.0
62887.857126759554,10690.0
62887.8671295295,10692.0
62887.877132299436,10678.0
62887.88713506938,10662.0
62887.897137839325,10656.0
62887.90714060926,10672.0
62887.91714337921,10666.0
62887.927146149144,10655.0
62887.93714891909,10661.0
62887.947151689026,10654.0
62887.95715445897,10650.0
62887.96715722891,10640.0
62887.97715999885,10664.0
62887.98716276879,10640.0
62887.997165538734,10651.0
62888.00716830867,10657.0
62888.017171078616,10633.0
62888.02717384855,10667.0
62888.0371766185,10655.0
62888.047179388435,10628.0
62888.05718215838,10667.0
62888.06718492832,10659.0
62888.07718769826,10651.0
62888.087190468206,10636.0
62888.09719323814,10638.0
62888.10719600809,10655.0
62888.117198778025,10654.0
62888.12720154797,10636.0
62888.13720431791,10630.0
62888.14720708785,10628.0
62888.15720985779,10649.0
62888.16721262773,10650.0
62888.17721539767,10642.0
62888.187218167615,10668.0
62888.19722093755,10647.0
62888.2072237075,10644.0
62888.217226477434,10664.0
62888.22722924738,10646.0
62888.237232017316,10663.0
62888.24723478726,10649.0
62888.2572375572,10706.0
62888.26724032714,10694.0
62888.27724309709,10687.0
62888.287245867024,10678.0
62888.29724863697,10705.0
62888.307251406906,10692.0
62888.31725417685,10698.0
62888.32725694679,10690.0
62888.33725971673,10709.0
62888.34726248667,10700.0
62888.357265256614,10707.0
62888.36726802655,10739.0
62888.377270796496,10727.0
62888.38727356643,10753.0
62888.39727633638,10738.0
62888.407279106315,10734.0
62888.41728187626,10753.0
62888.4272846462,10747.0
62888.43728741614,10755.0
62888.44729018608,10779.0
62888.45729295602,10740.0
62888.46729572596,10789.0
62888.477298495905,10794.0
62888.48730126585,10794.0
62888.49730403579,10805.0
62888.50730680573,10827.0
62888.51730957567,10804.0
62888.52731234561,10812.0
62888.53731511555,10843.0
62888.547317885495,10840.0
62888.55732065543,10848.0
62888.56732342538,10820.0
62888.577326195315,10782.0
62888.58732896526,10807.0
62888.597331735196,10784.0
62888.60733450514,10740.0
62888.61733727508,10725.0
62888.62734004502,10703.0
62888.63734281496,10683.0
62888.647345584905,10670.0
62888.65734835484,10635.0
62888.66735112479,10637.0
62888.67735389473,10618.0
62888.68735666467,10618.0
62888.69735943461,10618.0
62888.70736220455,10619.0
62888.717364974495,10596.0
62888.72736774443,10620.0
62888.73737051438,10611.0
62888.747373284314,10616.0
62888.75737605426,10606.0
62888.767378824195,10604.0
62888.77738159414,10601.0
62888.78738436408,10585.0
62888.79738713402,10581.0
62888.80738990396,10565.0
62888.817392673904,10587.0
62888.82739544384,10614.0
62888.837398213785,10596.0
62888.84740098372,10601.0
62888.85740375367,10590.0
62888.86740652361,10619.0
62888.87740929355,10580.0
62888.887412063494,10580.0
62888.89741483343,10598.0
62888.907417603376,10596.0
62888.91742037331,10609.0
62888.92742314326,10602.0
62888.937425913195,10589.0
62888.94742868314,10575.0
62888.95743145308,10567.0
62888.96743422302,10584.0
62888.97743699296,10588.0
62888.9874397629,10578.0
62888.99744253284,10574.0
62889.007445302785,10605.0
62889.01744807272,10588.0
62889.02745084267,10601.0
62889.037453612604,10619.0
62889.04745638255,10597.0
62889.05745915249,10612.0
62889.06746192243,10607.0
62889.077464692375,10623.0
62889.08746746231,10613.0
62889.09747023226,10643.0
62889.107473002194,10640.0
62889.11747577214,10628.0
62889.127478542076,10656.0
62889.13748131202,10653.0
62889.14748408196,10645.0
62889.1574868519,10631.0
62889.16748962184,10641.0
62889.177492391784,10673.0
62889.18749516172,10662.0
62889.197497931666,10678.0
62889.2075007016,10689.0
62889.21750347155,10686.0
62889.227506241485,10668.0
62889.23750901143,10722.0
62889.24751178137,10695.0
62889.25751455131,10717.0
62889.267517321256,10696.0
62889.27752009119,10693.0
62889.28752286114,10714.0
62889.297525631075,10713.0
62889.30752840102,10722.0
62889.31753117096,10755.0
62889.3275339409,10722.0
62889.33753671084,10746.0
62889.34753948078,10734.0
62889.35754225072,10746.0
62889.367545020665,10758.0
62889.3775477906,10771.0
62889.38755056055,10783.0
62889.397553330484,10788.0
62889.40755610043,10758.0
62889.417558870366,10778.0
62889.42756164031,10722.0
62889.43756441025,10700.0
62889.44756718019,10720.0
62889.45756995014,10657.0
62889.467572720074,10648.0
62889.47757549002,10657.0
62889.487578259956,10614.0
62889.4975810299,10578.0
62889.50758379984,10565.0
62889.51758656978,10539.0
62889.52758933972,10523.0
62889.537592109664,10540.0
62889.5475948796,10518.0
62889.557597649546,10501.0
62889.56760041948,10530.0
62889.57760318943,10494.0
62889.587605959365,10478.0
62889.59760872931,10472.0
62889.60761149925,10462.0
62889.61761426919,10472.0
62889.62761703913,10457.0
62889.63761980907,10459.0
62889.64762257902,10460.0
62889.657625348955,10433.0
62889.6676281189,10447.0
62889.67763088884,10446.0
62889.68763365878,10424.0
62889.69763642872,10437.0
62889.70763919866,10433.0
62889.7176419686,10406.0
62889.727644738545,10456.0
62889.73764750848,10399.0
62889.74765027843,10408.0
62889.757653048364,10433.0
62889.76765581831,10400.0
62889.777658588246,10435.0
62889.78766135819,10404.0
62889.79766412813,10397.0
62889.80766689807,10412.0
62889.81766966801,10426.0
62889.827672437954,10413.0
62889.83767520789,10428.0
62889.847677977836,10397.0
62889.85768074778,10434.0
62889.86768351772,10410.0
62889.87768628766,10394.0
62889.8876890576,10455.0
62889.897691827544,10437.0
62889.90769459748,10438.0
62889.917697367426,10415.0
62889.92770013736,10437.0
62889.93770290731,10455.0
62889.947705677245,10444.0
62889.95770844719,10459.0
62889.96771121713,10444.0
62889.97771398707,10451.0
62889.98771675701,10462.0
62889.99771952695,10488.0
62890.00772229689,10487.0
62890.017725066835,10476.0
62890.02772783677,10476.0
62890.03773060672,10491.0
62890.04773337666,10474.0
62890.0577361466,10504.0
62890.06773891654,10491.0
62890.07774168648,10485.0
62890.087744456425,10495.0
62890.09774722636,10489.0
62890.10774999631,10511.0
62890.117752766244,10527.0
62890.12775553619,10509.0
62890.137758306126,10535.0
62890.14776107607,10523.0
62890.15776384601,10502.0
62890.16776661595,10558.0
62890.17776938589,10520.0
62890.187772155834,10539.0
62890.19777492577,10564.0
62890.207777695716,10550.0
62890.21778046565,10538.0
62890.2277832356,10539.0
62890.23778600554,10551.0
62890.24778877548,10587.0
62890.257791545424,10554.0
62890.26779431536,10544.0
62890.277797085306,10529.0
62890.28779985524,10487.0
62890.29780262519,10481.0
62890.307805395125,10460.0
62890.31780816507,10437.0
62890.32781093501,10393.0
62890.33781370495,10356.0
62890.34781647489,10398.0
62890.35781924483,10358.0
62890.36782201477,10349.0
62890.377824784715,10343.0
62890.38782755465,10320.0
62890.3978303246,10327.0
62890.407833094534,10323.0
62890.41783586448,10313.0
62890.42783863442,10291.0
62890.43784140436,10292.0
62890.447844174305,10281.0
62890.45784694424,10290.0
62890.46784971419,10278.0
62890.477852484124,10278.0
62890.48785525407,10257.0
62890.497858024006,10296.0
62890.50786079395,10269.0
62890.51786356389,10273.0
62890.52786633383,10293.0
62890.53786910377,10253.0
62890.547871873714,10260.0
62890.55787464365,10277.0
62890.567877413596,10296.0
62890.57788018353,10286.0
62890.58788295348,10273.0
62890.597885723415,10263.0
62890.60788849336,10292.0
62890.6178912633,10251.0
62890.62789403324,10285.0
62890.637896803186,10260.0
62890.64789957312,10260.0
62890.65790234307,10280.0
62890.667905113005,10266.0
62890.67790788295,10263.0
62890.68791065289,10287.0
62890.69791342283,10244.0
62890.70791619277,10281.0
62890.71791896271,10286.0
62890.72792173265,10283.0
62890.737924502595,10279.0
62890.74792727253,10285.0
62890.75793004248,10316.0
62890.767932812414,10335.0
62890.77793558236,10301.0
62890.787938352296,10334.0
62890.79794112224,10328.0
62890.80794389218,10328.0
62890.81794666212,10367.0
62890.82794943207,10367.0
62890.837952202004,10348.0
62890.84795497195,10355.0
62890.857957741886,10357.0
62890.86796051183,10369.0
62890.87796328177,10374.0
62890.88796605171,10388.0
62890.89796882165,10361.0
62890.907971591594,10393.0
62890.91797436153,10391.0
62890.927977131476,10420.0
62890.93797990141,10416.0
62890.94798267136,10412.0
62890.957985441295,10418.0
62890.96798821124,10428.0
62890.97799098118,10440.0
62890.98799375112,10445.0
62890.99799652106,10442.0
62891.007999291,10435.0
62891.01800206095,10477.0
62891.028004830885,10437.0
62891.03800760083,10471.0
62891.04801037077,10492.0
62891.05801314071,10484.0
62891.06801591065,10504.0
62891.07801868059,10480.0
62891.08802145053,10475.0
62891.098024220475,10497.0
62891.10802699041,10434.0
62891.11802976036,10436.0
62891.128032530294,10444.0
62891.13803530024,10413.0
62891.148038070176,10381.0
62891.15804084012,10359.0
62891.16804361006,10319.0
62891.17804638,10341.0
62891.18804914994,10278.0
62891.198051919884,10286.0
62891.20805468982,10291.0
62891.218057459766,10274.0
62891.22806022971,10276.0
62891.23806299965,10247.0
62891.24806576959,10250.0
62891.25806853953,10266.0
62891.268071309474,10228.0
62891.27807407941,10239.0
62891.288076849356,10228.0
62891.29807961929,10245.0
62891.30808238924,10233.0
62891.318085159175,10212.0
62891.32808792912,10223.0
62891.33809069906,10202.0
62891.348093469,10218.0
62891.35809623894,10197.0
62891.36809900888,10217.0
62891.37810177882,10213.0
62891.388104548765,10257.0
62891.3981073187,10239.0
62891.40811008865,10224.0
62891.41811285859,10216.0
62891.42811562853,10244.0
62891.43811839847,10238.0
62891.44812116841,10225.0
62891.458123938355,10223.0
62891.46812670829,10212.0
62891.47812947824,10206.0
62891.488132248174,10228.0
62891.49813501812,10251.0
62891.508137788056,10242.0
62891.518140558,10212.0
62891.52814332794,10252.0
62891.53814609788,10285.0
62891.54814886782,10232.0
62891.558151637764,10276.0
62891.5681544077,10278.0
62891.578157177646,10277.0
62891.58815994758,10302.0
62891.59816271753,10274.0
62891.60816548747,10292.0
62891.61816825741,10295.0
62891.628171027354,10282.0
62891.63817379729,10342.0
62891.648176567236,10320.0
62891.65817933717,10339.0
62891.66818210712,10345.0
62891.678184877055,10324.0
62891.688187647,10372.0
62891.69819041694,10338.0
62891.70819318688,10370.0
62891.71819595682,10343.0
62891.72819872676,10372.0
62891.7382014967,10346.0
62891.748204266645,10374.0
62891.75820703658,10378.0
62891.76820980653,10394.0
62891.778212576464,10404.0
62891.78821534641,10386.0
62891.79821811635,10396.0
62891.80822088629,10424.0
62891.818223656235,10438.0
62891.82822642617,10429.0
62891.83822919612,10459.0
62891.848231966054,10455.0
62891.858234736,10484.0
62891.868237505936,10447.0
62891.87824027588,10484.0
62891.88824304582,10479.0
62891.89824581576,10489.0
62891.9082485857,10474.0
62891.918251355644,10489.0
62891.92825412558,10503.0
62891.938256895526,10488.0
62891.94825966546,10571.0
62891.95826243541,10553.0
62891.968265205345,10546.0
62891.97826797529,10565.0
62891.98827074523,10561.0
62891.99827351517,10547.0
62892.008276285116,10544.0
62892.01827905505,10518.0
62892.028281825,10491.0
62892.038284594935,10521.0
62892.04828736488,10455.0
62892.05829013482,10461.0
62892.06829290476,10421.0
62892.0782956747,10384.0
62892.08829844464,10379.0
62892.09830121458,10367.0
62892.108303984525,10362.0
62892.11830675446,10353.0
62892.12830952441,10339.0
62892.138312294344,10332.0
62892.14831506429,10339.0
62892.158317834226,10299.0
62892.16832060417,10287.0
62892.17832337411,10310.0
62892.18832614405,10289.0
62892.198328914,10296.0
62892.208331683934,10294.0
62892.21833445388,10254.0
62892.228337223816,10294.0
62892.23833999376,10261.0
62892.2483427637,10269.0
62892.25834553364,10261.0
62892.26834830358,10258.0
62892.278351073524,10240.0
62892.28835384346,10284.0
62892.298356613406,10277.0
62892.30835938334,10251.0
62892.31836215329,10274.0
62892.328364923225,10280.0
62892.33836769317,10263.0
62892.34837046311,10228.0
62892.35837323305,10255.0
62892.36837600299,10261.0
62892.37837877293,10262.0
62892.38838154288,10263.0
62892.398384312815,10252.0
62892.40838708276,10253.0
62892.4183898527,10264.0
62892.42839262264,10292.0
62892.43839539258,10269.0
62892.44839816252,10270.0
62892.45840093246,10285.0
62892.468403702405,10280.0
62892.47840647234,10323.0
62892.48840924229,10290.0
62892.498412012224,10305.0
62892.50841478217,10310.0
62892.518417552106,10295.0
62892.52842032205,10331.0
62892.53842309199,10328.0
62892.54842586193,10348.0
62892.55842863187,10325.0
62892.568431401814,10360.0
62892.57843417176,10348.0
62892.588436941696,10363.0
62892.59843971164,10355.0
62892.60844248158,10334.0
62892.61844525152,10359.0
62892.62844802146,10369.0
62892.638450791404,10362.0
62892.64845356134,10382.0
62892.658456331286,10407.0
62892.66845910122,10413.0
62892.67846187117,10427.0
62892.688464641105,10413.0
62892.69846741105,10425.0
62892.70847018099,10434.0
62892.71847295093,10419.0
62892.72847572087,10438.0
62892.73847849081,10449.0
62892.74848126075,10478.0
62892.758484030695,10466.0
62892.76848680063,10468.0
62892.77848957058,10480.0
62892.78849234052,10509.0
62892.79849511046,10485.0
62892.8084978804,10530.0
62892.81850065034,10508.0
62892.828503420285,10513.0
62892.83850619022,10541.0
62892.84850896017,10525.0
62892.858511730105,10539.0
62892.86851450005,10564.0
62892.878517269986,10578.0
62892.88852003993,10539.0
62892.89852280987,10572.0
62892.90852557981,10580.0
62892.91852834975,10575.0
62892.928531119695,10599.0
62892.93853388963,10599.0
62892.948536659576,10622.0
62892.95853942951,10626.0
62892.96854219946,10619.0
62892.9785449694,10631.0
62892.98854773934,10621.0
62892.998550509285,10623.0
62893.00855327922,10619.0
62893.01855604917,10631.0
62893.0285588191,10584.0
62893.03856158905,10576.0
62893.048564358985,10533.0
62893.05856712893,10527.0
62893.06856989887,10495.0
62893.07857266881,10467.0
62893.08857543875,10474.0
62893.098578208694,10428.0
62893.10858097863,10453.0
62893.118583748575,10457.0
62893.12858651851,10419.0
62893.13858928846,10439.0
62893.148592058395,10406.0
62893.15859482834,10393.0
62893.168597598284,10408.0
62893.17860036822,10383.0
62893.188603138165,10390.0
62893.1986059081,10422.0
62893.20860867805,10380.0
62893.218611447985,10398.0
62893.22861421793,10370.0
62893.23861698787,10353.0
62893.24861975781,10392.0
62893.25862252775,10377.0
62893.26862529769,10366.0
62893.27862806763,10360.0
62893.288630837575,10368.0
62893.29863360751,10352.0
62893.30863637746,10375.0
62893.318639147394,10365.0
62893.32864191734,10364.0
62893.338644687276,10354.0
62893.34864745722,10370.0
62893.35865022716,10376.0
62893.3686529971,10376.0
62893.37865576705,10379.0
62893.388658536984,10379.0
62893.39866130693,10391.0
62893.408664076866,10366.0
62893.41866684681,10380.0
62893.42866961675,10379.0
62893.43867238669,10365.0
62893.44867515663,10398.0
62893.458677926574,10372.0
62893.46868069651,10406.0
62893.478683466456,10422.0
62893.48868623639,10416.0
62893.49868900634,10449.0
62893.508691776275,10420.0
62893.51869454622,10399.0
62893.52869731616,10453.0
62893.5387000861,10423.0
62893.54870285604,10441.0
62893.55870562598,10468.0
62893.56870839593,10446.0
62893.578711165865,10482.0
62893.58871393581,10472.0
62893.59871670575,10472.0
62893.60871947569,10491.0
62893.61872224563,10477.0
62893.62872501557,10485.0
62893.63872778551,10493.0
62893.648730555455,10492.0
62893.65873332539,10500.0
62893.66873609534,10512.0
62893.678738865274,10519.0
62893.68874163522,10508.0
62893.698744405156,10511.0
62893.7087471751,10533.0
62893.71874994504,10576.0
62893.72875271498,10541.0
62893.73875548492,10560.0
62893.748758254864,10559.0
62893.75876102481,10567.0
62893.768763794746,10589.0
62893.77876656469,10572.0
62893.78876933463,10584.0
62893.79877210457,10612.0
62893.80877487451,10601.0
62893.818777644454,10588.0
62893.82878041439,10608.0
62893.838783184336,10624.0
62893.84878595427,10630.0
62893.85878872422,10635.0
62893.868791494155,10641.0
62893.8787942641,10641.0
62893.88879703404,10658.0
62893.89879980398,10636.0
62893.90880257392,10666.0
62893.91880534386,10661.0
62893.9288081138,10683.0
62893.938810883745,10700.0
62893.94881365369,10684.0
62893.95881642363,10705.0
62893.96881919357,10727.0
62893.97882196351,10696.0
62893.98882473345,10712.0
62893.99882750339,10740.0
62894.008830273335,10684.0
62894.01883304327,10722.0
62894.02883581322,10660.0
62894.038838583154,10683.0
62894.0488413531,10642.0
62894.058844123036,10609.0
62894.06884689298,10634.0
62894.07884966292,10642.0
62894.08885243286,10587.0
62894.0988552028,10578.0
62894.108857972744,10555.0
62894.11886074268,10548.0
62894.128863512626,10532.0
62894.13886628256,10523.0
62894.14886905251,10506.0
62894.15887182245,10529.0
62894.16887459239,10541.0
62894.178877362334,10545.0
62894.18888013227,10516.0
62894.198882902216,10512.0
62894.20888567215,10500.0
62894.2188884421,10506.0
62894.228891212035,10513.0
62894.23889398198,10503.0
62894.24889675192,10482.0
62894.25889952186,10493.0
62894.2689022918,10516.0
62894.27890506174,10506.0
62894.28890783168,10518.0
62894.298910601625,10506.0
62894.30891337156,10507.0
62894.31891614151,10508.0
62894.328918911444,10508.0
62894.33892168139,10505.0
62894.34892445133,10515.0
62894.35892722127,10496.0
62894.368929991215,10464.0
62894.37893276115,10509.0
62894.3889355311,10474.0
62894.398938301034,10493.0
62894.40894107098,10519.0
62894.418943840916,10501.0
62894.42894661086,10513.0
62894.4389493808,10505.0
62894.44895215074,10506.0
62894.45895492068,10521.0
62894.468957690624,10519.0
62894.47896046056,10524.0
62894.488963230506,10534.0
62894.49896600044,10528.0
62894.50896877039,10520.0
62894.518971540325,10549.0
62894.52897431027,10562.0
62894.538977080214,10551.0
62894.54897985015,10556.0
62894.558982620096,10570.0
62894.56898539003,10575.0
62894.57898815998,10574.0
62894.588990929915,10560.0
62894.59899369986,10578.0
62894.6089964698,10607.0
62894.61899923974,10589.0
62894.62900200968,10574.0
62894.63900477962,10611.0
62894.64900754956,10616.0
62894.659010319505,10612.0
62894.66901308944,10605.0
62894.67901585939,10617.0
62894.689018629324,10612.0
62894.69902139927,10615.0
62894.709024169206,10652.0
62894.71902693915,10652.0
62894.72902970909,10627.0
62894.73903247903,10647.0
62894.74903524898,10645.0
62894.759038018914,10662.0
62894.76904078886,10667.0
62894.779043558796,10693.0
62894.78904632874,10695.0
62894.79904909868,10690.0
62894.80905186862,10692.0
62894.81905463856,10694.0
62894.829057408504,10686.0
62894.83906017844,10711.0
62894.849062948386,10701.0
62894.85906571832,10724.0
62894.86906848827,10737.0
62894.879071258205,10747.0
62894.88907402815,10757.0
62894.89907679809,10773.0
62894.90907956803,10744.0
62894.91908233797,10745.0
62894.92908510791,10752.0
62894.93908787786,10723.0
62894.949090647795,10709.0
62894.95909341774,10682.0
62894.96909618768,10680.0
62894.97909895762,10634.0
62894.98910172756,10627.0
62894.9991044975,10634.0
62895.00910726744,10602.0
62895.019110037385,10617.0
62895.02911280732,10618.0
62895.03911557727,10571.0
62895.049118347204,10582.0
62895.05912111715,10579.0
62895.069123887086,10552.0
62895.07912665703,10561.0
62895.08912942697,10553.0
62895.09913219691,10545.0
62895.10913496685,10575.0
62895.119137736794,10577.0
62895.12914050674,10555.0
62895.139143276676,10538.0
62895.14914604662,10549.0
62895.15914881656,10540.0
62895.1691515865,10556.0
62895.17915435644,10535.0
62895.189157126384,10542.0
62895.19915989632,10530.0
62895.209162666266,10548.0
62895.2191654362,10576.0
62895.22916820615,10540.0
62895.239170976085,10579.0
62895.24917374603,10547.0
62895.25917651597,10540.0
62895.26917928591,10560.0
62895.27918205585,10501.0
62895.28918482579,10549.0
62895.29918759573,10541.0
62895.309190365675,10547.0
62895.31919313562,10551.0
62895.32919590556,10548.0
62895.3391986755,10550.0
62895.34920144544,10543.0
62895.35920421538,10531.0
62895.36920698532,10562.0
62895.379209755265,10559.0
62895.3892125252,10591.0
62895.39921529515,10581.0
62895.409218065084,10583.0
62895.41922083503,10580.0
62895.429223604966,10576.0
62895.43922637491,10594.0
62895.44922914485,10608.0
62895.45923191479,10595.0
62895.46923468473,10634.0
62895.479237454674,10646.0
62895.48924022461,10631.0
62895.499242994556,10637.0
62895.50924576449,10634.0
62895.51924853444,10614.0
62895.52925130438,10644.0
62895.53925407432,10660.0
62895.549256844264,10670.0
62895.5592596142,10682.0
62895.569262384146,10662.0
62895.57926515408,10670.0
62895.58926792403,10670.0
62895.599270693965,10667.0
62895.60927346391,10689.0
62895.61927623385,10670.0
62895.62927900379,10670.0
62895.63928177373,10683.0
62895.64928454367,10707.0
62895.65928731361,10693.0
62895.669290083555,10736.0
62895.67929285349,10704.0
62895.68929562344,10739.0
62895.699298393374,10725.0
62895.70930116332,10725.0
62895.71930393326,10734.0
62895.7293067032,10750.0
62895.739309473145,10760.0
62895.74931224308,10735.0
62895.75931501303,10780.0
62895.769317782964,10755.0
62895.77932055291,10744.0
62895.789323322846,10729.0
62895.79932609279,10703.0
62895.80932886273,10720.0
62895.81933163267,10687.0
62895.82933440261,10683.0
62895.839337172554,10661.0
62895.84933994249,10630.0
62895.859342712436,10634.0
62895.86934548237,10615.0
62895.87934825232,10610.0
62895.889351022255,10612.0
62895.8993537922,10581.0
62895.909356562144,10610.0
62895.91935933208,10554.0
62895.929362102026,10557.0
62895.93936487196,10567.0
62895.94936764191,10580.0
62895.959370411845,10548.0
62895.96937318179,10578.0
62895.97937595173,10546.0
62895.98937872167,10510.0
62895.99938149161,10538.0
62896.00938426155,10553.0
62896.01938703149,10535.0
62896.029389801435,10518.0
62896.03939257137,10529.0
62896.04939534132,10513.0
62896.059398111254,10540.0
62896.0694008812,10518.0
62896.079403651136,10555.0
62896.08940642108,10515.0
62896.09940919102,10544.0
62896.10941196096,10538.0
62896.11941473091,10545.0
62896.129417500844,10528.0
62896.13942027079,10542.0
62896.149423040726,10549.0
62896.15942581067,10545.0
62896.16942858061,10536.0
62896.17943135055,10537.0
62896.18943412049,10554.0
62896.199436890434,10524.0
62896.20943966037,10527.0
62896.219442430316,10543.0
62896.22944520025,10538.0
62896.2394479702,10572.0
62896.249450740135,10578.0
62896.25945351008,10557.0
62896.26945628002,10544.0
62896.27945904996,10606.0
62896.2894618199,10557.0
62896.29946458984,10572.0
62896.30946735979,10613.0
62896.319470129725,10578.0
62896.32947289967,10605.0
62896.33947566961,10577.0
62896.34947843955,10586.0
62896.35948120949,10651.0
62896.36948397943,10624.0
62896.37948674937,10633.0
62896.389489519315,10609.0
62896.39949228925,10628.0
62896.4094950592,10626.0
62896.419497829134,10643.0
62896.42950059908,10636.0
62896.439503369016,10641.0
62896.44950613896,10630.0
62896.4595089089,10676.0
62896.46951167884,10722.0
62896.47951444878,10675.0
62896.489517218724,10695.0
62896.49951998867,10692.0
62896.509522758606,10699.0
62896.51952552855,10712.0
62896.52952829849,10730.0
62896.53953106843,10728.0
62896.54953383837,10701.0
62896.559536608314,10722.0
62896.56953937825,10733.0
62896.579542148196,10742.0
62896.58954491813,10774.0
62896.59954768808,10745.0
62896.609550458015,10759.0
62896.61955322796,10767.0
62896.6295559979,10764.0
62896.63955876784,10790.0
62896.64956153778,10770.0
62896.65956430772,10799.0
62896.66956707766,10788.0
62896.679569847605,10790.0
62896.68957261755,10817.0
62896.69957538749,10773.0
62896.70957815743,10755.0
62896.71958092737,10783.0
62896.72958369731,10744.0
62896.73958646725,10726.0
62896.749589237195,10672.0
62896.75959200713,10647.0
62896.76959477708,10661.0
62896.779597547014,10596.0
62896.78960031696,10621.0
62896.799603086896,10615.0
62896.80960585684,10560.0
62896.81960862678,10605.0
62896.82961139672,10565.0
62896.83961416666,10563.0
62896.849616936604,10551.0
62896.85961970654,10529.0
62896.869622476486,10545.0
62896.87962524642,10524.0
62896.88962801637,10505.0
62896.89963078631,10507.0
62896.90963355625,10502.0
62896.919636326194,10472.0
62896.92963909613,10486.0
62896.939641866076,10506.0
62896.94964463601,10488.0
62896.95964740596,10483.0
62896.969650175895,10475.0
62896.97965294584,10483.0
62896.98965571578,10481.0
62896.99965848572,10511.0
62897.00966125566,10451.0
62897.0196640256,10496.0
62897.02966679554,10477.0
62897.039669565485,10471.0
62897.04967233542,10491.0
62897.05967510537,10472.0
62897.069677875304,10475.0
62897.07968064525,10505.0
62897.08968341519,10452.0
62897.09968618513,10489.0
62897.109688955075,10466.0
62897.11969172501,10478.0
62897.12969449496,10451.0
62897.139697264894,10471.0
62897.14970003484,10483.0
62897.159702804776,10496.0
62897.16970557472,10498.0
62897.17970834466,10525.0
62897.1897111146,10501.0
62897.19971388454,10485.0
62897.209716654485,10542.0
62897.21971942442,10519.0
62897.229722194366,10520.0
62897.2397249643,10554.0
62897.24972773425,10518.0
62897.259730504185,10563.0
62897.26973327413,10559.0
62897.279736044075,10549.0
62897.28973881401,10581.0
62897.299741583956,10544.0
62897.30974435389,10561.0
62897.31974712384,10584.0
62897.329749893775,10576.0
62897.33975266372,10574.0
62897.34975543366,10587.0
62897.3597582036,10580.0
62897.36976097354,10613.0
62897.37976374348,10591.0
62897.38976651342,10618.0
62897.399769283365,10589.0
62897.4097720533,10624.0
62897.41977482325,10625.0
62897.429777593185,10638.0
62897.43978036313,10639.0
62897.44978313307,10638.0
62897.45978590301,10646.0
62897.46978867295,10659.0
62897.47979144289,10655.0
62897.48979421284,10658.0
62897.499796982775,10700.0
62897.50979975272,10692.0
62897.51980252266,10686.0
62897.5298052926,10670.0
62897.53980806254,10690.0
62897.54981083248,10707.0
62897.55981360242,10712.0
62897.569816372365,10724.0
62897.5798191423,10700.0
62897.58982191225,10742.0
62897.599824682184,10757.0
62897.60982745213,10738.0
62897.619830222066,10737.0
62897.62983299201,10763.0
62897.63983576195,10779.0
62897.64983853189,10789.0
62897.65984130183,10783.0
62897.669844071774,10797.0
62897.67984684172,10810.0
62897.689849611656,10789.0
62897.6998523816,10820.0
62897.70985515154,10817.0
62897.71985792148,10822.0
62897.72986069142,10788.0
62897.739863461364,10794.0
62897.7498662313,10788.0
62897.759869001246,10737.0
62897.76987177118,10681.0
62897.77987454113,10698.0
62897.789877311065,10639.0
62897.79988008101,10666.0
62897.80988285095,10614.0
62897.81988562089,10577.0
62897.82988839083,10553.0
62897.83989116077,10553.0
62897.84989393071,10553.0
62897.859896700655,10549.0
62897.8698994706,10527.0
62897.87990224054,10527.0
62897.88990501048,10510.0
62897.89990778042,10524.0
62897.90991055036,10503.0
62897.9199133203,10493.0
62897.929916090245,10505.0
62897.93991886018,10459.0
62897.94992163013,10481.0
62897.959924400064,10449.0
62897.96992717001,10500.0
62897.979929939946,10465.0
62897.98993270989,10459.0
62897.99993547983,10451.0
62898.00993824977,10460.0
62898.01994101971,10443.0
62898.029943789654,10464.0
62898.03994655959,10450.0
62898.049949329536,10481.0
62898.05995209948,10436.0
62898.06995486942,10463.0
62898.07995763936,10437.0
62898.0899604093,10460.0
62898.099963179244,10458.0
62898.10996594918,10450.0
62898.119968719126,10434.0
62898.12997148906,10418.0
62898.13997425901,10473.0
62898.149977028945,10449.0
62898.15997979889,10450.0
62898.16998256883,10455.0
62898.17998533877,10442.0
62898.18998810871,10451.0
62898.19999087865,10487.0
62898.20999364859,10446.0
62898.219996418535,10495.0
62898.22999918847,10502.0
62898.24000195842,10482.0
62898.250004728354,10468.0
62898.2600074983,10483.0
62898.27001026824,10512.0
62898.28001303818,10500.0
62898.290015808125,10471.0
62898.30001857806,10517.0
62898.31002134801,10493.0
62898.320024117944,10525.0
62898.33002688789,10559.0
62898.340029657826,10528.0
62898.35003242777,10534.0
62898.36003519771,10552.0
62898.37003796765,10552.0
62898.38004073759,10541.0
62898.390043507534,10576.0
62898.40004627747,10568.0
62898.410049047416,10539.0
62898.42005181735,10569.0
62898.4300545873,10571.0
62898.440057357235,10593.0
62898.45006012718,10582.0
62898.460062897124,10599.0
62898.47006566706,10622.0
62898.480068437006,10614.0
62898.49007120694,10602.0
62898.50007397689,10624.0
62898.510076746825,10611.0
62898.52007951677,10641.0
62898.53008228671,10642.0
62898.54008505665,10647.0
62898.55008782659,10644.0
62898.56009059653,10669.0
62898.57009336647,10682.0
62898.580096136415,10693.0
62898.59009890635,10683.0
62898.6001016763,10723.0
62898.610104446234,10706.0
62898.62010721618,10702.0
62898.630109986116,10697.0
62898.64011275606,10706.0
62898.650115526005,10714.0
62898.66011829594,10717.0
62898.67012106589,10711.0
62898.680123835824,10743.0
62898.69012660577,10753.0
62898.700129375706,10747.0
62898.71013214565,10752.0
62898.72013491559,10747.0
62898.73013768553,10793.0
62898.74014045547,10791.0
62898.750143225414,10768.0
62898.76014599535,10774.0
62898.770148765296,10791.0
62898.78015153523,10802.0
62898.79015430518,10782.0
62898.800157075115,10776.0
62898.81015984506,10751.0
62898.820162615,10744.0
62898.83016538494,10689.0
62898.84016815488,10672.0
62898.85017092482,10670.0
62898.86017369477,10634.0
62898.870176464705,10605.0
62898.88017923465,10614.0
62898.89018200459,10588.0
62898.90018477453,10600.0
62898.91018754447,10559.0
62898.92019031441,10589.0
62898.93019308435,10556.0
62898.940195854295,10567.0
62898.95019862423,10535.0
62898.96020139418,10544.0
62898.970204164114,10529.0
62898.98020693406,10552.0
62898.990209703996,10496.0
62899.00021247394,10484.0
62899.01021524388,10513.0
62899.02021801382,10511.0
62899.03022078376,10511.0
62899.040223553704,10486.0
62899.05022632365,10505.0
62899.060229093586,10504.0
62899.07023186353,10524.0
62899.08023463347,10520.0
62899.09023740341,10503.0
62899.10024017335,10494.0
62899.110242943294,10504.0
62899.12024571323,10526.0
62899.130248483176,10482.0
62899.14025125311,10507.0
62899.15025402306,10519.0
62899.160256792995,10513.0
62899.17025956294,10507.0
62899.18026233288,10526.0
62899.19026510282,10490.0
62899.20026787276,10518.0
62899.2102706427,10503.0
62899.22027341264,10509.0
62899.230276182585,10532.0
62899.24027895253,10536.0
62899.25028172247,10527.0
62899.26028449241,10554.0
62899.27028726235,10530.0
62899.28029003229,10561.0
62899.29029280223,10537.0
62899.300295572175,10533.0
62899.31029834211,10569.0
62899.32030111206,10554.0
62899.330303881994,10559.0
62899.34030665194,10585.0
62899.350309421876,10589.0
62899.36031219182,10584.0
62899.37031496176,10589.0
62899.3803177317,10595.0
62899.39032050164,10591.0
62899.400323271584,10635.0
62899.41032604152,10612.0
62899.420328811466,10613.0
62899.43033158141,10644.0
62899.44033435135,10608.0
62899.45033712129,10633.0
62899.46033989123,10619.0
62899.470342661174,10668.0
62899.48034543111,10643.0
62899.490348201056,10643.0
62899.50035097099,10646.0
62899.51035374094,10679.0
62899.520356510875,10674.0
62899.53035928082,10684.0
62899.54036205076,10700.0
62899.5503648207,10669.0
62899.56036759064,10680.0
62899.57037036058,10681.0
62899.58037313052,10725.0
62899.590375900465,10719.0
62899.6003786704,10705.0
62899.61038144035,10726.0
62899.620384210284,10733.0
62899.63038698023,10717.0
62899.64038975017,10775.0
62899.65039252011,10740.0
62899.660395290055,10756.0
62899.67039805999,10783.0
62899.68040082994,10771.0
62899.690403599874,10808.0
62899.70040636982,10788.0
62899.710409139756,10798.0
62899.7204119097,10799.0
62899.73041467964,10804.0
62899.74041744958,10816.0
62899.75042021952,10833.0
62899.760422989464,10823.0
62899.7704257594,10848.0
62899.780428529346,10846.0
62899.79043129928,10862.0
62899.80043406923,10866.0
62899.810436839165,10831.0
62899.82043960911,10830.0
62899.830442379054,10819.0
62899.84044514899,10799.0
62899.850447918936,10748.0
62899.86045068887,10735.0
62899.87045345882,10732.0
62899.880456228755,10680.0
62899.8904589987,10693.0
62899.90046176864,10660.0
62899.91046453858,10632.0
62899.92046730852,10648.0
62899.93047007846,10652.0
62899.9404728484,10632.0
62899.950475618345,10654.0
62899.96047838828,10625.0
62899.97048115823,10639.0
62899.980483928164,10616.0
62899.99048669811,10596.0
62900.000489468046,10628.0
62900.01049223799,10577.0
62900.020495007935,10592.0
62900.03049777787,10603.0
62900.04050054782,10605.0
62900.050503317754,10609.0
62900.0605060877,10585.0
62900.070508857636,10580.0
62900.08051162758,10619.0
62900.09051439752,10595.0
62900.10051716746,10594.0
62900.1105199374,10588.0
62900.120522707344,10591.0
62900.13052547728,10601.0
62900.140528247226,10604.0
62900.15053101716,10579.0
62900.16053378711,10596.0
62900.170536557045,10578.0
62900.18053932699,10591.0
62900.19054209693,10597.0
62900.20054486687,10598.0
62900.21054763681,10589.0
62900.22055040675,10590.0
62900.2305531767,10599.0
62900.240555946635,10614.0
62900.25055871658,10590.0
62900.26056148652,10599.0
62900.27056425646,10597.0
62900.2805670264,10613.0
62900.29056979634,10605.0
62900.30057256628,10618.0
62900.310575336225,10659.0
62900.32057810616,10620.0
62900.33058087611,10658.0
62900.340583646044,10653.0
62900.35058641599,10656.0
62900.360589185926,10667.0
62900.37059195587,10650.0
62900.38059472581,10659.0
62900.39059749575,10664.0
62900.40060026569,10658.0
62900.410603035634,10675.0
62900.42060580558,10688.0
62900.430608575516,10680.0
62900.44061134546,10698.0
62900.4506141154,10700.0
62900.46061688534,10703.0
62900.47061965528,10723.0
62900.480622425224,10711.0
62900.49062519516,10732.0
62900.500627965106,10709.0
62900.51063073504,10747.0
62900.52063350499,10760.0
62900.530636274925,10737.0
62900.54063904487,10766.0
62900.55064181481,10764.0
62900.56064458475,10752.0
62900.57064735469,10803.0
62900.58065012463,10763.0
62900.59065289457,10796.0
62900.600655664515,10804.0
62900.61065843446,10798.0
62900.6206612044,10810.0
62900.63066397434,10813.0
62900.64066674428,10800.0
62900.65066951422,10832.0
62900.66067228416,10829.0
62900.670675054105,10839.0
62900.68067782404,10838.0
62900.69068059399,10850.0
62900.700683363924,10845.0
62900.71068613387,10840.0
62900.720688903806,10896.0
62900.73069167375,10874.0
62900.74069444369,10859.0
62900.75069721363,10894.0
62900.76069998357,10933.0
62900.770702753514,10912.0
62900.78070552345,10925.0
62900.790708293396,10912.0
62900.80071106334,10939.0
62900.81071383328,10904.0
62900.82071660322,10928.0
62900.83071937316,10912.0
62900.840722143104,10864.0
62900.85072491304,10854.0
62900.860727682986,10856.0
62900.87073045292,10812.0
62900.88073322287,10837.0
62900.890735992805,10786.0
62900.90073876275,10782.0
62900.91074153269,10753.0
62900.92074430263,10730.0
62900.93074707257,10734.0
62900.94074984251,10694.0
62900.95075261245,10721.0
62900.960755382395,10743.0
62900.97075815233,10685.0
62900.98076092228,10726.0
62900.990763692214,10717.0
62901.00076646216,10677.0
62901.0107692321,10714.0
62901.02077200204,10715.0
62901.030774771985,10698.0
62901.04077754192,10688.0
62901.05078031187,10675.0
62901.060783081804,10698.0
62901.07078585175,10693.0
62901.080788621686,10691.0
62901.09079139163,10686.0
62901.10079416157,10691.0
62901.11079693151,10699.0
62901.12079970145,10679.0
62901.130802471394,10701.0
62901.14080524133,10713.0
62901.150808011276,10690.0
62901.16081078121,10692.0
62901.17081355116,10691.0
62901.180816321095,10691.0
62901.19081909104,10681.0
62901.200821860984,10685.0
62901.21082463092,10672.0
62901.220827400866,10686.0
62901.2308301708,10697.0
62901.24083294075,10691.0
62901.250835710685,10685.0
62901.26083848063,10695.0
62901.27084125057,10705.0
62901.28084402051,10702.0
62901.29084679045,10713.0
62901.30084956039,10717.0
62901.31085233033,10722.0
62901.320855100275,10727.0
62901.33085787021,10729.0
62901.34086064016,10738.0
62901.350863410094,10739.0
62901.36086618004,10745.0
62901.370868949976,10768.0
62901.38087171992,10742.0
62901.390874489865,10756.0
62901.4008772598,10768.0
62901.41088002975,10759.0
62901.420882799684,10764.0
62901.43088556963,10753.0
62901.440888339566,10798.0
62901.45089110951,10820.0
62901.46089387945,10783.0
62901.47089664939,10801.0
62901.48089941933,10811.0
62901.490902189274,10816.0
62901.50090495921,10821.0
62901.510907729156,10792.0
62901.52091049909,10797.0
62901.53091326904,10816.0
62901.540916038975,10797.0
62901.55091880892,10858.0
62901.56092157886,10840.0
62901.5709243488,10810.0
62901.58092711874,10868.0
62901.59092988868,10855.0
62901.60093265863,10857.0
62901.610935428565,10881.0
62901.62093819851,10881.0
62901.63094096845,10861.0
62901.64094373839,10880.0
62901.65094650833,10873.0
62901.66094927827,10891.0
62901.67095204821,10884.0
62901.680954818155,10895.0
62901.69095758809,10925.0
62901.70096035804,10927.0
62901.710963127975,10917.0
62901.72096589792,10920.0
62901.730968667856,10955.0
62901.7409714378,10944.0
62901.75097420774,10931.0
62901.76097697768,10956.0
62901.77097974762,10974.0
62901.780982517565,10935.0
62901.79098528751,10988.0
62901.80098805745,10974.0
62901.81099082739,10993.0
62901.82099359733,10939.0
62901.83099636727,10968.0
62901.84099913721,10934.0
62901.851001907155,10898.0
62901.86100467709,10907.0
62901.87100744704,10900.0
62901.881010216974,10851.0
62901.89101298692,10824.0
62901.901015756855,10810.0
62901.9110185268,10837.0
62901.92102129674,10819.0
62901.93102406668,10767.0
62901.94102683662,10790.0
62901.951029606564,10782.0
62901.9610323765,10764.0
62901.971035146446,10777.0
62901.98103791639,10734.0
62901.99104068633,10741.0
62902.00104345627,10758.0
62902.01104622621,10741.0
62902.021048996154,10766.0
62902.03105176609,10766.0
62902.041054536036,10745.0
62902.05105730597,10749.0
62902.06106007592,10743.0
62902.071062845855,10774.0
62902.0810656158,10764.0
62902.09106838574,10783.0
62902.10107115568,10755.0
62902.11107392562,10745.0
62902.12107669556,10748.0
62902.1310794655,10744.0
62902.141082235445,10738.0
62902.15108500538,10739.0
62902.16108777533,10732.0
62902.17109054527,10756.0
62902.18109331521,10732.0
62902.19109608515,10718.0
62902.20109885509,10737.0
62902.211101625035,10720.0
62902.22110439497,10715.0
62902.23110716492,10734.0
62902.241109934854,10738.0
62902.2511127048,10732.0
62902.261115474736,10765.0
62902.27111824468,10726.0
62902.28112101462,10749.0
62902.29112378456,10756.0
62902.3011265545,10752.0
62902.311129324444,10739.0
62902.32113209438,10728.0
62902.331134864326,10790.0
62902.34113763426,10759.0
62902.35114040421,10771.0
62902.361143174145,10759.0
62902.37114594409,10812.0
62902.381148714034,10795.0
62902.39115148397,10781.0
62902.401154253916,10777.0
62902.41115702385,10807.0
62902.4211597938,10800.0
62902.431162563735,10818.0
62902.44116533368,10825.0
62902.45116810362,10824.0
62902.46117087356,10795.0
62902.4711736435,10854.0
62902.48117641344,10817.0
62902.49117918338,10838.0
62902.501181953325,10842.0
62902.51118472326,10875.0
62902.52118749321,10857.0
62902.531190263144,10859.0
62902.54119303309,10852.0
62902.551195803026,10868.0
62902.56119857297,10847.0
62902.571201342915,10871.0
62902.58120411285,10861.0
62902.5912068828,10889.0
62902.601209652734,10900.0
62902.61121242268,10887.0
62902.621215192616,10924.0
62902.63121796256,10913.0
62902.6412207325,10913.0
62902.65122350244,10910.0
62902.66122627238,10894.0
62902.671229042324,10904.0
62902.68123181226,10925.0
62902.691234582206,10924.0
62902.70123735214,10900.0
62902.71124012209,10876.0
62902.721242892025,10920.0
62902.73124566197,10848.0
62902.74124843191,10836.0
62902.75125120185,10801.0
62902.761253971796,10790.0
62902.77125674173,10776.0
62902.78125951168,10739.0
62902.791262281615,10728.0
62902.80126505156,10763.0
62902.8112678215,10728.0
62902.82127059144,10704.0
62902.83127336138,10720.0
62902.84127613132,10705.0
62902.85127890126,10712.0
62902.861281671205,10714.0
62902.87128444114,10697.0
62902.88128721109,10712.0
62902.891289981024,10701.0
62902.90129275097,10713.0
62902.911295520906,10721.0
62902.92129829085,10696.0
62902.93130106079,10703.0
62902.94130383073,10672.0
62902.95130660067,10700.0
62902.961309370614,10728.0
62902.97131214056,10703.0
62902.981314910496,10705.0
62902.99131768044,10719.0
62903.00132045038,10680.0
62903.01132322032,10701.0
62903.02132599026,10712.0
62903.031328760204,10694.0
62903.04133153014,10682.0
62903.051334300086,10688.0
62903.06133707002,10691.0
62903.07133983997,10676.0
62903.081342609905,10708.0
62903.09134537985,10689.0
62903.10134814979,10699.0
62903.11135091973,10712.0
62903.12135368967,10678.0
62903.13135645961,10705.0
62903.14135922955,10683.0
62903.151361999495,10700.0
62903.16136476944,10729.0
62903.17136753938,10711.0
62903.18137030932,10706.0
62903.19137307926,10724.0
62903.2013758492,10718.0
62903.21137861914,10731.0
62903.221381389085,10725.0
62903.23138415902,10707.0
62903.24138692897,10729.0
62903.251389698904,10746.0
62903.26139246885,10777.0
62903.271395238786,10781.0
62903.28139800873,10784.0
62903.29140077867,10794.0
62903.30140354861,10772.0
62903.31140631855,10772.0
62903.321409088494,10808.0
62903.33141185843,10754.0
62903.341414628376,10795.0
62903.35141739832,10805.0
62903.36142016826,10805.0
62903.3714229382,10833.0
62903.38142570814,10820.0
62903.391428478084,10792.0
62903.40143124802,10835.0
62903.411434017966,10816.0
62903.4214367879,10825.0
62903.43143955785,10831.0
62903.441442327785,10844.0
62903.45144509773,10870.0
62903.46144786767,10856.0
62903.47145063761,10835.0
62903.48145340755,10878.0
62903.49145617749,10853.0
62903.50145894743,10879.0
62903.511461717375,10885.0
62903.52146448731,10886.0
62903.53146725726,10877.0
62903.5414700272,10906.0
62903.55147279714,10914.0
62903.56147556708,10920.0
62903.57147833702,10862.0
62903.581481106965,10866.0
62903.5914838769,10843.0
62903.60148664685,10804.0
62903.611489416784,10804.0
62903.62149218673,10762.0
62903.631494956666,10786.0
62903.64149772661,10725.0
62903.65150049655,10719.0
62903.66150326649,10694.0
62903.67150603643,10684.0
62903.681508806374,10662.0
62903.69151157631,10646.0
62903.701514346256,10642.0
62903.71151711619,10632.0
62903.72151988614,10639.0
62903.731522656075,10650.0
62903.74152542602,10634.0
62903.751528195964,10601.0
62903.7615309659,10620.0
62903.771533735846,10586.0
62903.78153650578,10587.0
62903.79153927573,10599.0
62903.801542045665,10584.0
62903.81154481561,10577.0
62903.82154758555,10588.0
62903.83155035549,10574.0
62903.84155312543,10615.0
62903.85155589537,10570.0
62903.86155866531,10590.0
62903.871561435255,10597.0
62903.88156420519,10564.0
62903.89156697514,10589.0
62903.901569745074,10581.0
62903.91157251502,10563.0
62903.921575284956,10588.0
62903.9315780549,10577.0
62903.941580824845,10572.0
62903.95158359478,10547.0
62903.96158636473,10554.0
62903.971589134664,10586.0
62903.98159190461,10572.0
62903.991594674546,10565.0
62904.00159744449,10579.0
62904.01160021443,10563.0
62904.02160298437,10577.0
62904.03160575431,10567.0
62904.041608524254,10596.0
62904.05161129419,10568.0
62904.061614064136,10586.0
62904.07161683407,10585.0
62904.08161960402,10574.0
62904.091622373955,10603.0
62904.1016251439,10606.0
62904.11162791384,10607.0
62904.12163068378,10624.0
62904.131633453726,10604.0
62904.14163622366,10620.0
62904.15163899361,10644.0
62904.161641763545,10612.0
62904.17164453349,10632.0
62904.18164730343,10651.0
62904.19165007337,10682.0
62904.20165284331,10647.0
62904.21165561325,10644.0
62904.22165838319,10653.0
62904.231661153135,10669.0
62904.24166392307,10655.0
62904.25166669302,10705.0
62904.261669462954,10670.0
62904.2716722329,10680.0
62904.281675002836,10667.0
62904.29167777278,10693.0
62904.30168054272,10715.0
62904.31168331266,10726.0
62904.32168608261,10691.0
62904.331688852544,10728.0
62904.34169162249,10717.0
62904.351694392426,10732.0
62904.36169716237,10741.0
62904.37169993231,10713.0
62904.38170270225,10725.0
62904.39170547219,10750.0
62904.401708242134,10758.0
62904.41171101207,10804.0
62904.421713782016,10753.0
62904.43171655195,10782.0
62904.4417193219,10793.0
62904.451722091835,10798.0
62904.46172486178,10818.0
62904.47172763172,10798.0
62904.48173040166,10776.0
62904.4917331716,10831.0
62904.50173594154,10801.0
62904.51173871148,10827.0
62904.521741481425,10838.0
62904.53174425137,10802.0
62904.54174702131,10802.0
62904.55174979125,10769.0
62904.56175256119,10748.0
62904.57175533113,10746.0
62904.58175810107,10677.0
62904.591760871015,10665.0
62904.60176364095,10653.0
62904.6117664109,10609.0
62904.621769180834,10615.0
62904.63177195078,10592.0
62904.641774720716,10577.0
62904.65177749066,10590.0
62904.6617802606,10577.0
62904.67178303054,10567.0
62904.68178580048,10535.0
62904.691788570424,10538.0
62904.70179134036,10532.0
62904.711794110306,10534.0
62904.72179688025,10519.0
62904.73179965019,10494.0
62904.74180242013,10514.0
62904.75180519007,10506.0
62904.761807960014,10514.0
62904.77181072995,10530.0
62904.781813499896,10487.0
62904.79181626983,10503.0
62904.80181903978,10527.0
62904.811821809715,10493.0
62904.82182457966,10501.0
62904.8318273496,10500.0
62904.84183011954,10468.0
62904.85183288948,10481.0
62904.86183565942,10510.0
62904.87183842936,10497.0
62904.881841199305,10513.0
62904.89184396924,10470.0
62904.90184673919,10478.0
62904.91184950913,10479.0
62904.92185227907,10460.0
62904.93185504901,10498.0
62904.94185781895,10482.0
62904.951860588895,10491.0
62904.96186335883,10497.0
62904.97186612878,10497.0
62904.981868898714,10505.0
62904.99187166866,10488.0
62905.001874438596,10477.0
62905.01187720854,10529.0
62905.02187997848,10504.0
62905.03188274842,10507.0
62905.04188551836,10503.0
62905.051888288304,10542.0
62905.06189105824,10513.0
62905.071893828186,10522.0
62905.08189659812,10547.0
62905.09189936807,10519.0
62905.101902138005,10557.0
62905.11190490795,10578.0
62905.121907677894,10557.0
62905.13191044783,10576.0
62905.141913217776,10594.0
62905.15191598771,10569.0
62905.16191875766,10576.0
62905.171921527595,10598.0
62905.18192429754,10599.0
62905.19192706748,10567.0
62905.20192983742,10600.0
62905.21193260736,10598.0
62905.2219353773,10627.0
62905.23193814724,10620.0
62905.241940917185,10611.0
62905.25194368712,10622.0
62905.26194645707,10610.0
62905.271949227004,10611.0
62905.28195199695,10640.0
62905.291954766886,10640.0
62905.30195753683,10653.0
62905.311960306775,10661.0
62905.32196307671,10656.0
62905.33196584666,10678.0
62905.341968616594,10683.0
62905.35197138654,10669.0
62905.361974156476,10689.0
62905.37197692642,10639.0
62905.38197969636,10690.0
62905.3919824663,10737.0
62905.40198523624,10712.0
62905.411988006184,10736.0
62905.42199077612,10717.0
62905.431993546066,10734.0
62905.441996316,10737.0
62905.45199908595,10764.0
62905.462001855885,10776.0
62905.47200462583,10786.0
62905.48200739577,10770.0
62905.49201016571,10789.0
62905.502012935656,10803.0
62905.51201570559,10799.0
62905.52201847554,10789.0
62905.532021245475,10791.0
62905.54202401542,10798.0
62905.55202678536,10771.0
62905.5620295553,10750.0
62905.57203232524,10727.0
62905.58203509518,10715.0
62905.59203786512,10672.0
62905.602040635065,10654.0
62905.612043405,10637.0
62905.62204617495,10634.0
62905.632048944884,10584.0
62905.64205171483,10613.0
62905.652054484766,10591.0
62905.66205725471,10560.0
62905.67206002465,10557.0
62905.68206279459,10564.0
62905.69206556454,10574.0
62905.702068334474,10564.0
62905.71207110442,10532.0
62905.722073874356,10528.0
62905.7320766443,10550.0
62905.74207941424,10513.0
62905.75208218418,10544.0
62905.76208495412,10512.0
62905.772087724064,10554.0
62905.782090494,10499.0
62905.792093263946,10516.0
62905.80209603388,10505.0
62905.81209880383,10512.0
62905.822101573765,10529.0
62905.83210434371,10508.0
62905.84210711365,10524.0
62905.85210988359,10494.0
62905.86211265353,10495.0
62905.87211542347,10539.0
62905.88211819341,10519.0
62905.892120963355,10498.0
62905.9021237333,10471.0
62905.91212650324,10496.0
62905.92212927318,10498.0
62905.93213204312,10497.0
62905.94213481306,10493.0
62905.952137583,10504.0
62905.962140352945,10515.0
62905.97214312288,10524.0
62905.98214589283,10516.0
62905.992148662765,10508.0
62906.00215143271,10549.0
62906.012154202646,10537.0
62906.02215697259,10515.0
62906.03215974253,10572.0
62906.04216251247,10510.0
62906.05216528241,10558.0
62906.062168052355,10563.0
62906.07217082229,10542.0
62906.082173592236,10560.0
62906.09217636218,10562.0
62906.10217913212,10578.0
62906.11218190206,10607.0
62906.122184672,10554.0
62906.132187441945,10596.0
62906.14219021188,10615.0
62906.15219298183,10599.0
62906.162195751764,10590.0
62906.17219852171,10584.0
62906.182201291645,10619.0
62906.19220406159,10640.0
62906.20220683153,10623.0
62906.21220960147,10642.0
62906.22221237141,10638.0
62906.232215141354,10649.0
62906.24221791129,10654.0
62906.252220681235,10663.0
62906.26222345117,10663.0
62906.27222622112,10664.0
62906.28222899106,10684.0
62906.292231761,10684.0
62906.302234530944,10716.0
62906.31223730088,10690.0
62906.322240070826,10719.0
62906.33224284076,10708.0
62906.34224561071,10716.0
62906.352248380645,10719.0
62906.36225115059,10728.0
62906.37225392053,10740.0
62906.38225669047,10734.0
62906.39225946041,10767.0
62906.40226223035,10765.0
62906.41226500029,10758.0
62906.422267770235,10750.0
62906.43227054017,10794.0
62906.44227331012,10785.0
62906.452276080054,10793.0
62906.46227885,10783.0
62906.472281619936,10815.0
62906.48228438988,10794.0
62906.492287159825,10816.0
62906.50228992976,10828.0
62906.51229269971,10820.0
62906.522295469644,10811.0
62906.53229823959,10830.0
62906.542301009526,10857.0
62906.55230377947,10832.0
62906.56230654941,10789.0
62906.57230931935,10811.0
62906.58231208929,10764.0
62906.592314859234,10723.0
62906.60231762917,10740.0
62906.612320399116,10695.0
62906.62232316905,10678.0
62906.632325939,10677.0
62906.642328708935,10644.0
62906.65233147888,10652.0
62906.66233424882,10661.0
62906.67233701876,10635.0
62906.682339788706,10653.0
62906.69234255864,10634.0
62906.70234532859,10626.0
62906.712348098525,10639.0
62906.72235086847,10615.0
62906.73235363841,10620.0
62906.74235640835,10624.0
62906.75235917829,10604.0
62906.76236194823,10638.0
62906.77236471817,10622.0
62906.782367488115,10585.0
62906.79237025805,10626.0
62906.802373028,10608.0
62906.812375797934,10614.0
62906.82237856788,10628.0
62906.832381337816,10624.0
62906.84238410776,10633.0
62906.8523868777,10605.0
62906.86238964764,10628.0
62906.87239241759,10598.0
62906.882395187524,10606.0
62906.89239795747,10587.0
62906.902400727406,10606.0
62906.91240349735,10624.0
62906.92240626729,10586.0
62906.93240903723,10603.0
62906.94241180717,10599.0
62906.952414577114,10623.0
62906.96241734705,10603.0
62906.972420116996,10637.0
62906.98242288693,10624.0
62906.99242565688,10608.0
62907.002428426815,10611.0
62907.01243119676,10630.0
62907.0224339667,10626.0
62907.03243673664,10645.0
62907.04243950658,10633.0
62907.05244227652,10643.0
62907.06244504647,10650.0
62907.072447816405,10675.0
62907.08245058635,10667.0
62907.09245335629,10676.0
62907.10245612623,10707.0
62907.11245889617,10671.0
62907.12246166611,10694.0
62907.13246443605,10679.0
62907.142467205995,10698.0
62907.15246997593,10708.0
62907.16247274588,10691.0
62907.172475515814,10726.0
62907.18247828576,10717.0
62907.192481055696,10697.0
62907.20248382564,10748.0
62907.21248659558,10731.0
62907.22248936552,10728.0
62907.23249213546,10776.0
62907.242494905404,10739.0
62907.25249767534,10742.0
62907.262500445286,10755.0
62907.27250321523,10741.0
62907.28250598517,10768.0
62907.29250875511,10754.0
62907.30251152505,10761.0
62907.312514294994,10794.0
62907.32251706493,10772.0
62907.332519834876,10813.0
62907.34252260481,10781.0
62907.35252537476,10773.0
62907.362528144695,10823.0
62907.37253091464,10797.0
62907.38253368458,10815.0
62907.39253645452,10831.0
62907.40253922446,10822.0
62907.4125419944,10853.0
62907.42254476434,10846.0
62907.432547534285,10841.0
62907.44255030422,10863.0
62907.45255307417,10829.0
62907.46255584411,10852.0
62907.47255861405,10835.0
62907.48256138399,10824.0
62907.49256415393,10820.0
62907.502566923875,10787.0
62907.51256969381,10770.0
62907.52257246376,10760.0
62907.532575233694,10717.0
62907.54257800364,10743.0
62907.552580773576,10735.0
62907.56258354352,10684.0
62907.57258631346,10699.0
62907.5825890834,10691.0
62907.59259185334,10689.0
62907.602594623284,10683.0
62907.61259739322,10682.0
62907.622600163166,10685.0
62907.6326029331,10673.0
62907.64260570305,10687.0
62907.65260847299,10675.0
62907.66261124293,10680.0
62907.672614012874,10676.0
62907.68261678281,10655.0
62907.692619552756,10683.0
62907.70262232269,10687.0
62907.71262509264,10656.0
62907.722627862575,10697.0
62907.73263063252,10690.0
62907.74263340246,10689.0
62907.7526361724,10703.0
62907.76263894234,10663.0
62907.77264171228,10691.0
62907.78264448222,10686.0
62907.792647252165,10708.0
62907.8026500221,10708.0
62907.81265279205,10678.0
62907.822655561984,10710.0
62907.83265833193,10701.0
62907.842661101866,10689.0
62907.85266387181,10694.0
62907.862666641755,10679.0
62907.87266941169,10700.0
62907.88267218164,10707.0
62907.892674951574,10701.0
62907.90267772152,10711.0
62907.912680491456,10713.0
62907.9226832614,10712.0
62907.93268603134,10749.0
62907.94268880128,10714.0
62907.95269157122,10739.0
62907.962694341164,10737.0
62907.9726971111,10740.0
62907.982699881046,10773.0
62907.99270265098,10758.0
62908.00270542093,10749.0
62908.012708190865,10754.0
62908.02271096081,10794.0
62908.03271373075,10802.0
62908.04271650069,10796.0
62908.052719270636,10762.0
62908.06272204057,10810.0
62908.07272481052,10800.0
62908.082727580455,10810.0
62908.0927303504,10834.0
62908.10273312034,10836.0
62908.11273589028,10825.0
62908.12273866022,10809.0
62908.13274143016,10849.0
62908.1427442001,10868.0
62908.152746970045,10839.0
62908.16274973998,10849.0
62908.17275250993,10869.0
62908.182755279864,10843.0
62908.19275804981,10878.0
62908.202760819746,10878.0
62908.21276358969,10896.0
62908.22276635963,10883.0
62908.23276912957,10888.0
62908.24277189952,10907.0
62908.252774669454,10923.0
62908.2627774394,10887.0
62908.272780209336,10917.0
62908.28278297928,10904.0
62908.29278574922,10927.0
62908.30278851916,10924.0
62908.3127912891,10943.0
62908.322794059044,10945.0
62908.33279682898,10925.0
62908.342799598926,10928.0
62908.35280236886,10926.0
62908.36280513881,10898.0
62908.372807908745,10879.0
62908.38281067869,10865.0
62908.39281344863,10840.0
62908.40281621857,10818.0
62908.41281898851,10802.0
62908.42282175845,10826.0
62908.4328245284,10791.0
62908.442827298335,10781.0
62908.45283006828,10790.0
62908.46283283822,10762.0
62908.47283560816,10767.0
62908.4828383781,10763.0
62908.49284114804,10760.0
62908.50284391798,10750.0
62908.512846687925,10758.0
62908.52284945786,10775.0
62908.53285222781,10758.0
62908.542854997744,10733.0
62908.55285776769,10758.0
62908.562860537626,10745.0
62908.57286330757,10733.0
62908.58286607751,10768.0
62908.59286884745,10747.0
62908.60287161739,10740.0
62908.612874387334,10743.0
62908.62287715727,10753.0
62908.632879927216,10739.0
62908.64288269716,10752.0
62908.6528854671,10729.0
62908.66288823704,10765.0
62908.67289100698,10749.0
62908.682893776924,10739.0
62908.69289654686,10733.0
62908.702899316806,10748.0
62908.71290208674,10733.0
62908.72290485669,10750.0
62908.732907626625,10738.0
62908.74291039657,10744.0
62908.75291316651,10729.0
62908.76291593645,10743.0
62908.77291870639,10733.0
62908.78292147633,10744.0
62908.79292424627,10759.0
62908.802927016215,10772.0
62908.81292978615,10772.0
62908.8229325561,10805.0
62908.83293532604,10812.0
62908.84293809598,10791.0
62908.85294086592,10792.0
62908.86294363586,10779.0
62908.872946405805,10805.0
62908.88294917574,10806.0
62908.89295194569,10826.0
62908.902954715624,10827.0
62908.91295748557,10828.0
62908.922960255506,10829.0
62908.93296302545,10860.0
62908.94296579539,10838.0
62908.95296856533,10867.0
62908.96297133527,10830.0
62908.972974105214,10841.0
62908.98297687515,10843.0
62908.992979645096,10846.0
62909.00298241503,10859.0
62909.01298518498,10859.0
62909.02298795492,10855.0
62909.03299072486,10879.0
62909.042993494804,10881.0
62909.05299626474,10871.0
62909.062999034686,10916.0
62909.07300180462,10929.0
62909.08300457457,10909.0
62909.093007344505,10925.0
62909.10301011445,10914.0
62909.11301288439,10919.0
62909.12301565433,10938.0
62909.13301842427,10932.0
62909.14302119421,10949.0
62909.15302396415,10933.0
62909.163026734095,10950.0
62909.17302950403,10955.0
62909.18303227398,10975.0
62909.193035043914,10982.0
62909.20303781386,10974.0
62909.213040583796,10959.0
62909.22304335374,10965.0
62909.233046123685,11008.0
62909.24304889362,10991.0
62909.25305166357,10978.0
62909.263054433504,11002.0
62909.27305720345,10986.0
62909.283059973386,10989.0
62909.29306274333,10983.0
62909.30306551327,10944.0
62909.31306828321,10949.0
62909.32307105315,10906.0
62909.333073823094,10875.0
62909.34307659303,10875.0
62909.353079362976,10855.0
62909.36308213291,10867.0
62909.37308490286,10856.0
62909.383087672795,10811.0
62909.39309044274,10811.0
62909.40309321268,10809.0
62909.41309598262,10788.0
62909.423098752566,10779.0
62909.4331015225,10779.0
62909.44310429245,10775.0
62909.453107062385,10786.0
62909.46310983233,10757.0
62909.47311260227,10788.0
62909.48311537221,10749.0
62909.49311814215,10769.0
62909.50312091209,10781.0
62909.51312368203,10746.0
62909.523126451975,10747.0
62909.53312922191,10740.0
62909.54313199186,10734.0
62909.553134761794,10749.0
62909.56313753174,10744.0
62909.573140301676,10754.0
62909.58314307162,10767.0
62909.59314584156,10713.0
62909.6031486115,10742.0
62909.61315138145,10736.0
62909.623154151384,10764.0
62909.63315692133,10727.0
62909.643159691266,10714.0
62909.65316246121,10736.0
62909.66316523115,10738.0
62909.67316800109,10736.0
62909.68317077103,10715.0
62909.693173540974,10730.0
